DTS Sentinel unit serial number:	SN409020Multiplexer serial number:	ORYXHardware model number:	OX4-SRSoftware version number:	ORYX F/W v3.00 Oryx Data Collector v3.7.2.0data status	okinstallation	HaddamTimeLapsedifferential loss correction	single-endedforward channel	channel 3reverse channel	N/Adate	2011/06/21time	15:16:17forward acquisition time	30.00reverse acquisition time	0.00gamma	498.7831k internal	0.1825k external	0.1825temperature offset calibration	1.0074default loss term (dB/km)	0.3790temperature slope calibration	1.3530multiplexer offset coefficient	1.0000multiplexer slope coefficient	1.0000fibre end	0.00T internal ref (°C)	38.28T ext. ref 1 (°C)	28.34T ext. ref 2 (°C)	0.26length (m)	temperature (°C)	Stokes	anti-Stokes-747.200	134.978	0.074	-0.123
-746.185	-97.529	-0.422	-0.139
-745.171	80.179	0.121	0.166
-744.156	56.442	0.323	0.401
-743.142	9.626	0.479	0.462
-742.127	365.732	-0.083	0.214
-741.112	180.887	0.073	0.138
-740.098	800.000	-0.157	0.684
-739.083	-191.634	0.284	0.004
-738.069	-74.773	0.265	0.121
-737.054	95.156	0.271	0.393
-736.039	179.625	0.173	-0.324
-735.025	-99.953	-0.397	-0.125
-734.010	800.000	-0.099	0.390
-732.996	800.000	-0.014	0.060
-731.981	-123.926	-0.320	0.064
-730.966	-156.811	-0.282	-0.022
-729.952	-42.224	-0.360	-0.234
-728.937	-90.276	0.292	-0.107
-727.923	174.860	-0.137	0.253
-726.908	-57.847	-0.475	0.264
-725.894	-200.000	0.042	-0.298
-724.879	-103.438	-0.259	-0.077
-723.864	-93.740	0.290	-0.101
-722.850	-60.992	0.421	-0.226
-721.835	-93.215	0.134	-0.047
-720.821	-136.505	-0.294	0.043
-719.806	64.264	-0.261	-0.335
-718.791	-81.088	0.488	0.204
-717.777	800.000	0.066	0.363
-716.762	702.662	-0.052	-0.175
-715.748	138.633	0.101	0.169
-714.733	61.752	-0.194	-0.246
-713.718	49.732	-0.082	-0.098
-712.704	-141.200	0.577	0.074
-711.689	-164.207	0.236	0.014
-710.675	-38.178	0.246	-0.166
-709.660	365.317	0.003	-0.007
-708.645	-183.787	0.384	0.008
-707.631	-73.228	-0.360	-0.167
-706.616	-200.000	-0.055	0.565
-705.602	55.749	-0.042	-0.052
-704.587	35.035	-0.385	0.429
-703.572	-200.000	0.006	0.126
-702.558	800.000	0.068	-0.376
-701.543	-200.000	0.018	0.102
-700.529	-23.408	0.371	0.283
-699.514	-140.161	-0.286	0.038
-698.499	-200.000	0.008	-0.162
-697.485	-99.899	-0.211	-0.067
-696.470	683.904	0.084	-0.281
-695.456	17.099	-0.376	-0.379
-694.441	-4.279	-0.436	0.383
-693.426	-200.000	-0.023	0.547
-692.412	-36.738	-0.391	0.266
-691.397	-118.629	-0.211	0.047
-690.383	-79.136	0.209	-0.090
-689.368	177.821	0.011	0.020
-688.354	-1.434	0.105	0.094
-687.339	221.489	0.174	0.357
-686.324	-114.436	-0.122	-0.030
-685.310	-200.000	0.020	-0.229
-684.295	-200.000	0.014	0.267
-683.281	-32.822	-0.100	0.070
-682.266	13.926	0.366	0.362
-681.251	-200.000	0.006	-0.082
-680.237	-65.093	-0.431	-0.220
-679.222	-103.232	0.359	-0.107
-678.208	-49.049	-0.314	0.190
-677.193	410.006	-0.079	0.213
-676.178	231.496	0.250	0.522
-675.164	-67.879	-0.547	0.271
-674.149	-188.482	-0.715	0.011
-673.135	327.167	0.029	0.070
-672.120	-39.507	0.066	0.044
-671.105	-26.917	0.211	0.157
-670.091	-0.115	0.121	-0.110
-669.076	-155.840	-0.336	-0.027
-668.062	0.747	-0.209	-0.190
-667.047	-3.975	-0.378	0.333
-666.032	122.652	-0.216	-0.344
-665.018	189.470	-0.130	-0.249
-664.003	-100.137	0.254	0.080
-662.989	-188.838	-0.470	-0.007
-661.974	-57.348	-0.241	0.134
-660.959	-111.276	-0.179	0.046
-659.945	337.419	0.030	-0.075
-658.930	-87.830	0.157	0.060
-657.916	-73.421	0.081	-0.037
-656.901	-125.827	0.311	-0.059
-655.886	-94.802	-0.341	0.117
-654.872	278.317	0.056	0.127
-653.857	-53.666	0.086	-0.050
-652.843	-113.190	-0.204	0.051
-651.828	-12.306	-0.150	-0.125
-650.814	800.000	-0.055	0.247
-649.799	33.316	0.304	0.336
-648.784	-164.079	0.116	0.007
-647.770	-89.516	0.227	0.084
-646.755	31.500	0.211	-0.230
-645.741	-25.199	0.304	-0.228
-644.726	444.444	-0.078	0.219
-643.711	103.502	-0.072	0.107
-642.697	-163.058	0.356	0.022
-641.682	-86.180	-0.378	-0.147
-640.668	800.000	-0.144	-0.603
-639.653	83.208	0.290	0.401
-638.638	6.351	0.261	0.246
-637.624	83.802	-0.263	0.365
-636.609	-200.000	-0.028	0.264
-635.595	158.499	0.205	0.363
-634.580	28.734	-0.372	-0.400
-633.565	-84.172	0.063	0.025
-632.551	-200.000	0.018	0.471
-631.536	-121.700	-0.308	-0.064
-630.522	212.555	-0.259	0.521
-629.507	-112.268	0.163	-0.041
-628.492	-115.835	0.184	0.043
-627.478	-158.799	-0.404	0.029
-626.463	-131.992	0.400	-0.065
-625.449	-122.490	-0.242	-0.050
-624.434	695.715	-0.042	-0.139
-623.419	-193.844	-0.212	0.002
-622.405	8.204	0.277	0.264
-621.390	-200.000	-0.012	-0.074
-620.376	182.268	-0.121	0.228
-619.361	-125.961	0.552	-0.104
-618.346	165.962	-0.107	0.193
-617.332	-75.457	0.399	-0.179
-616.317	434.152	-0.094	-0.261
-615.303	-89.104	-0.194	-0.072
-614.288	-200.000	-0.045	0.268
-613.273	155.985	-0.259	-0.454
-612.259	385.299	-0.277	-0.727
-611.244	-7.569	0.335	-0.287
-610.230	105.294	0.212	-0.318
-609.215	-65.630	-0.418	-0.212
-608.201	800.000	0.047	-0.184
-607.186	13.609	-0.124	0.122
-606.171	-200.000	-0.006	0.221
-605.157	-200.000	-0.049	0.525
-604.142	277.664	-0.205	0.464
-603.128	-95.353	0.154	-0.052
-602.113	-128.871	-0.260	-0.046
-601.098	-174.565	-0.192	0.007
-600.084	247.956	0.107	-0.229
-599.069	-153.050	-0.091	-0.008
-598.055	-83.426	0.491	-0.198
-597.040	118.802	-0.174	-0.273
-596.025	-200.000	-0.034	0.320
-595.011	-157.540	0.289	-0.022
-593.996	-85.472	0.129	0.051
-592.982	-200.000	-0.002	-0.032
-591.967	92.354	-0.058	0.083
-590.952	-21.525	-0.182	0.141
-589.938	135.188	0.201	0.331
-588.923	77.123	0.079	-0.107
-587.909	11.709	0.369	-0.359
-586.894	-91.596	-0.475	-0.170
-585.879	102.501	0.195	-0.290
-584.865	89.106	-0.165	-0.233
-583.850	6.932	0.229	-0.216
-582.836	109.216	-0.284	-0.431
-581.821	-92.470	0.606	-0.215
-580.806	488.526	-0.055	0.161
-579.792	74.846	-0.277	-0.370
-578.777	-200.000	0.018	0.107
-577.763	141.382	0.076	0.127
-576.748	-155.062	0.323	-0.026
-575.733	-48.052	-0.279	-0.170
-574.719	-163.896	-0.466	-0.027
-573.704	114.451	-0.102	-0.158
-572.690	-200.000	-0.035	-0.413
-571.675	-124.172	0.154	0.030
-570.661	-60.439	0.266	0.143
-569.646	114.436	-0.014	0.022
-568.631	-200.000	-0.043	-0.447
-567.617	-200.000	0.009	-0.201
-566.602	464.011	0.030	-0.086
-565.588	800.000	0.010	0.039
-564.573	-68.244	-0.032	0.016
-563.558	31.885	-0.015	0.016
-562.544	129.044	0.199	-0.321
-561.529	-74.201	-0.056	-0.026
-560.515	-66.584	-0.207	-0.103
-559.500	-143.080	-0.082	-0.010
-558.485	-39.163	0.285	-0.189
-557.471	101.494	-0.189	0.279
-556.456	-63.157	-0.237	0.123
-555.442	-40.491	-0.240	0.157
-554.427	-200.000	-0.011	0.561
-553.412	60.051	0.279	0.349
-552.398	97.227	-0.101	-0.146
-551.383	-131.673	-0.854	0.140
-550.369	800.000	0.091	0.324
-549.354	800.000	-0.052	0.239
-548.339	-0.378	0.227	-0.204
-547.325	-87.375	0.305	-0.116
-546.310	-182.061	0.117	-0.003
-545.296	-105.779	-0.473	0.134
-544.281	-91.191	-0.706	-0.255
-543.266	7.921	-0.340	-0.322
-542.252	-121.307	0.487	-0.102
-541.237	191.759	-0.059	-0.113
-540.223	186.886	-0.173	-0.328
-539.208	265.854	-0.242	-0.535
-538.193	-200.000	0.005	-0.063
-537.179	-105.425	-0.065	-0.019
-536.164	-57.444	0.150	-0.083
-535.150	-43.792	0.360	0.228
-534.135	800.000	0.082	-0.328
-533.121	659.241	0.095	-0.310
-532.106	-74.173	0.176	-0.080
-531.091	800.000	-0.160	-0.731
-530.077	267.283	0.057	0.126
-529.062	698.340	0.099	0.332
-528.048	589.469	0.091	-0.285
-527.033	29.510	0.144	0.155
-526.018	652.201	-0.095	-0.311
-525.004	-11.118	-0.092	-0.076
-523.989	-200.000	-0.018	0.145
-522.975	270.721	-0.124	-0.278
-521.960	-19.418	0.338	0.264
-520.945	141.034	0.264	-0.443
-519.931	-31.288	0.261	0.186
-518.916	-96.076	-0.185	0.062
-517.902	85.670	0.157	0.218
-516.887	-87.718	0.205	0.078
-515.872	-200.000	0.026	0.170
-514.858	-89.888	0.242	0.089
-513.843	118.486	-0.187	-0.293
-512.829	800.000	-0.110	0.412
-511.814	80.599	0.487	0.664
-510.799	-119.195	-0.254	-0.056
-509.785	-21.146	-0.156	0.120
-508.770	-139.605	0.379	0.051
-507.756	-122.394	0.159	-0.032
-506.741	-168.883	0.253	0.012
-505.726	-107.652	-0.316	0.087
-504.712	-200.000	-0.008	-0.111
-503.697	88.247	0.157	-0.221
-502.683	-72.775	0.499	0.231
-501.668	-40.545	-0.343	0.224
-500.653	-86.608	0.415	-0.160
-499.639	-33.392	-0.229	-0.159
-498.624	75.816	-0.072	-0.097
-497.610	115.133	-0.049	-0.075
-496.595	-86.912	-0.178	-0.068
-495.581	31.067	0.156	-0.169
-494.566	98.389	-0.205	-0.298
-493.551	170.413	0.169	-0.306
-492.537	-200.000	-0.003	0.524
-491.522	446.952	-0.138	0.385
-490.508	-7.455	-0.199	-0.170
-489.493	396.198	0.111	-0.295
-488.478	52.906	0.283	0.341
-487.464	-19.059	0.148	0.116
-486.449	-200.000	-0.038	0.327
-485.435	-62.669	-0.277	-0.144
-484.420	-200.000	-0.011	-0.103
-483.405	10.541	-0.228	0.219
-482.391	-138.520	-0.239	-0.033
-481.376	800.000	-0.090	0.324
-480.362	97.438	0.161	0.233
-479.347	158.286	0.047	-0.083
-478.332	548.007	0.086	-0.261
-477.318	-97.386	-0.367	-0.120
-476.303	-99.467	0.372	0.117
-475.289	537.615	0.129	0.389
-474.274	-39.191	0.341	-0.225
-473.259	-30.866	0.207	0.147
-472.245	-143.036	-0.341	0.041
-471.230	11.824	0.099	0.096
-470.216	220.066	-0.141	-0.286
-469.201	-200.000	-0.632	0.003
-468.186	-200.000	-0.005	0.514
-467.172	800.000	-0.058	0.267
-466.157	522.524	0.164	0.489
-465.143	-139.001	-0.202	-0.027
-464.128	-180.877	0.212	-0.005
-463.113	-120.942	0.378	-0.079
-462.099	-149.500	0.130	0.013
-461.084	754.939	-0.117	0.400
-460.070	-21.362	-0.201	-0.154
-459.055	21.550	-0.243	-0.249
-458.040	21.712	-0.090	0.092
-457.026	96.505	-0.081	-0.117
-456.011	-77.640	0.352	0.153
-454.997	-142.301	-0.223	0.027
-453.982	-126.579	0.279	0.052
-452.968	91.833	0.227	0.322
-451.953	3.500	-0.244	0.224
-450.938	11.184	-0.145	0.140
-449.924	3.956	-0.329	0.302
-448.909	-200.000	0.011	0.900
-447.895	256.447	-0.138	0.301
-446.880	86.017	-0.243	0.337
-445.865	-95.756	0.481	0.161
-444.851	-1.449	0.065	0.058
-443.836	16.349	-0.090	-0.089
-442.822	-172.782	0.445	0.017
-441.807	-11.796	-0.057	0.047
-440.792	-200.000	-0.001	-0.042
-439.778	508.796	-0.133	-0.390
-438.763	-200.000	0.068	-0.425
-437.749	220.638	-0.170	0.345
-436.734	-10.593	0.353	-0.294
-435.719	-164.263	-0.256	0.015
-434.705	85.445	-0.065	0.091
-433.690	-96.316	0.033	0.011
-432.676	-200.000	-0.001	0.149
-431.661	-200.000	0.032	0.294
-430.646	-200.000	-0.021	0.235
-429.632	215.869	-0.055	-0.110
-428.617	-27.396	-0.349	-0.255
-427.603	-86.056	-0.487	-0.188
-426.588	77.362	0.214	0.287
-425.573	-200.000	0.037	0.235
-424.559	128.057	0.175	0.281
-423.544	25.495	-0.085	0.089
-422.530	-91.231	0.523	0.187
-421.515	-30.167	0.222	0.159
-420.500	5.620	0.177	-0.164
-419.486	29.372	0.247	-0.264
-418.471	-200.000	-0.049	-0.307
-417.457	-26.885	0.217	0.160
-416.442	510.869	0.124	-0.366
-415.428	-200.000	0.055	-0.750
-414.413	-18.556	-0.085	-0.067
-413.398	-109.447	-0.488	-0.129
-412.384	-187.508	-0.375	0.006
-411.369	-90.422	-0.221	-0.080
-410.355	124.009	-0.115	0.182
-409.340	-122.394	-0.157	-0.032
-408.325	132.684	0.236	-0.385
-407.311	400.522	-0.035	-0.093
-406.296	-28.384	0.311	-0.225
-405.282	335.741	-0.106	-0.260
-404.267	-200.000	-0.010	-0.087
-403.252	23.852	-0.100	0.104
-402.238	800.000	0.111	-0.493
-401.223	7.445	0.242	-0.228
-400.209	800.000	-0.131	-0.572
-399.194	-118.418	0.055	0.012
-398.179	-69.259	0.102	-0.049
-397.165	-164.443	0.504	0.028
-396.150	-122.160	0.362	0.074
-395.136	-3.301	-0.278	0.243
-394.121	-66.336	-0.422	0.210
-393.106	-144.353	-0.322	-0.037
-392.092	425.464	0.192	-0.522
-391.077	9.124	-0.109	0.104
-390.063	-200.000	0.048	0.381
-389.048	-107.576	0.247	-0.067
-388.033	-200.000	-0.001	-0.315
-387.019	-112.169	-0.234	0.059
-386.004	-18.736	0.159	0.124
-384.990	99.538	0.227	-0.331
-383.975	63.712	-0.202	-0.255
-382.960	-101.942	0.375	0.113
-381.946	307.844	-0.089	-0.210
-380.931	-87.662	-0.164	0.062
-379.917	-200.000	-0.013	0.086
-378.902	-200.000	-0.025	0.397
-377.888	-21.958	-0.239	0.182
-376.873	-66.443	-0.234	-0.116
-375.858	-200.000	0.032	0.947
-374.844	-200.000	-0.014	0.262
-373.829	-99.351	0.481	0.151
-372.815	-30.864	-0.252	0.179
-371.800	60.543	0.193	-0.240
-370.785	-26.891	-0.160	-0.117
-369.771	-21.414	-0.310	0.237
-368.756	-15.619	-0.357	0.285
-367.742	-200.000	0.026	0.156
-366.727	69.470	0.154	-0.200
-365.712	-122.405	0.323	0.066
-364.698	46.171	-0.204	-0.237
-363.683	90.598	-0.384	-0.541
-362.669	-131.736	-0.123	-0.020
-361.654	800.000	0.117	-0.449
-360.639	-84.444	0.220	-0.087
-359.625	38.803	0.264	0.297
-358.610	-83.544	0.354	0.142
-357.596	53.469	0.214	0.258
-356.581	-94.645	0.408	-0.139
-355.566	-198.738	0.112	-0.001
-354.552	139.025	-0.471	0.780
-353.537	-200.000	-0.020	0.133
-352.523	-91.827	-0.196	0.069
-351.508	-81.474	-0.195	-0.080
-350.493	136.518	-0.192	-0.315
-349.479	93.797	0.158	-0.226
-348.464	359.831	-0.261	-0.658
-347.450	-200.000	0.001	0.194
-346.435	79.734	-0.192	-0.259
-345.420	106.675	0.132	0.197
-344.406	-195.732	0.499	0.004
-343.391	-160.335	-0.359	0.024
-342.377	-107.414	-0.484	0.132
-341.362	-122.736	-0.179	-0.036
-340.348	-52.094	0.109	0.064
-339.333	-93.867	-0.208	-0.071
-338.318	-181.141	0.469	0.011
-337.304	104.164	-0.103	0.153
-336.289	55.685	0.337	-0.410
-335.275	-127.710	0.549	0.099
-334.260	113.262	-0.093	-0.142
-333.245	-177.701	-0.197	-0.006
-332.231	-91.801	-0.195	-0.069
-331.216	-117.874	-0.244	0.054
-330.202	184.390	-0.056	-0.105
-329.187	-46.570	-0.177	-0.108
-328.172	-131.180	-0.072	0.012
-327.158	-29.681	0.438	0.313
-326.143	-148.092	-0.369	-0.038
-325.129	-33.201	-0.388	-0.269
-324.114	-26.291	0.308	0.226
-323.099	-5.635	-0.404	-0.347
-322.085	-89.908	0.122	0.045
-321.070	-93.597	0.475	0.163
-320.056	-200.000	-0.010	0.142
-319.041	55.523	-0.181	-0.219
-318.026	-112.354	-0.414	-0.103
-317.012	-61.463	0.332	-0.175
-315.997	258.610	-0.104	-0.226
-314.983	132.609	0.330	-0.535
-313.968	292.676	0.335	-0.769
-312.953	73.015	0.138	-0.181
-311.939	800.000	-0.121	-0.641
-310.924	-126.054	0.284	-0.053
-309.910	-183.027	-0.126	0.003
-308.895	35.831	0.268	-0.295
-307.880	-72.199	0.205	-0.095
-306.866	-155.093	0.018	-0.001
-305.851	-165.603	0.247	-0.013
-304.837	-107.347	-0.226	-0.062
-303.822	27.423	-0.239	0.252
-302.807	-107.294	-0.197	-0.054
-301.793	65.700	0.246	-0.313
-300.778	344.568	0.094	0.233
-299.764	-200.000	0.009	0.220
-298.749	72.068	-0.240	0.313
-297.735	-88.510	0.093	0.035
-296.720	-33.647	0.194	0.134
-295.705	-120.044	0.455	0.097
-294.691	-119.649	-0.398	-0.085
-293.676	49.445	0.281	0.331
-292.662	290.477	-0.014	0.031
-291.647	117.585	-0.108	0.167
-290.632	82.376	0.280	0.380
-289.618	-109.639	-0.302	-0.079
-288.603	-3.978	-0.108	0.094
-287.589	-133.058	-0.491	-0.077
-286.574	-200.000	-0.011	0.250
-285.559	-200.000	0.020	0.170
-284.545	40.379	-0.311	0.350
-283.530	-200.000	-0.002	-0.291
-282.516	-15.291	-0.154	-0.123
-281.501	-117.828	-0.438	-0.098
-280.486	-200.000	0.000	-0.060
-279.472	-77.037	0.715	0.311
-278.457	-133.078	-0.061	0.010
-277.443	-19.334	-0.075	0.058
-276.428	190.027	-0.144	-0.271
-275.413	308.252	-0.017	-0.039
-274.399	-123.031	0.741	0.148
-273.384	370.549	0.134	-0.340
-272.370	-129.288	0.188	-0.032
-271.355	-111.612	0.451	-0.114
-270.340	-200.000	0.019	0.231
-269.326	49.566	-0.141	-0.166
-268.311	-12.497	-0.382	-0.312
-267.297	31.351	-0.185	-0.199
-266.282	142.283	-0.109	-0.182
-265.267	-152.644	0.224	0.020
-264.253	46.077	0.215	-0.249
-263.238	-85.037	0.165	-0.064
-262.224	-79.027	-0.265	0.112
-261.209	-135.347	-0.093	0.014
-260.195	190.753	-0.286	0.540
-259.180	-58.993	-0.476	-0.256
-258.165	-6.248	-0.275	-0.234
-257.151	-7.179	0.176	-0.149
-256.136	-200.000	0.037	-0.239
-255.122	-192.570	0.229	0.003
-254.107	305.589	0.162	-0.378
-253.092	51.221	0.294	-0.349
-252.078	132.716	-0.054	-0.088
-251.063	800.000	-0.095	0.383
-250.049	-200.000	0.020	0.139
-249.034	64.821	-0.242	0.306
-248.019	-109.935	-0.463	0.120
-247.005	-200.000	-0.003	-0.232
-245.990	13.851	0.075	-0.072
-244.976	-5.195	0.130	0.112
-243.961	607.974	0.085	0.266
-242.946	104.879	-0.250	0.369
-241.932	-200.000	-0.009	-0.392
-240.917	-42.908	-0.202	-0.128
-239.903	-116.779	0.168	-0.038
-238.888	-103.787	-0.383	0.111
-237.873	106.104	0.263	0.389
-236.859	43.151	0.154	-0.176
-235.844	-200.000	-0.020	-0.366
-234.830	-74.083	0.492	0.222
-233.815	-75.145	0.128	0.057
-232.800	172.204	-0.236	0.425
-231.786	0.997	0.428	-0.383
-230.771	77.342	0.189	-0.252
-229.757	-58.568	-0.297	0.160
-228.742	-173.794	-0.510	0.019
-227.727	-43.803	0.239	0.150
-226.713	-100.512	0.086	0.026
-225.698	-33.782	0.084	-0.057
-224.684	338.004	-0.249	0.609
-223.669	800.000	-0.160	0.702
-222.655	-45.936	-0.101	0.062
-221.640	-139.473	-0.352	0.047
-220.625	-112.035	-0.278	0.069
-219.611	-92.988	0.172	0.060
-218.596	-23.600	0.179	0.134
-217.582	-90.027	0.435	0.157
-216.567	-37.044	-0.056	-0.037
-215.552	-60.965	-0.122	0.064
-214.538	-0.031	0.011	0.010
-213.523	-32.393	0.056	-0.039
-212.509	-10.394	0.290	0.240
-211.494	-200.000	-0.001	0.183
-210.479	-193.043	-0.132	0.001
-209.465	153.102	0.196	0.336
-208.450	377.765	-0.247	0.633
-207.436	94.001	-0.224	0.317
-206.421	26.524	-0.104	-0.108
-205.406	181.396	-0.213	-0.392
-204.392	82.427	0.139	0.188
-203.377	5.910	-0.131	0.121
-202.363	-5.747	-0.200	-0.171
-201.348	-64.974	-0.140	-0.070
-200.333	800.000	-0.066	-0.256
-199.319	-29.738	-0.204	0.145
-198.304	-48.951	-0.423	0.252
-197.290	800.000	-0.080	0.424
-196.275	184.651	-0.060	-0.111
-195.260	-27.525	-0.250	-0.181
-194.246	-11.236	-0.318	0.261
-193.231	-100.288	0.203	0.062
-192.217	169.214	0.135	0.241
-191.202	-200.000	-0.020	0.158
-190.187	-65.943	0.205	-0.102
-189.173	-94.892	0.509	0.171
-188.158	196.912	0.205	-0.391
-187.144	488.289	0.135	-0.387
-186.129	-135.353	-0.151	0.022
-185.114	800.000	-0.018	-0.096
-184.100	-200.000	0.031	-0.241
-183.085	50.617	-0.335	-0.395
-182.071	-54.791	0.346	-0.194
-181.056	497.554	0.148	0.428
-180.042	-163.838	0.196	-0.011
-179.027	-18.329	-0.097	-0.076
-178.012	-111.566	-0.211	0.053
-176.998	-87.068	0.331	0.125
-175.983	2.356	0.210	-0.189
-174.969	-76.817	-0.406	-0.176
-173.954	-200.000	-0.045	-0.432
-172.939	-130.389	-0.617	-0.103
-171.925	800.000	-0.104	0.462
-170.910	132.274	-0.327	0.525
-169.896	800.000	-0.041	0.196
-168.881	800.000	-0.059	0.248
-167.866	-133.931	-0.118	-0.018
-166.852	-139.311	-0.102	0.014
-165.837	-75.741	0.335	0.148
-164.823	-90.646	0.190	-0.068
-163.808	-44.423	0.646	0.402
-162.793	-145.121	0.348	-0.039
-161.779	28.108	0.121	-0.128
-160.764	-168.614	0.390	0.018
-159.750	750.847	-0.108	0.366
-158.735	-200.000	0.011	0.062
-157.720	-20.025	-0.254	-0.195
-156.706	-116.189	0.228	-0.052
-155.691	-26.667	0.154	-0.112
-154.677	800.000	-0.097	-0.408
-153.662	54.021	0.218	0.261
-152.647	800.000	-0.062	-0.239
-151.633	-83.977	-0.419	-0.165
-150.618	406.313	0.069	-0.183
-149.604	31.286	-0.120	0.128
-148.589	-100.520	-0.361	-0.110
-147.574	-59.903	0.310	-0.165
-146.560	-7.711	-0.096	-0.080
-145.545	-200.000	-0.021	0.151
-144.531	-101.146	-0.252	0.076
-143.516	506.184	0.188	0.546
-142.502	195.841	0.166	0.315
-141.487	800.000	0.098	-0.513
-140.472	195.723	0.131	-0.248
-139.458	-51.697	-0.415	0.240
-138.443	-61.853	0.410	-0.213
-137.429	800.000	0.061	0.222
-136.414	-77.201	-0.159	-0.068
-135.399	132.032	0.140	-0.225
-134.385	-181.713	0.593	-0.014
-133.370	-200.000	-0.018	0.195
-132.356	26.305	0.229	-0.238
-131.341	-64.660	-0.245	0.123
-130.326	-22.927	0.094	-0.071
-129.312	-163.980	0.200	-0.011
-128.297	28.669	0.139	0.146
-127.283	800.000	-0.091	0.388
-126.268	58.110	-0.230	-0.280
-125.253	-139.868	-0.392	0.051
-124.239	402.183	-0.201	0.527
-123.224	-200.000	-0.081	0.554
-122.210	29.600	-0.198	-0.210
-121.195	232.996	0.076	0.157
-120.180	-77.189	-0.027	-0.011
-119.166	-200.000	-0.002	-0.352
-118.151	-200.000	0.001	-0.479
-117.137	-52.753	-0.202	-0.115
-116.122	220.658	0.069	-0.138
-115.107	-102.105	0.046	-0.014
-114.093	800.000	0.020	0.086
-113.078	117.960	0.170	0.262
-112.064	34.225	0.390	0.423
-111.049	-55.542	-0.383	0.213
-110.034	333.922	-0.111	-0.268
-109.020	4.158	0.149	-0.136
-108.005	-79.078	-0.289	-0.121
-106.991	187.970	-0.291	0.543
-105.976	-72.560	0.489	-0.223
-104.962	151.682	-0.148	0.251
-103.947	-119.999	0.198	0.042
-102.932	73.045	-0.164	-0.214
-101.918	-109.538	0.047	0.012
-100.903	-200.000	-0.016	-0.227
-99.889	13.411	0.391	-0.377
-98.874	-83.723	0.291	-0.115
-97.859	279.870	0.038	0.086
-96.845	120.165	0.239	0.369
-95.830	26.154	-0.239	-0.248
-94.816	-200.000	-0.010	-0.443
-93.801	-80.938	0.420	0.172
-92.786	34.612	0.103	-0.112
-91.772	98.060	-0.105	0.151
-90.757	99.665	0.314	0.453
-89.743	-50.024	0.410	-0.241
-88.728	-138.279	0.140	0.019
-87.713	636.852	-0.121	0.383
-86.699	-130.530	0.170	0.028
-85.684	-35.792	0.083	-0.055
-84.670	-38.282	-0.647	0.424
-83.655	-62.181	-0.104	0.054
-82.640	421.635	0.156	-0.418
-81.626	-89.098	0.087	-0.032
-80.611	45.150	-0.078	0.090
-79.597	-67.318	-0.280	-0.136
-78.582	-55.930	0.082	-0.045
-77.567	-75.986	0.090	0.039
-76.553	800.000	0.174	0.632
-75.538	182.450	0.117	-0.215
-74.524	113.829	-0.074	-0.112
-73.509	53.853	0.266	-0.317
-72.494	29.173	-0.034	0.036
-71.480	320.287	0.089	0.210
-70.465	-110.390	0.378	-0.097
-69.451	-109.902	-0.206	0.053
-68.436	800.000	-0.114	-0.484
-67.422	-200.000	-0.068	-0.770
-66.407	532.942	0.090	-0.265
-65.392	173.119	0.150	0.269
-64.378	-200.000	-0.015	0.132
-63.363	-55.677	-0.195	0.108
-62.349	-91.084	-0.396	0.140
-61.334	-40.469	-1.645	-1.058
-60.319	108.955	0.174	0.259
-59.305	402.551	-2.340	-6.133
-58.290	-26.596	2.762	2.003
-57.276	431.076	3.711	10.020
-56.261	-200.000	12.294	194.116
-55.246	502.309	1116.278	3216.606
-54.232	68.307	2762.600	3514.578
-53.217	73.862	2698.354	3513.928
-52.203	69.598	2429.689	3107.859
-51.188	43.943	2074.448	2358.646
-50.173	41.513	1938.884	2177.803
-49.159	39.264	1927.861	2140.763
-48.144	38.783	1924.750	2131.974
-47.130	38.781	1921.641	2128.418
-46.115	38.639	1920.263	2125.267
-45.100	38.556	1919.302	2123.212
-44.086	38.656	1917.242	2121.934
-43.071	38.600	1915.362	2119.158
-42.057	38.507	1914.314	2116.914
-41.042	38.560	1913.402	2116.394
-40.027	38.606	1912.160	2115.438
-39.013	38.642	1909.880	2113.219
-37.998	38.567	1909.217	2111.582
-36.984	38.362	1908.087	2108.031
-35.969	38.506	1906.371	2107.610
-34.954	38.477	1904.911	2105.597
-33.940	38.559	1903.355	2104.682
-32.925	38.525	1902.180	2102.933
-31.911	38.421	1901.627	2101.116
-30.896	38.529	1899.820	2100.205
-29.881	38.395	1899.164	2097.943
-28.867	38.358	1897.745	2095.898
-27.852	38.330	1896.008	2093.591
-26.838	38.231	1894.999	2091.331
-25.823	38.296	1892.876	2089.610
-24.809	38.269	1891.307	2087.497
-23.794	38.323	1890.906	2087.557
-22.779	38.288	1888.961	2084.947
-21.765	38.320	1888.197	2084.363
-20.750	38.275	1887.070	2082.555
-19.736	38.168	1886.288	2080.465
-18.721	38.179	1884.611	2078.646
-17.706	38.110	1883.334	2076.426
-16.692	38.264	1881.764	2076.257
-15.677	38.056	1881.675	2073.853
-14.663	38.128	1880.379	2073.107
-13.648	38.182	1877.962	2070.940
-12.633	38.166	1877.633	2070.326
-11.619	38.159	1876.279	2068.668
-10.604	38.049	1875.085	2066.106
-9.590	38.167	1873.436	2065.460
-8.575	38.180	1872.201	2064.151
-7.560	38.129	1871.651	2062.923
-6.546	38.058	1870.421	2060.733
-5.531	38.125	1869.149	2059.966
-4.517	38.093	1867.562	2057.791
-3.502	38.170	1867.299	2058.232
-2.487	38.111	1865.743	2055.810
-1.473	38.100	1863.013	2052.604
-0.458	37.857	1841.606	2026.404
0.556	32.721	1966.595	2094.123
1.571	30.739	2180.755	2297.330
2.586	32.577	2228.908	2371.056
3.600	32.790	2232.343	2377.122
4.615	33.026	2232.762	2380.280
5.629	32.789	2229.443	2373.452
6.644	32.818	2227.835	2371.829
7.659	33.025	2226.597	2372.840
8.673	33.385	2225.467	2375.889
9.688	32.759	2228.855	2371.310
10.702	28.797	2294.239	2388.931
11.717	24.820	2357.042	2400.511
12.731	12.919	2326.024	2209.301
13.746	2.142	2297.588	2038.067
14.761	0.439	2292.416	2010.434
15.775	0.380	2290.078	2007.352
16.790	0.183	2289.360	2003.846
17.804	0.198	2287.061	2001.789
18.819	0.264	2286.346	2001.802
19.834	0.221	2285.014	1999.822
20.848	0.260	2283.869	1999.103
21.863	0.104	2282.182	1995.316
22.877	0.254	2279.823	1995.002
23.892	0.212	2276.988	1991.729
24.907	0.288	2275.009	1990.767
25.921	0.117	2274.750	1988.026
26.936	0.157	2271.960	1985.883
27.950	0.216	2269.546	1984.320
28.965	0.205	2267.896	1982.489
29.980	0.201	2266.884	1981.320
30.994	0.369	2264.691	1981.379
32.009	6.680	2285.196	2083.013
33.023	21.378	2327.971	2319.127
34.038	28.128	2342.701	2423.772
35.053	29.245	2343.517	2439.190
36.067	29.500	2339.990	2438.619
37.082	29.070	2336.985	2429.491
38.096	28.997	2334.828	2425.988
39.111	29.272	2333.154	2427.605
40.126	29.695	2333.168	2432.926
41.140	30.130	2333.225	2438.441
42.155	29.963	2329.859	2432.427
43.169	29.867	2328.154	2429.098
44.184	29.933	2326.077	2427.505
45.199	29.829	2323.671	2423.327
46.213	29.864	2322.062	2421.822
47.228	29.770	2321.488	2419.704
48.242	29.845	2319.929	2418.774
49.257	29.972	2317.291	2417.402
50.271	30.299	2316.623	2420.696
51.286	30.189	2314.827	2417.087
52.301	29.851	2311.778	2409.191
53.315	30.148	2313.019	2414.088
54.330	31.248	2314.622	2429.867
55.344	31.698	2312.804	2433.551
56.359	31.908	2309.536	2432.564
57.374	31.603	2306.769	2425.384
58.388	31.334	2303.479	2418.135
59.403	31.568	2300.285	2417.534
60.417	31.811	2299.048	2419.091
61.432	32.180	2297.892	2422.372
62.447	31.982	2295.655	2417.165
63.461	31.839	2292.023	2411.199
64.476	31.414	2289.992	2403.288
65.490	32.126	2291.401	2413.679
66.505	32.312	2290.468	2414.808
67.520	31.315	2285.355	2396.275
68.534	29.499	2277.230	2364.118
69.549	28.975	2273.013	2352.723
70.563	29.024	2269.927	2349.877
71.578	28.997	2269.025	2348.313
72.593	29.363	2267.571	2351.217
73.607	29.574	2267.831	2353.918
74.622	29.670	2265.420	2352.356
75.636	29.387	2262.209	2345.127
76.651	29.333	2259.313	2341.148
77.666	29.243	2257.739	2338.094
78.680	29.198	2255.549	2334.967
79.695	29.222	2253.693	2333.083
80.709	29.208	2252.090	2330.963
81.724	29.205	2250.190	2328.675
82.739	29.380	2247.571	2327.902
83.753	29.417	2246.912	2327.417
84.768	29.247	2243.980	2321.945
85.782	29.104	2243.002	2318.850
86.797	29.075	2241.731	2316.887
87.812	28.803	2238.449	2309.778
88.826	28.716	2235.727	2305.598
89.841	28.792	2234.798	2305.322
90.855	29.094	2232.634	2306.620
91.870	28.812	2230.935	2301.036
92.884	28.766	2228.242	2297.408
93.899	29.091	2228.537	2301.521
94.914	29.198	2229.092	2303.161
95.928	29.954	2231.653	2315.044
96.943	30.497	2229.965	2319.827
97.957	29.561	2225.031	2302.690
98.972	28.922	2220.000	2289.222
99.987	28.557	2216.379	2280.647
101.001	28.595	2214.089	2278.500
102.016	28.784	2211.877	2278.296
103.030	28.874	2209.549	2276.749
104.045	29.021	2209.269	2278.025
105.060	29.351	2207.533	2280.066
106.074	29.397	2206.166	2278.947
107.089	29.111	2204.575	2273.478
108.103	29.123	2202.869	2271.598
109.118	29.444	2202.572	2274.994
110.133	29.377	2200.067	2271.310
111.147	29.027	2197.206	2263.756
112.162	28.906	2196.627	2261.394
113.176	29.112	2193.495	2260.444
114.191	29.244	2191.759	2260.013
115.206	29.168	2190.828	2257.844
116.220	29.233	2189.198	2256.690
117.235	29.167	2187.224	2253.573
118.249	29.104	2185.389	2250.638
119.264	29.296	2184.422	2251.729
120.279	29.327	2182.495	2249.862
121.293	29.218	2180.673	2246.372
122.308	29.065	2177.997	2241.473
123.322	28.913	2176.825	2238.149
124.337	28.926	2175.814	2236.993
125.352	30.342	2181.154	2259.556
126.366	31.355	2180.549	2271.046
127.381	30.047	2173.103	2247.077
128.395	29.251	2168.023	2231.876
129.410	29.267	2166.655	2230.389
130.424	29.322	2164.563	2228.645
131.439	29.278	2164.335	2227.600
132.454	29.206	2161.743	2223.800
133.468	29.328	2159.881	2223.094
134.483	29.648	2158.037	2224.804
135.497	29.559	2157.805	2223.227
136.512	29.715	2156.076	2223.064
137.527	29.400	2154.504	2217.368
138.541	29.192	2150.536	2210.514
139.556	28.958	2150.047	2206.922
140.570	28.959	2149.177	2205.780
141.585	29.158	2147.005	2205.683
142.600	29.301	2145.720	2205.815
143.614	29.136	2144.466	2202.282
144.629	29.251	2143.278	2202.177
145.643	29.136	2140.225	2197.395
146.658	29.043	2138.087	2193.829
147.673	28.797	2135.163	2187.619
148.687	29.010	2133.791	2188.498
149.702	29.070	2133.977	2189.137
150.716	29.060	2132.278	2187.013
151.731	29.256	2131.294	2188.091
152.746	29.314	2130.676	2187.887
153.760	29.113	2130.217	2184.757
154.775	29.819	2132.358	2195.109
155.789	30.188	2131.136	2197.982
156.804	29.239	2124.620	2179.725
157.819	28.724	2119.215	2167.816
158.833	28.725	2117.199	2165.496
159.848	29.013	2116.799	2168.246
160.862	29.318	2115.281	2170.038
161.877	29.600	2114.306	2172.110
162.892	29.922	2114.453	2175.813
163.906	30.056	2114.351	2177.032
164.921	29.885	2112.714	2173.066
165.935	29.844	2109.989	2169.519
166.950	29.625	2107.813	2164.445
167.964	29.403	2106.099	2159.806
168.979	29.273	2102.999	2154.842
169.994	29.282	2101.286	2152.940
171.008	29.211	2100.316	2150.846
172.023	29.159	2098.015	2147.624
173.037	29.309	2098.514	2149.643
174.052	29.537	2096.643	2150.132
175.067	29.442	2094.555	2146.629
176.081	29.282	2092.632	2142.528
177.096	29.407	2091.696	2142.772
178.110	29.172	2090.156	2138.204
179.125	29.099	2089.161	2136.075
180.140	29.231	2088.051	2136.224
181.154	29.400	2086.969	2136.822
182.169	29.590	2085.620	2137.395
183.183	29.801	2085.991	2139.980
184.198	30.962	2087.125	2154.379
185.213	30.850	2084.747	2150.369
186.227	29.822	2079.879	2133.180
187.242	29.141	2077.275	2122.375
188.256	28.953	2074.957	2117.578
189.271	29.243	2073.745	2119.432
190.286	29.439	2073.420	2121.118
191.300	29.315	2069.595	2115.517
192.315	29.268	2067.334	2112.417
193.329	29.488	2068.534	2115.923
194.344	30.013	2067.316	2120.472
195.359	30.053	2065.814	2119.132
196.373	30.175	2064.191	2118.612
197.388	29.927	2061.260	2112.507
198.402	29.663	2057.665	2105.549
199.417	29.711	2055.933	2104.068
200.432	29.697	2054.822	2102.521
201.446	29.536	2053.854	2099.445
202.461	29.240	2051.919	2093.838
203.475	29.015	2049.162	2088.206
204.490	28.792	2047.129	2083.339
205.504	28.952	2044.735	2082.480
206.519	28.987	2042.460	2080.311
207.534	29.084	2041.174	2079.847
208.548	29.076	2040.826	2079.155
209.563	28.695	2037.988	2071.700
210.577	28.630	2037.724	2070.441
211.592	29.336	2038.129	2078.603
212.607	29.248	2038.048	2077.275
213.621	29.133	2036.302	2073.952
214.636	29.211	2034.911	2073.163
215.650	29.030	2032.619	2068.542
216.665	28.981	2029.948	2065.017
217.680	29.343	2027.676	2066.536
218.694	29.321	2027.325	2065.693
219.709	29.131	2025.815	2061.767
220.723	29.489	2025.284	2065.000
221.738	29.880	2023.885	2067.720
222.753	29.726	2022.315	2064.139
223.767	29.421	2019.388	2057.484
224.782	29.189	2017.534	2052.758
225.796	29.287	2016.106	2052.158
226.811	29.695	2015.679	2056.033
227.826	29.839	2015.387	2057.101
228.840	29.774	2013.362	2054.068
229.855	29.515	2011.065	2048.584
230.869	29.381	2008.510	2044.245
231.884	29.123	2006.729	2039.314
232.899	29.225	2005.930	2039.399
233.913	29.509	2005.687	2042.065
234.928	29.732	2004.693	2043.285
235.942	29.580	2003.559	2040.191
236.957	29.451	2001.000	2035.919
237.972	29.512	1999.476	2034.797
238.986	29.387	1998.512	2032.183
240.001	29.097	1996.865	2027.062
241.015	29.048	1995.460	2024.849
242.030	29.721	1996.573	2033.176
243.045	31.172	1998.758	2051.203
244.059	31.489	1997.432	2053.100
245.074	30.350	1990.989	2033.689
246.088	29.494	1987.207	2020.174
247.103	29.565	1985.822	2019.310
248.117	29.652	1983.612	2017.772
249.132	29.630	1981.859	2015.510
250.147	29.480	1979.375	2011.100
251.161	29.236	1979.006	2007.813
252.176	29.494	1978.172	2009.546
253.190	29.632	1974.951	2007.540
254.205	29.309	1974.102	2002.910
255.220	29.429	1972.675	2002.532
256.234	29.402	1971.310	2000.612
257.249	29.312	1969.316	1997.369
258.263	29.179	1969.247	1995.616
259.278	29.403	1969.785	1998.357
260.293	29.518	1966.895	1996.440
261.307	29.347	1964.281	1991.687
262.322	29.284	1963.108	1989.577
263.336	28.802	1960.871	1981.843
264.351	28.637	1958.482	1977.415
265.366	28.863	1957.559	1978.689
266.380	29.051	1956.146	1979.048
267.395	28.560	1954.240	1971.587
268.409	28.531	1953.145	1969.932
269.424	28.819	1952.010	1971.661
270.439	28.936	1951.782	1972.451
271.453	29.396	1952.221	1977.620
272.468	30.385	1952.408	1988.217
273.482	30.236	1949.865	1983.793
274.497	29.229	1944.190	1966.987
275.512	28.970	1940.990	1960.735
276.526	29.026	1938.503	1958.584
277.541	28.792	1936.474	1953.805
278.555	28.728	1935.710	1952.112
279.570	28.453	1934.317	1947.543
280.585	28.620	1932.701	1947.456
281.599	28.650	1932.238	1947.080
282.614	29.031	1930.753	1949.412
283.628	29.615	1931.735	1956.391
284.643	30.039	1930.609	1959.518
285.657	29.963	1929.889	1957.752
286.672	29.737	1928.223	1953.429
287.687	29.444	1925.915	1947.740
288.701	29.263	1923.127	1942.775
289.716	29.247	1922.144	1941.375
290.730	29.487	1921.207	1942.737
291.745	29.734	1919.655	1943.548
292.760	29.690	1918.942	1942.131
293.774	29.451	1917.729	1938.141
294.789	29.668	1917.710	1940.179
295.803	29.983	1915.584	1941.121
296.818	29.746	1913.777	1936.558
297.833	29.807	1912.833	1936.014
298.847	29.719	1911.237	1933.241
299.862	29.748	1909.396	1931.451
300.876	29.820	1910.359	1932.952
301.891	30.888	1911.721	1945.320
302.906	31.051	1909.829	1944.868
303.920	30.089	1904.941	1929.597
304.935	29.815	1901.233	1922.746
305.949	29.764	1900.283	1921.024
306.964	29.999	1899.634	1922.585
307.979	29.947	1896.533	1918.680
308.993	29.081	1893.971	1906.848
310.008	29.056	1893.204	1905.583
311.022	29.586	1892.786	1910.452
312.037	29.757	1891.107	1910.297
313.052	29.605	1888.660	1906.026
314.066	29.430	1887.260	1902.566
315.081	29.398	1886.554	1901.302
316.095	29.718	1884.822	1902.632
317.110	29.470	1883.191	1898.197
318.125	29.315	1881.755	1894.928
319.139	29.151	1880.495	1891.729
320.154	29.310	1879.109	1891.752
321.168	29.066	1877.403	1887.298
322.183	29.147	1876.527	1887.024
323.197	29.367	1875.424	1887.956
324.212	29.383	1874.248	1886.712
325.227	29.031	1871.750	1880.356
326.241	28.722	1869.425	1874.625
327.256	28.910	1868.589	1875.488
328.270	28.895	1867.638	1874.155
329.285	29.041	1867.677	1875.459
330.300	29.346	1868.387	1879.074
331.314	30.124	1868.858	1887.290
332.329	30.398	1866.265	1887.243
333.343	29.538	1862.459	1874.397
334.358	29.172	1860.414	1868.386
335.373	29.369	1858.256	1868.002
336.387	29.300	1855.977	1864.789
337.402	29.119	1854.550	1861.294
338.416	29.034	1853.145	1858.795
339.431	29.164	1852.461	1859.206
340.446	29.512	1851.337	1861.385
341.460	29.539	1850.149	1860.234
342.475	29.793	1849.200	1861.629
343.489	29.423	1846.477	1854.933
344.504	29.105	1844.555	1849.565
345.519	29.221	1843.698	1849.657
346.533	29.524	1841.785	1850.567
347.548	29.516	1840.694	1849.168
348.562	29.545	1839.134	1847.670
349.577	29.613	1840.137	1849.146
350.592	29.840	1838.975	1850.043
351.606	29.922	1837.854	1849.511
352.621	29.922	1835.235	1846.651
353.635	29.486	1833.748	1840.573
354.650	29.163	1831.802	1835.162
355.665	29.053	1829.843	1831.882
356.679	29.273	1829.013	1833.025
357.694	29.251	1828.200	1831.772
358.708	29.190	1827.928	1830.667
359.723	29.760	1827.864	1836.081
360.738	30.384	1827.205	1841.423
361.752	30.261	1825.285	1838.039
362.767	29.856	1821.786	1830.272
363.781	29.673	1820.029	1826.468
364.796	29.738	1819.425	1826.294
365.810	29.708	1817.986	1824.332
366.825	29.478	1815.535	1819.368
367.840	29.285	1813.506	1815.208
368.854	29.098	1813.432	1813.074
369.869	29.132	1811.630	1811.382
370.883	29.238	1809.898	1810.484
371.898	29.346	1808.479	1809.918
372.913	29.507	1807.716	1810.526
373.927	29.493	1805.731	1808.178
374.942	29.176	1805.298	1804.413
375.956	29.265	1804.128	1803.894
376.971	29.050	1800.896	1798.336
377.986	29.262	1800.122	1799.435
379.000	29.394	1799.891	1800.283
380.015	29.338	1798.470	1798.100
381.029	29.304	1795.805	1794.878
382.044	29.384	1794.017	1793.659
383.059	29.405	1791.822	1791.455
384.073	28.972	1791.555	1786.755
385.088	28.888	1790.466	1784.632
386.102	29.090	1789.755	1785.677
387.117	29.219	1788.150	1785.116
388.132	29.345	1787.555	1785.537
389.146	29.507	1788.510	1787.854
390.161	30.186	1787.957	1793.696
391.175	30.345	1784.753	1791.812
392.190	29.566	1779.724	1779.008
393.205	29.223	1777.070	1772.828
394.219	29.124	1775.603	1770.186
395.234	28.858	1774.641	1766.448
396.248	28.796	1772.497	1763.511
397.263	28.761	1770.504	1760.975
398.278	28.736	1768.999	1759.026
399.292	28.745	1767.723	1757.630
400.307	29.112	1768.699	1761.926
401.321	29.407	1767.395	1763.246
402.336	29.428	1765.717	1761.564
403.350	29.391	1764.835	1760.120
404.365	29.764	1763.680	1762.331
405.380	29.818	1762.102	1761.064
406.394	29.539	1760.969	1757.049
407.409	29.373	1759.421	1753.707
408.423	29.415	1757.607	1752.092
409.438	29.436	1756.536	1751.018
410.453	29.291	1755.535	1748.426
411.467	29.398	1755.225	1748.927
412.482	29.383	1753.374	1746.730
413.496	29.471	1751.902	1745.888
414.511	29.456	1750.954	1744.595
415.526	29.444	1748.837	1742.167
416.540	29.735	1747.169	1743.048
417.555	29.646	1745.590	1740.421
418.569	29.302	1746.156	1737.526
419.584	29.573	1746.506	1740.231
420.599	29.522	1745.548	1738.584
421.613	29.004	1743.455	1731.390
422.628	28.944	1740.639	1727.823
423.642	29.354	1740.344	1731.192
424.657	29.328	1738.435	1728.837
425.672	28.877	1736.802	1722.764
426.686	29.185	1735.751	1724.413
427.701	29.311	1734.832	1724.475
428.715	29.597	1733.584	1725.716
429.730	29.964	1733.601	1728.976
430.745	30.217	1731.863	1729.407
431.759	29.967	1731.381	1726.376
432.774	29.340	1728.921	1717.843
433.788	28.061	1724.077	1700.876
434.803	27.012	1721.406	1688.243
435.818	26.840	1721.020	1686.053
436.832	26.766	1720.681	1684.829
437.847	26.130	1714.947	1673.088
438.861	17.260	1686.912	1563.872
439.876	3.900	1662.874	1418.879
440.890	0.701	1656.119	1383.548
441.905	0.381	1655.360	1379.802
442.920	0.255	1654.255	1377.555
443.934	0.208	1652.829	1375.773
444.949	0.287	1652.001	1375.643
445.963	0.233	1650.788	1373.974
446.978	0.231	1650.314	1373.396
447.993	0.125	1649.399	1371.498
449.007	0.238	1646.913	1370.304
450.022	0.365	1644.143	1368.994
451.036	0.286	1643.027	1367.180
452.051	1.406	1649.932	1383.015
453.066	12.686	1675.749	1508.880
454.080	24.951	1695.162	1639.771
455.095	28.544	1702.559	1679.879
456.109	31.232	1708.305	1710.129
457.124	32.619	1708.065	1722.445
458.139	31.649	1704.925	1710.168
459.153	30.704	1702.522	1698.885
460.168	30.682	1700.737	1696.696
461.182	30.879	1699.979	1697.539
462.197	31.059	1699.571	1698.583
463.212	31.111	1697.343	1696.626
464.226	31.187	1696.768	1696.543
465.241	31.556	1696.826	1699.765
466.255	31.869	1695.724	1701.313
467.270	31.914	1694.172	1699.963
468.285	31.717	1692.770	1696.560
469.299	31.723	1691.806	1695.448
470.314	31.921	1690.543	1695.774
471.328	32.052	1688.956	1695.172
472.343	31.918	1688.417	1693.208
473.358	31.946	1687.133	1691.976
474.372	31.888	1685.746	1689.856
475.387	32.110	1684.716	1690.629
476.401	32.307	1683.292	1690.781
477.416	31.856	1681.886	1685.093
478.430	32.256	1681.208	1687.817
479.445	32.250	1679.922	1686.272
480.460	31.843	1678.289	1680.767
481.474	31.935	1677.126	1680.227
482.489	32.312	1675.891	1682.183
483.503	32.286	1673.906	1679.758
484.518	32.085	1672.200	1676.042
485.533	32.506	1672.153	1679.568
486.547	32.660	1671.707	1680.299
487.562	32.710	1670.784	1679.613
488.576	33.044	1669.832	1681.451
489.591	33.284	1668.669	1682.218
490.606	33.075	1667.569	1679.038
491.620	33.137	1665.582	1677.393
492.635	33.087	1663.277	1674.422
493.649	32.568	1661.443	1667.760
494.664	31.696	1659.017	1657.372
495.679	31.280	1656.716	1651.185
496.693	31.729	1656.196	1654.457
497.708	32.121	1656.387	1657.928
498.722	32.616	1655.997	1661.726
499.737	32.810	1655.230	1662.475
500.752	32.612	1653.367	1658.653
501.766	32.477	1651.117	1655.002
502.781	32.633	1649.853	1654.913
503.795	32.590	1647.812	1652.292
504.810	32.433	1647.225	1650.119
505.825	32.530	1647.317	1650.872
506.839	32.357	1645.574	1647.408
507.854	32.358	1643.434	1645.078
508.868	32.386	1641.396	1643.081
509.883	31.765	1640.131	1636.171
510.898	31.570	1638.483	1632.618
511.912	31.266	1635.876	1627.168
512.927	30.848	1633.390	1620.840
513.941	30.879	1632.228	1619.770
514.956	31.473	1632.823	1625.358
515.971	32.652	1633.454	1636.088
516.985	32.074	1631.014	1628.406
518.000	31.369	1629.114	1620.176
519.014	31.233	1627.379	1617.072
520.029	31.239	1625.892	1615.454
521.043	31.184	1624.817	1613.713
522.058	31.219	1623.799	1612.811
523.073	31.364	1622.645	1612.728
524.087	31.587	1622.581	1614.411
525.102	31.993	1622.100	1617.253
526.116	32.207	1620.261	1617.079
527.131	32.080	1620.173	1615.701
528.146	32.554	1620.451	1619.879
529.160	32.894	1618.870	1621.041
530.175	33.073	1618.703	1622.229
531.189	33.113	1618.556	1622.229
532.204	33.146	1617.226	1620.984
533.219	32.916	1614.653	1616.236
534.233	32.429	1612.645	1609.849
535.248	32.071	1611.038	1604.968
536.262	32.434	1611.305	1608.162
537.277	33.264	1611.937	1615.728
538.292	33.844	1610.836	1619.405
539.306	33.730	1609.518	1616.911
540.321	33.568	1607.329	1613.132
541.335	32.986	1605.723	1606.356
542.350	33.480	1604.820	1609.479
543.365	33.753	1604.026	1610.819
544.379	34.101	1602.665	1612.223
545.394	34.086	1600.975	1610.203
546.408	32.973	1597.971	1597.533
547.423	32.137	1595.679	1587.947
548.438	32.082	1594.418	1586.034
549.452	32.605	1593.447	1589.316
550.467	32.709	1592.561	1589.127
551.481	32.799	1591.775	1588.909
552.496	33.003	1591.686	1590.356
553.511	33.316	1591.147	1592.276
554.525	33.273	1590.148	1590.727
555.540	33.233	1589.026	1589.073
556.554	33.372	1587.788	1588.813
557.569	33.130	1586.182	1584.981
558.583	32.816	1583.647	1579.615
559.598	32.802	1583.073	1578.736
560.613	32.817	1582.607	1578.211
561.627	32.765	1580.398	1575.384
562.642	32.622	1577.884	1571.492
563.656	31.955	1575.977	1563.815
564.671	31.685	1574.076	1559.478
565.686	31.620	1572.238	1556.930
566.700	31.485	1571.072	1554.461
567.715	31.289	1570.097	1551.674
568.729	31.833	1569.043	1554.984
569.744	32.640	1568.805	1561.285
570.759	32.939	1568.372	1563.161
571.773	32.349	1566.804	1556.502
572.788	31.995	1564.738	1551.325
573.802	31.615	1562.430	1545.694
574.817	31.461	1560.941	1542.756
575.832	31.472	1560.509	1542.239
576.846	32.246	1560.561	1548.520
577.861	32.789	1560.304	1552.568
578.875	32.976	1559.353	1552.987
579.890	33.197	1559.394	1554.670
580.905	33.285	1558.233	1554.052
581.919	33.457	1558.225	1555.276
582.934	33.604	1557.221	1555.297
583.948	33.519	1555.600	1552.793
584.963	33.270	1554.102	1549.062
585.978	32.848	1551.982	1543.297
586.992	32.543	1551.118	1539.746
588.007	33.130	1550.950	1544.219
589.021	33.060	1549.288	1541.805
590.036	32.276	1546.829	1532.753
591.051	32.893	1547.321	1538.110
592.065	33.588	1546.709	1542.999
593.080	33.870	1545.282	1543.701
594.094	34.111	1543.729	1543.926
595.109	33.582	1540.517	1536.227
596.123	32.808	1538.867	1528.100
597.138	33.123	1538.668	1530.280
598.153	33.210	1537.235	1529.378
599.167	33.087	1535.808	1526.779
600.182	33.025	1534.445	1524.733
601.196	33.130	1533.819	1524.781
602.211	33.224	1533.053	1524.603
603.226	33.100	1531.911	1522.275
604.240	33.295	1530.889	1522.661
605.255	33.341	1529.380	1521.343
606.269	33.400	1528.619	1520.883
607.284	33.245	1527.798	1518.632
608.299	33.119	1525.765	1515.419
609.313	33.076	1524.097	1513.232
610.328	32.987	1523.326	1511.568
611.342	32.925	1521.583	1509.159
612.357	32.834	1520.496	1507.173
613.372	32.820	1518.954	1505.354
614.386	32.697	1517.799	1503.041
615.401	32.673	1517.490	1502.359
616.415	32.345	1515.766	1497.850
617.430	32.006	1513.653	1492.870
618.445	31.638	1512.036	1488.164
619.459	31.510	1511.095	1486.034
620.474	31.517	1510.544	1485.372
621.488	32.109	1510.791	1490.161
622.503	33.280	1510.251	1498.778
623.518	32.470	1507.735	1489.661
624.532	31.585	1505.464	1480.204
625.547	31.481	1503.767	1477.535
626.561	31.481	1503.153	1476.756
627.576	31.361	1501.969	1474.463
628.591	31.823	1501.623	1477.606
629.605	32.371	1502.133	1482.276
630.620	32.889	1502.463	1486.525
631.634	33.827	1502.774	1494.078
632.649	34.037	1500.593	1493.388
633.663	33.154	1497.976	1483.643
634.678	32.090	1494.916	1472.054
635.693	31.590	1492.068	1465.139
636.707	31.499	1490.248	1462.463
637.722	31.378	1490.128	1461.218
638.736	31.990	1489.737	1465.467
639.751	32.646	1489.372	1470.079
640.766	32.803	1487.771	1469.552
641.780	32.599	1487.194	1467.212
642.795	32.846	1487.216	1468.987
643.809	32.968	1487.015	1469.570
644.824	33.173	1486.124	1470.113
645.839	33.410	1485.855	1471.522
646.853	33.308	1484.185	1468.901
647.868	33.337	1481.997	1466.786
648.882	33.061	1481.111	1463.582
649.897	32.904	1479.373	1460.472
650.912	32.920	1477.788	1458.851
651.926	33.309	1477.505	1461.420
652.941	33.410	1476.787	1461.319
653.955	33.107	1474.419	1456.451
654.970	32.435	1471.573	1448.269
655.985	32.216	1470.052	1444.910
656.999	31.778	1468.815	1440.138
658.014	32.038	1467.456	1440.640
659.028	32.522	1467.237	1443.981
660.043	33.182	1468.068	1449.717
661.058	33.402	1466.861	1450.045
662.072	33.476	1464.934	1448.537
663.087	33.073	1463.802	1444.145
664.101	32.821	1463.307	1441.550
665.116	32.863	1462.195	1440.603
666.131	32.961	1460.975	1439.980
667.145	32.974	1459.658	1438.607
668.160	32.872	1458.847	1436.862
669.174	32.605	1456.891	1432.722
670.189	32.845	1456.362	1433.858
671.204	32.949	1456.099	1434.222
672.218	32.918	1454.670	1432.411
673.233	33.113	1453.372	1432.448
674.247	32.992	1451.424	1429.433
675.262	32.604	1450.541	1425.444
676.276	32.514	1449.020	1423.095
677.291	32.600	1448.802	1423.362
678.306	33.046	1448.175	1425.960
679.320	32.849	1445.958	1422.113
680.335	32.314	1445.107	1417.057
681.349	32.340	1444.552	1416.537
682.364	32.389	1443.883	1416.085
683.379	32.171	1441.877	1412.298
684.393	32.168	1439.833	1410.106
685.408	32.086	1438.505	1408.022
686.422	32.070	1437.702	1406.941
687.437	31.737	1436.581	1403.170
688.452	31.248	1435.006	1397.789
689.466	31.060	1433.115	1394.366
690.481	31.125	1432.251	1393.848
691.495	31.638	1432.356	1397.630
692.510	32.803	1434.416	1408.224
693.525	33.891	1433.411	1415.217
694.539	33.280	1430.355	1407.468
695.554	31.872	1427.946	1394.410
696.568	31.167	1425.946	1387.027
697.583	31.068	1425.285	1385.480
698.598	31.370	1424.553	1386.854
699.612	31.487	1423.525	1386.557
700.627	31.676	1422.905	1387.195
701.641	32.249	1422.068	1390.475
702.656	32.363	1421.192	1390.299
703.671	32.186	1421.002	1388.631
704.685	32.220	1420.490	1388.221
705.700	32.551	1419.229	1389.279
706.714	32.382	1418.017	1386.670
707.729	32.364	1416.821	1385.205
708.744	32.449	1416.148	1385.011
709.758	32.402	1414.053	1382.445
710.773	31.734	1411.859	1375.207
711.787	31.450	1410.999	1372.110
712.802	32.247	1410.851	1377.675
713.816	32.529	1410.330	1379.082
714.831	32.561	1409.150	1377.993
715.846	32.493	1407.040	1375.271
716.860	32.353	1405.789	1372.852
717.875	32.315	1404.876	1371.518
718.889	32.187	1403.981	1369.547
719.904	32.140	1402.976	1368.055
720.919	32.150	1401.380	1366.407
721.933	32.087	1400.309	1364.744
722.948	31.859	1399.635	1362.258
723.962	31.986	1398.117	1361.539
724.977	31.696	1397.058	1358.232
725.992	31.919	1396.255	1358.915
727.006	32.304	1394.927	1360.257
728.021	32.267	1393.197	1358.138
729.035	32.168	1391.855	1355.956
730.050	32.046	1391.267	1354.329
731.065	32.030	1390.005	1352.825
732.079	31.863	1388.782	1350.263
733.094	32.019	1388.120	1350.589
734.108	32.424	1386.591	1351.864
735.123	32.222	1384.407	1348.114
736.138	32.053	1383.537	1345.892
737.152	31.937	1383.007	1344.381
738.167	31.661	1381.824	1341.081
739.181	31.639	1381.018	1339.981
740.196	31.664	1380.492	1339.489
741.211	31.533	1379.375	1337.303
742.225	31.643	1378.072	1336.670
743.240	31.429	1376.840	1333.778
744.254	31.299	1375.028	1330.936
745.269	31.124	1373.494	1328.036
746.284	30.865	1373.201	1325.741
747.298	30.852	1372.183	1324.511
748.313	31.300	1371.514	1326.903
749.327	31.829	1372.525	1331.504
750.342	32.846	1373.714	1339.759
751.356	33.711	1373.089	1345.156
752.371	33.469	1370.823	1341.049
753.386	31.987	1366.548	1326.187
754.400	31.346	1365.271	1320.242
755.415	31.556	1365.070	1321.378
756.429	31.787	1363.816	1321.643
757.444	31.839	1363.178	1321.240
758.459	31.774	1361.899	1319.382
759.473	31.457	1360.226	1315.361
760.488	31.407	1358.568	1313.244
761.502	31.184	1358.037	1311.003
762.517	31.560	1357.214	1312.702
763.532	31.899	1356.247	1314.000
764.546	31.841	1354.717	1311.950
765.561	31.398	1353.650	1307.648
766.575	30.850	1351.839	1301.894
767.590	30.898	1351.409	1301.655
768.605	31.698	1350.628	1306.358
769.619	32.096	1349.961	1308.347
770.634	31.992	1349.203	1306.732
771.648	31.462	1347.653	1301.366
772.663	31.150	1345.853	1297.289
773.678	31.364	1345.582	1298.370
774.692	31.460	1345.469	1298.778
775.707	31.542	1344.745	1298.496
776.721	31.451	1343.637	1296.635
777.736	31.311	1341.659	1293.596
778.751	31.358	1340.481	1292.629
779.765	31.374	1339.634	1291.767
780.780	31.410	1339.079	1291.332
781.794	31.346	1338.766	1290.427
782.809	31.026	1337.080	1286.432
783.824	30.684	1335.607	1282.491
784.838	31.029	1335.355	1284.482
785.853	32.232	1336.024	1293.302
786.867	31.935	1334.658	1289.769
787.882	31.366	1332.959	1284.047
788.897	30.883	1331.785	1279.429
789.911	30.784	1329.890	1276.776
790.926	30.591	1328.387	1273.850
791.940	30.746	1327.183	1273.608
792.955	30.641	1325.761	1271.369
793.969	30.664	1324.604	1270.266
794.984	30.693	1324.358	1270.076
795.999	30.850	1323.661	1270.335
797.013	30.930	1321.783	1268.923
798.028	31.011	1320.237	1267.841
799.042	30.963	1320.173	1267.300
800.057	30.981	1318.705	1265.867
801.072	30.799	1317.832	1263.634
802.086	30.940	1316.476	1263.143
803.101	30.737	1315.455	1260.631
804.115	30.864	1314.796	1260.711
805.130	31.038	1313.584	1260.581
806.145	30.847	1312.596	1258.183
807.159	30.892	1311.488	1257.279
808.174	31.229	1310.786	1258.737
809.188	31.334	1309.417	1257.987
810.203	31.057	1308.550	1255.127
811.218	31.139	1307.001	1254.046
812.232	30.707	1304.978	1249.039
813.247	30.589	1303.857	1247.019
814.261	30.826	1304.252	1248.851
815.276	31.286	1302.888	1250.489
816.291	30.943	1301.437	1246.640
817.305	30.691	1300.237	1243.650
818.320	30.560	1299.481	1241.898
819.334	30.898	1298.291	1242.880
820.349	30.867	1297.100	1241.382
821.364	30.722	1295.498	1238.730
822.378	30.712	1294.161	1237.235
823.393	30.691	1292.673	1235.525
824.407	30.622	1291.671	1233.957
825.422	30.646	1291.078	1233.407
826.437	30.636	1290.642	1232.777
827.451	30.361	1288.975	1229.207
828.466	31.148	1289.334	1234.637
829.480	32.051	1287.838	1239.053
830.495	31.407	1285.042	1231.950
831.509	30.654	1283.326	1225.174
832.524	30.615	1282.627	1224.098
833.539	30.553	1281.592	1222.559
834.553	30.613	1279.588	1220.894
835.568	30.574	1278.098	1219.067
836.582	30.524	1277.766	1218.277
837.597	30.532	1276.929	1217.389
838.612	30.624	1275.246	1216.240
839.626	30.533	1274.356	1214.645
840.641	30.661	1273.918	1214.923
841.655	30.816	1272.431	1214.382
842.670	30.434	1271.745	1211.073
843.685	30.222	1270.329	1208.192
844.699	30.635	1269.015	1209.501
845.714	30.759	1267.800	1209.009
846.728	30.438	1267.173	1206.170
847.743	30.309	1266.353	1204.406
848.758	30.527	1264.747	1204.154
849.772	30.393	1264.227	1202.639
850.787	30.401	1262.295	1200.712
851.801	30.224	1261.924	1199.062
852.816	30.324	1260.942	1198.637
853.831	30.613	1258.482	1198.023
854.845	30.353	1257.876	1195.624
855.860	30.154	1256.650	1193.029
856.874	30.307	1255.269	1192.559
857.889	30.664	1255.119	1194.580
858.904	31.436	1254.695	1199.015
859.918	32.102	1254.292	1202.777
860.933	32.513	1253.428	1204.447
861.947	31.884	1251.577	1198.487
862.962	30.877	1249.360	1189.759
863.977	30.787	1247.358	1187.130
864.991	30.628	1245.932	1184.613
866.006	30.412	1245.703	1182.873
867.020	30.329	1244.406	1180.966
868.035	30.347	1243.359	1179.946
869.049	30.238	1242.508	1178.302
870.064	30.358	1241.409	1177.886
871.079	30.492	1240.763	1177.984
872.093	30.269	1240.095	1175.787
873.108	30.290	1238.974	1174.716
874.122	30.281	1237.776	1173.387
875.137	30.172	1236.592	1171.433
876.152	30.125	1236.067	1170.496
877.166	30.245	1234.052	1169.208
878.181	30.025	1232.653	1166.351
879.195	30.150	1232.289	1166.658
880.210	30.218	1231.773	1166.454
881.225	30.154	1231.127	1165.303
882.239	30.154	1229.607	1163.723
883.254	30.077	1228.819	1162.351
884.268	30.144	1228.439	1162.274
885.283	30.224	1226.816	1161.104
886.298	30.104	1225.010	1158.506
887.312	30.128	1224.226	1157.775
888.327	30.151	1223.492	1157.084
889.341	30.276	1221.699	1156.034
890.356	30.120	1221.071	1154.322
891.371	30.194	1221.275	1154.846
892.385	30.235	1220.594	1154.317
893.400	30.290	1219.178	1153.181
894.414	30.545	1218.018	1153.539
895.429	30.853	1218.403	1155.686
896.444	31.881	1219.192	1162.709
897.458	33.229	1218.610	1170.402
898.473	32.382	1216.521	1162.999
899.487	31.366	1213.966	1154.115
900.502	30.417	1212.555	1146.747
901.517	30.032	1210.874	1142.629
902.531	30.068	1209.269	1141.204
903.546	30.106	1208.613	1140.684
904.560	30.113	1207.852	1139.873
905.575	30.009	1206.799	1138.100
906.589	30.088	1205.628	1137.346
907.604	30.043	1205.015	1136.356
