DTS Sentinel unit serial number:	SN409020Multiplexer serial number:	ORYXHardware model number:	OX4-SRSoftware version number:	ORYX F/W v3.00 Oryx Data Collector v3.7.2.0data status	okinstallation	HaddamTimeLapsedifferential loss correction	single-endedforward channel	channel 3reverse channel	N/Adate	2011/06/22time	11:06:01forward acquisition time	30.00reverse acquisition time	0.00gamma	498.7831k internal	0.1768k external	0.1768temperature offset calibration	1.0074default loss term (dB/km)	0.3790temperature slope calibration	1.3530multiplexer offset coefficient	1.0000multiplexer slope coefficient	1.0000fibre end	0.00T internal ref (°C)	29.56T ext. ref 1 (°C)	24.69T ext. ref 2 (°C)	-0.10length (m)	temperature (°C)	Stokes	anti-Stokes-747.200	-157.228	-0.161	-0.013
-746.185	36.060	0.129	0.150
-745.171	-173.489	-0.300	0.012
-744.156	-125.030	0.287	0.058
-743.142	62.870	-0.250	0.329
-742.127	-69.294	0.081	-0.041
-741.112	-110.449	-0.173	-0.047
-740.098	-31.937	0.318	-0.234
-739.083	-162.411	0.082	-0.005
-738.069	188.771	0.069	0.136
-737.054	800.000	0.052	-0.210
-736.039	-74.739	-0.296	0.139
-735.025	-141.915	0.661	0.086
-734.010	-198.399	0.507	-0.004
-732.996	65.846	0.033	-0.044
-731.981	-84.914	0.664	0.273
-730.966	676.287	-0.112	0.386
-729.952	76.433	0.120	0.168
-728.937	-70.671	0.172	0.085
-727.923	76.864	-0.285	-0.399
-726.908	-106.369	0.279	-0.082
-725.894	-28.751	0.161	-0.121
-724.879	-122.496	0.387	-0.082
-723.864	-88.572	-0.249	-0.097
-722.850	-72.876	0.394	-0.190
-721.835	177.535	0.237	-0.455
-720.821	307.846	0.048	-0.119
-719.806	-85.645	-0.331	0.134
-718.791	-175.319	-0.120	-0.004
-717.777	-199.804	0.340	0.002
-716.762	-94.734	0.596	-0.211
-715.748	111.404	0.135	-0.214
-714.733	-153.561	0.265	0.024
-713.718	-111.967	0.344	-0.090
-712.704	800.000	-0.007	0.035
-711.689	800.000	-0.075	-0.406
-710.675	1.879	0.394	-0.373
-709.660	212.301	0.096	-0.200
-708.645	-87.420	0.134	-0.053
-707.631	-44.637	-0.178	-0.116
-706.616	-29.622	0.194	0.145
-705.602	-53.325	-0.021	0.013
-704.587	800.000	-0.050	-0.238
-703.572	-7.970	-0.223	-0.198
-702.558	-119.119	0.271	0.062
-701.543	-9.600	0.066	-0.058
-700.529	-60.218	0.325	-0.181
-699.514	800.000	-0.076	-0.386
-698.499	-115.773	0.309	0.075
-697.485	-77.914	0.199	-0.090
-696.470	-86.132	-0.046	-0.018
-695.456	-200.000	-0.017	-0.431
-694.441	-57.710	0.419	-0.240
-693.426	-200.000	0.030	-0.333
-692.412	-24.984	0.204	0.158
-691.397	800.000	-0.065	0.261
-690.383	-34.095	-0.345	-0.249
-689.368	-184.205	-0.537	0.011
-688.354	-200.000	-0.049	-0.405
-687.339	-147.757	0.433	0.047
-686.324	175.365	-0.138	-0.263
-685.310	-42.780	-0.167	-0.111
-684.295	-200.000	-0.011	-0.338
-683.281	800.000	0.044	-0.175
-682.266	-200.000	-0.005	-0.281
-681.251	-76.468	0.586	-0.269
-680.237	-108.141	-0.152	0.043
-679.222	193.545	-0.059	-0.117
-678.208	-200.000	0.003	0.162
-677.193	52.621	-0.133	0.166
-676.178	-60.167	-0.351	0.196
-675.164	91.874	-0.180	-0.267
-674.149	-135.564	0.096	0.015
-673.135	-83.156	0.542	-0.228
-672.120	88.753	0.348	-0.508
-671.105	-32.319	-0.295	-0.216
-670.091	424.506	-0.180	-0.512
-669.076	18.374	-0.180	-0.189
-668.062	-105.774	-0.459	-0.135
-667.047	800.000	-0.103	-0.478
-666.032	-200.000	0.062	-0.377
-665.018	800.000	-0.057	0.254
-664.003	-200.000	-0.047	-0.386
-662.989	697.136	-0.049	0.169
-661.974	800.000	0.030	-0.173
-660.959	800.000	0.061	-0.289
-659.945	768.099	-0.086	-0.310
-658.930	-92.109	0.236	0.087
-657.916	317.469	0.070	-0.175
-656.901	-200.000	0.010	-0.264
-655.886	98.634	-0.250	-0.378
-654.872	88.612	-0.498	-0.727
-653.857	41.171	0.082	-0.097
-652.843	-31.285	-0.310	-0.229
-651.828	-113.923	0.085	-0.022
-650.814	161.439	-0.076	-0.140
-649.799	-123.851	0.190	-0.039
-648.784	-200.000	-0.013	-0.144
-647.770	-131.321	0.405	-0.070
-646.755	-145.790	-0.182	-0.021
-645.741	135.069	0.162	-0.276
-644.726	58.578	0.063	0.081
-643.711	-20.352	0.186	-0.150
-642.697	202.585	-0.043	0.087
-641.682	-55.579	0.292	-0.171
-640.668	-66.226	0.343	-0.178
-639.653	-59.122	-0.211	-0.119
-638.638	-18.704	-0.256	0.209
-637.624	97.043	0.247	-0.371
-636.609	-109.253	0.563	0.155
-635.595	-116.824	-0.570	-0.136
-634.580	385.553	0.035	0.094
-633.565	-27.553	0.099	-0.075
-632.551	73.578	-0.076	-0.105
-631.536	37.510	0.068	0.079
-630.522	-34.286	-0.167	0.120
-629.507	67.195	0.258	0.345
-628.492	-93.196	0.502	0.182
-627.478	91.184	-0.217	-0.319
-626.463	800.000	-0.115	-0.532
-625.449	68.427	0.379	-0.509
-624.434	82.749	-0.344	-0.489
-623.419	38.300	-0.367	-0.428
-622.405	102.732	-0.272	-0.417
-621.390	-162.278	0.090	0.006
-620.376	195.143	0.153	-0.305
-619.361	800.000	0.112	-0.425
-618.346	51.751	0.323	-0.402
-617.332	-50.430	-0.103	0.064
-616.317	220.852	-0.167	-0.352
-615.303	-139.210	0.311	-0.043
-614.288	27.177	0.334	0.367
-613.273	-200.000	0.032	0.495
-612.259	7.002	-0.119	-0.116
-611.244	-109.075	0.484	0.134
-610.230	-87.829	0.459	-0.180
-609.215	7.922	-0.091	-0.089
-608.201	-2.478	0.208	-0.191
-607.186	800.000	-0.025	-0.131
-606.171	-163.572	-0.337	-0.021
-605.157	-26.358	-0.065	-0.050
-604.142	-15.287	0.107	0.089
-603.128	27.249	0.242	0.265
-602.113	23.987	-0.319	0.344
-601.098	-56.328	-0.203	0.118
-600.084	-116.527	0.240	-0.057
-599.069	-54.157	0.198	-0.117
-598.055	-70.179	-0.060	-0.030
-597.040	-4.779	-0.449	0.404
-596.025	11.518	-0.059	-0.059
-595.011	-189.299	-0.130	-0.002
-593.996	-112.495	-0.021	0.005
-592.982	-200.000	0.030	-0.283
-591.967	-71.328	0.252	0.123
-590.952	-59.762	-0.139	-0.078
-589.938	72.291	-0.231	0.315
-588.923	-163.672	-0.524	-0.032
-587.909	-66.048	0.299	0.155
-586.894	-200.000	0.040	0.246
-585.879	-200.000	-0.018	0.350
-584.865	11.010	0.482	0.481
-583.850	-101.769	0.223	-0.070
-582.836	-100.340	0.208	0.067
-581.821	-200.000	0.047	0.537
-580.806	-3.778	0.436	0.396
-579.792	-200.000	-0.039	-0.232
-578.777	-37.770	0.235	0.163
-577.763	123.741	0.267	0.439
-576.748	-20.262	-0.359	-0.288
-575.733	-90.938	-0.351	-0.131
-574.719	-6.658	0.159	-0.141
-573.704	-0.719	-0.085	0.079
-572.690	220.469	-0.172	0.362
-571.675	-102.917	-0.416	0.128
-570.661	-138.689	0.401	-0.057
-569.646	-100.247	0.357	-0.115
-568.631	60.888	0.098	0.127
-567.617	223.807	0.098	0.208
-566.602	-200.000	-0.012	-0.398
-565.588	0.379	-0.410	-0.382
-564.573	-198.628	-0.485	0.003
-563.558	-200.000	-0.287	0.001
-562.544	-100.428	-0.338	-0.109
-561.529	-144.641	0.159	-0.019
-560.515	-121.651	-0.329	0.071
-559.500	-200.000	-0.032	-0.315
-558.485	-83.533	-0.682	0.283
-557.471	169.253	-0.124	-0.233
-556.456	-149.279	-0.143	0.015
-555.442	-72.368	-0.270	-0.130
-554.427	-76.464	0.453	0.207
-553.412	-8.331	0.380	0.333
-552.398	-109.160	-0.317	-0.087
-551.383	102.223	0.041	-0.063
-550.369	-200.000	-0.012	0.175
-549.354	-146.804	0.142	-0.016
-548.339	-200.000	-0.019	0.501
-547.325	249.463	-0.059	-0.131
-546.310	402.796	-0.132	-0.364
-545.296	800.000	-0.042	-0.220
-544.281	-8.194	-0.082	-0.072
-543.266	36.389	0.445	0.512
-542.252	-131.717	0.322	-0.055
-541.237	81.365	0.057	-0.081
-540.223	-80.953	0.368	-0.159
-539.208	3.932	-0.261	-0.248
-538.193	-34.358	-0.471	-0.336
-537.179	-65.122	0.082	-0.043
-536.164	329.041	0.113	-0.283
-535.150	800.000	-0.061	-0.268
-534.135	-52.689	-0.351	-0.211
-533.121	-55.174	0.214	0.125
-532.106	-68.929	0.225	-0.113
-531.091	-48.504	0.309	-0.193
-530.077	-72.672	-0.162	0.078
-529.062	-98.672	-0.411	-0.136
-528.048	-76.331	-0.115	-0.053
-527.033	417.639	-0.072	0.201
-526.018	-21.471	-0.205	0.163
-525.004	-75.566	0.060	-0.028
-523.989	91.992	-0.266	0.391
-522.975	33.724	-0.170	-0.193
-521.960	-125.576	0.120	-0.024
-520.945	-13.828	-0.139	-0.117
-519.931	-70.823	-0.167	-0.082
-518.916	-159.485	0.298	0.021
-517.902	137.494	-0.137	-0.234
-516.887	95.599	0.300	0.447
-515.872	-11.327	-0.340	-0.292
-514.858	-170.648	0.188	-0.008
-513.843	331.940	0.083	0.211
-512.829	-200.000	-0.046	0.473
-511.814	19.435	-0.200	0.209
-510.799	-59.821	-0.297	0.165
-509.785	130.745	-0.091	-0.153
-508.770	-38.146	-0.206	0.142
-507.756	-44.127	-0.128	0.083
-506.741	-63.091	-0.404	-0.217
-505.726	-34.817	-0.248	0.176
-504.712	359.516	-0.036	0.094
-503.697	-117.788	-0.384	0.089
-502.683	265.410	0.129	-0.295
-501.668	-116.600	-0.368	0.088
-500.653	-139.028	-0.174	0.024
-499.639	-50.785	-0.201	-0.123
-498.624	-124.598	0.266	0.053
-497.610	-53.595	-0.406	-0.241
-496.595	-45.453	-0.219	-0.141
-495.581	41.912	0.219	0.259
-494.566	-44.128	0.325	0.212
-493.551	-100.929	-0.148	0.047
-492.537	-92.079	-0.412	0.151
-491.522	-154.116	-0.310	-0.027
-490.508	800.000	-0.016	0.076
-489.493	-64.598	0.266	-0.140
-488.478	-200.000	0.015	0.221
-487.464	65.507	-0.142	-0.188
-486.449	-130.370	0.449	0.078
-485.435	-34.673	0.530	0.377
-484.420	684.094	0.078	-0.267
-483.405	18.947	-0.214	-0.224
-482.391	-120.723	0.582	-0.127
-481.376	-200.000	0.691	-0.002
-480.362	-200.000	-0.011	0.225
-479.347	-98.687	-0.443	0.146
-478.332	-200.000	-0.301	-0.001
-477.318	25.395	-0.237	0.257
-476.303	-200.000	0.092	-0.671
-475.289	470.252	0.083	-0.245
-474.274	-116.556	0.334	0.079
-473.259	150.318	-0.185	-0.327
-472.245	-24.173	-0.251	-0.194
-471.230	-18.485	0.062	0.050
-470.216	55.866	0.265	0.335
-469.201	-46.874	-0.108	-0.069
-468.186	-88.946	-0.366	-0.140
-467.172	33.688	-0.462	0.523
-466.157	-140.993	-0.321	-0.042
-465.143	-132.414	-0.272	-0.045
-464.128	-157.358	-0.365	-0.028
-463.113	200.573	0.121	0.243
-462.099	-193.101	0.559	0.006
-461.084	-99.700	-0.235	0.076
-460.070	82.639	0.158	-0.223
-459.055	-200.000	0.021	-0.391
-458.040	-200.000	-0.504	-0.000
-457.026	518.259	-0.209	0.641
-456.011	-183.951	-0.410	0.009
-454.997	-147.957	-0.299	0.032
-453.982	57.700	-0.145	-0.185
-452.968	-62.872	-0.346	-0.186
-451.953	-49.815	-0.461	-0.284
-450.938	58.927	0.129	0.165
-449.924	800.000	-0.076	0.397
-448.909	-68.767	-0.197	0.099
-447.895	800.000	-0.039	0.213
-446.880	253.888	-0.076	0.170
-445.865	35.583	-0.221	0.252
-444.851	-200.000	-0.001	-0.215
-443.836	21.129	-0.273	-0.288
-442.822	49.708	0.167	0.205
-441.807	800.000	-0.050	0.221
-440.792	7.577	0.095	0.092
-439.778	-98.126	0.394	-0.131
-438.763	-200.000	0.055	-0.359
-437.749	-80.499	0.372	0.160
-436.734	-174.679	-0.281	-0.010
-435.719	29.960	0.401	-0.444
-434.705	338.204	-0.137	-0.348
-433.690	-200.000	0.019	-0.156
-432.676	16.172	0.312	0.319
-431.661	621.577	-0.066	0.215
-430.646	109.810	0.081	0.127
-429.632	170.035	0.250	-0.466
-428.617	77.547	-0.136	0.189
-427.603	-97.309	-0.304	-0.102
-426.588	-35.765	0.170	-0.119
-425.573	25.488	0.273	0.295
-424.559	407.579	0.147	0.405
-423.544	-28.075	-0.443	-0.332
-422.530	375.928	-0.176	0.469
-421.515	-200.000	0.044	0.311
-420.500	-52.147	0.026	-0.015
-419.486	-55.785	0.050	0.029
-418.471	-33.174	-0.110	-0.079
-417.457	-97.203	0.308	-0.104
-416.442	-96.544	0.539	-0.183
-415.428	11.723	-0.414	-0.413
-414.413	147.560	-0.163	-0.286
-413.398	39.884	0.340	0.397
-412.384	-168.231	0.260	0.013
-411.369	58.916	0.368	0.470
-410.355	-200.000	-0.059	0.422
-409.340	-1.795	-0.474	0.432
-408.325	55.272	0.046	-0.058
-407.311	800.000	0.090	0.481
-406.296	209.578	-0.035	0.071
-405.282	800.000	0.032	0.128
-404.267	-48.794	0.347	-0.216
-403.252	30.408	0.137	-0.151
-402.238	62.945	-0.131	0.170
-401.223	-200.000	-0.000	-0.403
-400.209	100.661	-0.161	0.243
-399.194	-200.000	-0.035	-0.477
-398.179	-47.777	0.297	-0.186
-397.165	-33.565	0.204	-0.146
-396.150	-85.505	-0.322	-0.129
-395.136	-109.878	-0.148	0.040
-394.121	1.405	0.176	-0.164
-393.106	134.063	0.155	-0.261
-392.092	39.749	0.192	0.224
-391.077	-34.469	-0.183	0.130
-390.063	-66.452	0.228	0.117
-389.048	43.744	-0.038	-0.046
-388.033	24.321	0.098	0.105
-387.019	-132.912	-0.121	0.020
-386.004	-200.000	-0.007	-0.765
-384.990	-65.641	-0.213	0.111
-383.975	-122.240	-0.201	0.042
-382.960	-156.217	0.477	0.038
-381.946	-200.000	-0.021	-0.349
-380.931	100.182	0.287	-0.433
-379.917	-200.000	-0.008	-0.488
-378.902	-200.000	-0.055	-0.339
-377.888	-33.048	0.455	0.327
-376.873	-98.467	-0.179	-0.059
-375.858	77.928	-0.276	0.382
-374.844	182.383	0.259	0.497
-373.829	-200.000	0.078	0.458
-372.815	-63.466	0.449	0.239
-371.800	-105.377	0.225	0.066
-370.785	405.072	-0.069	0.191
-369.771	-200.000	-0.050	-0.288
-368.756	130.325	0.293	-0.487
-367.742	-184.611	-0.210	0.004
-366.727	97.516	-0.161	0.240
-365.712	-104.317	-0.209	0.062
-364.698	11.136	0.103	0.102
-363.683	-139.254	0.359	-0.050
-362.669	-64.033	-0.557	-0.294
-361.654	-104.439	-0.413	-0.123
-360.639	694.201	0.093	0.318
-359.625	10.944	-0.447	-0.442
-358.610	-72.526	0.458	0.218
-357.596	-200.000	0.001	-0.045
-356.581	-119.274	-0.545	-0.122
-355.566	76.957	-0.060	0.083
-354.552	-148.207	0.236	0.025
-353.537	464.787	0.075	-0.218
-352.523	-103.460	-0.356	0.108
-351.508	-1.817	-0.366	0.334
-350.493	5.882	-0.222	0.213
-349.479	36.375	0.247	-0.282
-348.464	-100.748	0.372	0.118
-347.450	-200.000	0.029	-0.454
-346.435	-24.302	0.212	0.164
-345.420	-121.508	-0.229	0.049
-344.406	526.915	0.146	-0.448
-343.391	-160.004	0.735	-0.051
-342.377	-119.769	0.247	-0.055
-341.362	112.049	-0.100	0.157
-340.348	-99.211	0.257	0.084
-339.333	-97.100	-0.587	0.197
-338.318	208.927	-0.078	0.158
-337.304	-138.430	0.535	0.075
-336.289	-200.000	0.005	0.196
-335.275	-92.575	-0.049	-0.018
-334.260	-124.460	0.694	0.139
-333.245	-95.559	0.081	0.028
-332.231	-127.850	-0.586	-0.108
-331.216	222.726	0.076	0.159
-330.202	575.146	-0.111	0.354
-329.187	-115.956	0.114	0.027
-328.172	-108.247	-0.152	-0.042
-327.158	219.807	0.051	0.106
-326.143	234.928	0.118	0.253
-325.129	-136.477	-0.107	-0.016
-324.114	177.209	-0.096	0.181
-323.099	-50.499	0.320	-0.195
-322.085	-88.247	-0.213	-0.082
-321.070	429.241	0.144	-0.403
-320.056	-163.158	-0.108	0.007
-319.041	158.127	0.134	0.240
-318.026	-86.551	-0.221	-0.087
-317.012	-66.179	0.427	0.219
-315.997	118.119	-0.046	0.073
-314.983	-7.163	0.324	-0.284
-313.968	-113.868	-0.299	0.075
-312.953	53.585	0.147	-0.182
-311.939	-26.260	0.275	-0.208
-310.924	-130.284	0.728	-0.127
-309.910	-89.065	0.249	-0.095
-308.895	-132.172	0.552	0.092
-307.880	-173.781	0.621	0.023
-306.866	-155.129	-0.122	-0.010
-305.851	5.872	-0.100	0.096
-304.837	52.214	-0.392	-0.484
-303.822	131.457	-0.199	-0.332
-302.807	-200.000	0.059	-0.373
-301.793	-99.503	0.201	-0.065
-300.778	-77.172	0.228	0.102
-299.764	306.447	0.250	-0.605
-298.749	333.229	0.124	-0.310
-297.735	0.256	-0.271	-0.250
-296.720	174.005	-0.169	-0.317
-295.705	-40.461	-0.337	-0.225
-294.691	4.605	0.297	-0.281
-293.676	-53.363	0.249	0.147
-292.662	64.468	0.061	0.079
-291.647	-200.000	-0.026	0.277
-290.632	631.239	-0.190	0.625
-289.618	286.919	-0.154	0.360
-288.603	-67.763	0.155	-0.078
-287.589	800.000	0.113	-0.534
-286.574	800.000	-0.062	0.267
-285.559	-200.000	0.009	-0.086
-284.545	-152.916	-0.386	0.035
-283.530	21.090	0.076	0.080
-282.516	448.644	0.095	0.273
-281.501	-192.998	0.431	-0.005
-280.486	-119.235	-0.114	0.025
-279.472	-5.279	-0.270	0.239
-278.457	-99.315	-0.122	-0.039
-277.443	-11.907	-0.224	0.189
-276.428	-200.000	-0.044	0.340
-275.413	-200.000	-0.027	0.165
-274.399	-200.000	-0.054	0.516
-273.384	-22.277	-0.357	-0.279
-272.370	-174.614	0.237	0.009
-271.355	278.976	0.008	-0.018
-270.340	509.133	-0.041	0.125
-269.326	34.654	-0.185	0.209
-268.311	152.537	0.253	-0.447
-267.297	-200.000	-0.018	0.118
-266.282	-24.587	-0.151	0.116
-265.267	-81.150	-0.313	0.133
-264.253	184.679	0.205	0.393
-263.238	89.930	0.137	0.197
-262.224	-53.199	0.129	-0.076
-261.209	-88.120	-0.164	-0.063
-260.195	287.142	-0.016	0.037
-259.180	-200.000	-0.031	0.355
-258.165	-65.985	0.244	0.125
-257.151	-200.000	0.043	0.286
-256.136	96.627	0.057	0.084
-255.122	-46.687	0.472	-0.297
-254.107	-200.000	0.019	-0.287
-253.092	556.214	-0.051	-0.161
-252.078	-200.000	0.017	-0.213
-251.063	204.681	0.089	0.179
-250.049	18.612	-0.183	-0.189
-249.034	-97.564	0.024	-0.008
-248.019	453.434	0.063	0.181
-247.005	-136.593	-0.289	0.043
-245.990	-117.509	0.378	0.087
-244.976	593.927	-0.095	0.303
-243.961	-176.400	0.481	0.016
-242.946	800.000	-0.094	-0.344
-241.932	455.919	0.079	0.228
-240.917	-82.977	0.288	0.119
-239.903	-162.508	0.378	0.024
-238.888	-106.150	-0.281	0.081
-237.873	800.000	0.163	0.591
-236.859	-70.493	-0.157	0.076
-235.844	-34.440	0.044	-0.031
-234.830	-78.393	-0.277	-0.122
-233.815	-32.193	-0.090	-0.064
-232.800	-200.000	0.030	0.173
-231.786	800.000	0.040	0.197
-230.771	241.571	-0.190	-0.411
-229.757	-193.632	0.323	0.003
-228.742	59.242	0.242	0.307
-227.727	529.942	0.089	0.273
-226.713	-113.775	-0.297	-0.074
-225.698	-200.000	-0.040	0.235
-224.684	10.245	-0.267	0.261
-223.669	-200.000	0.001	0.067
-222.655	371.509	-0.248	-0.652
-221.640	-12.819	-0.389	-0.326
-220.625	399.002	0.076	0.206
-219.611	-37.131	-0.338	-0.233
-218.596	-170.363	0.310	-0.014
-217.582	7.050	0.340	0.327
-216.567	-78.113	-0.287	-0.127
-215.552	-200.000	0.050	-0.333
-214.538	-53.386	-0.238	-0.140
-213.523	-110.766	0.034	-0.009
-212.509	85.445	0.073	0.103
-211.494	27.251	-0.191	-0.207
-210.479	35.622	0.327	-0.370
-209.465	4.997	0.148	-0.140
-208.450	442.551	-0.038	-0.108
-207.436	-200.000	0.050	-0.289
-206.421	194.651	-0.026	0.051
-205.406	-87.690	-0.475	-0.184
-204.392	-80.768	0.334	0.142
-203.377	-200.000	0.015	0.169
-202.363	-140.844	-0.727	0.095
-201.348	-129.124	-0.363	0.065
-200.333	8.576	-0.075	-0.073
-199.319	-130.904	0.164	0.028
-198.304	800.000	-0.079	0.421
-197.290	-120.372	-0.542	-0.118
-196.275	-72.411	-0.112	0.053
-195.260	-200.000	-0.045	-0.383
-194.246	194.844	-0.115	-0.225
-193.231	192.459	0.067	-0.130
-192.217	-200.000	-0.018	0.427
-191.202	-64.122	-0.247	0.129
-190.187	27.100	-0.120	0.130
-189.173	-95.708	-0.141	0.048
-188.158	70.092	0.222	-0.296
-187.144	-200.000	0.018	0.387
-186.129	1.235	0.203	-0.188
-185.114	-24.666	-0.174	-0.133
-184.100	32.687	0.347	-0.386
-183.085	-85.785	-0.171	0.068
-182.071	-128.293	-0.511	0.093
-181.056	-49.500	0.092	-0.056
-180.042	-164.645	0.229	-0.013
-179.027	-131.973	-0.158	0.026
-178.012	-42.672	-0.203	0.133
-176.998	-147.099	-0.156	-0.017
-175.983	-48.212	0.403	-0.249
-174.969	232.600	-0.135	-0.286
-173.954	-71.167	0.324	0.156
-172.939	138.094	0.174	0.294
-171.925	36.966	-0.125	0.142
-170.910	-172.221	0.162	-0.007
-169.896	-47.092	0.063	0.040
-168.881	-54.765	0.134	0.078
-167.866	-65.419	-0.175	0.090
-166.852	-1.327	-0.205	-0.186
-165.837	800.000	-0.030	-0.127
-164.823	-171.625	0.182	0.008
-163.808	-70.632	0.421	0.204
-162.793	222.003	-0.060	-0.125
-161.779	709.278	-0.106	0.363
-160.764	-200.000	-0.052	0.668
-159.750	-50.997	-0.023	0.014
-158.735	-18.933	0.566	-0.452
-157.720	800.000	0.045	0.232
-156.706	-20.791	-0.259	0.204
-155.691	60.513	-0.148	-0.188
-154.677	-113.159	-0.248	0.062
-153.662	-60.185	0.304	0.166
-152.647	-133.233	0.741	0.119
-151.633	180.186	-0.221	-0.417
-150.618	-11.037	-0.418	-0.354
-149.604	-118.379	0.249	-0.056
-148.589	-97.612	-0.244	-0.081
-147.574	-58.415	-0.035	0.019
-146.560	-8.794	-0.388	0.334
-145.545	298.278	-0.156	0.369
-144.531	-200.000	0.033	-0.340
-143.516	-17.610	-0.096	0.077
-142.502	800.000	0.094	0.383
-141.487	0.870	0.348	0.320
-140.472	75.669	-0.208	-0.282
-139.458	-200.000	-0.063	-0.453
-138.443	-200.000	-0.001	0.207
-137.429	-26.421	0.159	0.120
-136.414	476.621	0.010	0.029
-135.399	-92.229	0.144	0.052
-134.385	-131.876	-0.261	0.043
-133.370	-200.000	-0.019	-0.156
-132.356	-27.108	-0.205	0.153
-131.341	135.948	0.192	-0.322
-130.326	-46.061	-0.197	-0.124
-129.312	73.469	0.195	-0.262
-128.297	-83.318	0.344	0.141
-127.283	-110.513	-0.059	0.016
-126.268	78.328	-0.130	-0.178
-125.253	-200.000	0.042	-0.353
-124.239	-88.927	0.211	-0.080
-123.224	-93.811	0.150	-0.053
-122.210	-200.000	-0.038	0.398
-121.195	800.000	-0.073	0.294
-120.180	-169.825	-0.196	0.009
-119.166	-42.491	-0.233	-0.152
-118.151	-200.000	0.004	-0.120
-117.137	-142.454	-0.241	0.030
-116.122	-200.000	-0.042	-0.497
-115.107	216.688	0.156	0.320
-114.093	-130.288	0.376	-0.065
-113.078	-106.264	0.368	0.105
-112.064	-200.000	0.012	-0.232
-111.049	35.703	-0.320	0.361
-110.034	-23.675	-0.146	-0.112
-109.020	-25.461	-0.131	-0.099
-108.005	248.128	-0.013	-0.029
-106.991	-105.050	-0.274	-0.080
-105.976	-165.825	0.136	-0.007
-104.962	-58.264	-0.578	0.322
-103.947	-48.583	0.060	-0.037
-102.932	-64.680	-0.295	0.153
-101.918	-107.621	-0.163	-0.045
-100.903	60.999	-0.459	-0.585
-99.889	-56.551	0.203	-0.115
-98.874	-200.000	-0.023	-0.339
-97.859	27.451	-0.232	0.250
-96.845	-127.176	-0.358	-0.067
-95.830	-27.073	-0.335	0.250
-94.816	209.075	-0.273	-0.550
-93.801	-54.415	0.353	0.205
-92.786	-37.297	0.396	0.271
-91.772	-120.479	0.301	-0.065
-90.757	-62.945	0.329	0.174
-89.743	413.705	-0.018	-0.049
-88.728	265.387	-0.229	0.513
-87.713	800.000	0.041	0.185
-86.699	320.517	-0.072	-0.177
-85.684	-115.673	0.775	0.185
-84.670	800.000	-0.094	0.454
-83.655	-200.000	-0.048	0.365
-82.640	97.709	0.106	-0.157
-81.626	-103.541	0.187	0.056
-80.611	800.000	0.083	0.325
-79.597	-1.078	-0.059	-0.053
-78.582	-30.104	0.150	0.109
-77.567	398.939	0.111	0.299
-76.553	800.000	-0.149	0.530
-75.538	-200.000	-0.000	-0.212
-74.524	324.319	-0.123	0.301
-73.509	-200.000	-0.009	0.185
-72.494	-105.076	0.351	-0.102
-71.480	-200.000	-0.024	-0.471
-70.465	60.153	-0.195	-0.248
-69.451	96.054	-0.127	0.186
-68.436	-200.000	-0.001	-0.240
-67.422	549.330	0.157	-0.486
-66.407	-36.946	-0.081	-0.055
-65.392	288.649	0.225	-0.524
-64.378	-138.306	-0.114	-0.016
-63.363	120.368	0.182	-0.290
-62.349	-51.100	-0.400	0.240
-61.334	76.879	-1.815	-2.471
-60.319	22.456	1.243	1.302
-59.305	239.964	-3.435	-7.354
-58.290	61.252	3.713	4.728
-57.276	326.962	4.226	10.415
-56.261	-200.000	19.818	294.722
-55.246	389.580	1256.578	3349.770
-54.232	55.213	2848.663	3528.693
-53.217	66.274	2707.755	3524.229
-52.203	40.965	2437.943	2818.642
-51.188	37.918	2098.677	2388.850
-50.173	31.597	1981.039	2181.094
-49.159	30.359	1970.813	2155.322
-48.144	29.935	1966.289	2145.350
-47.130	29.918	1964.519	2143.136
-46.115	29.813	1963.126	2140.301
-45.100	29.694	1961.679	2137.263
-44.086	29.891	1959.772	2137.389
-43.071	29.826	1958.247	2134.887
-42.057	29.898	1955.842	2133.014
-41.042	29.812	1955.324	2131.367
-40.027	29.727	1953.977	2128.832
-39.013	29.811	1952.066	2127.637
-37.998	29.654	1950.739	2124.284
-36.984	29.686	1949.490	2123.215
-35.969	29.711	1948.023	2121.824
-34.954	29.779	1946.741	2121.119
-33.940	29.558	1946.297	2118.005
-32.925	29.678	1944.623	2117.479
-31.911	29.783	1942.808	2116.630
-30.896	29.682	1941.190	2113.627
-29.881	29.708	1939.935	2112.477
-28.867	29.710	1939.303	2111.723
-27.852	29.660	1937.720	2109.336
-26.838	29.645	1935.909	2107.112
-25.823	29.513	1935.313	2104.868
-24.809	29.568	1933.998	2103.983
-23.794	29.583	1932.884	2102.865
-22.779	29.646	1930.183	2100.556
-21.765	29.527	1930.164	2099.091
-20.750	29.412	1929.662	2097.148
-19.736	29.647	1926.956	2096.804
-18.721	29.584	1925.957	2094.920
-17.706	29.530	1925.455	2093.673
-16.692	29.493	1923.470	2091.017
-15.677	29.519	1922.978	2090.696
-14.663	29.491	1921.204	2088.358
-13.648	29.448	1919.921	2086.394
-12.633	29.461	1918.229	2084.625
-11.619	29.565	1916.608	2083.958
-10.604	29.335	1916.533	2081.183
-9.590	29.441	1914.221	2079.789
-8.575	29.497	1914.126	2080.244
-7.560	29.390	1912.677	2077.369
-6.546	29.373	1911.542	2075.867
-5.531	29.250	1910.328	2073.070
-4.517	29.283	1909.588	2072.556
-3.502	29.449	1908.422	2073.091
-2.487	29.405	1907.183	2071.166
-1.473	29.407	1903.179	2066.758
-0.458	29.058	1884.270	2042.251
0.556	25.190	2029.504	2140.440
1.571	23.743	2239.486	2342.453
2.586	24.774	2281.403	2399.931
3.600	24.922	2284.459	2404.847
4.615	25.080	2283.879	2406.087
5.629	25.008	2282.598	2403.471
6.644	25.216	2280.577	2403.857
7.659	25.169	2279.233	2401.524
8.673	25.032	2276.288	2396.293
9.688	24.325	2283.882	2394.466
10.702	22.840	2362.222	2455.555
11.717	21.759	2428.985	2509.105
12.731	12.289	2403.587	2347.107
13.746	2.295	2375.877	2177.260
14.761	0.492	2370.513	2146.315
15.775	0.353	2368.572	2142.321
16.790	0.308	2366.162	2139.241
17.804	0.258	2364.613	2136.873
18.819	0.287	2363.512	2136.033
19.834	0.365	2362.608	2136.075
20.848	0.271	2361.295	2133.292
21.863	0.210	2359.743	2130.766
22.877	0.256	2358.214	2129.783
23.892	0.281	2355.224	2127.183
24.907	0.292	2352.991	2125.067
25.921	0.173	2351.898	2122.147
26.936	0.225	2349.513	2120.475
27.950	0.251	2346.496	2117.862
28.965	0.229	2344.720	2115.700
29.980	0.165	2343.394	2113.335
30.994	0.317	2340.967	2113.039
32.009	5.554	2358.887	2203.192
33.023	18.085	2395.901	2416.593
34.038	23.937	2408.727	2512.595
35.053	24.897	2408.238	2525.403
36.067	24.935	2404.654	2521.886
37.082	24.891	2403.627	2519.880
38.096	24.783	2402.895	2517.287
39.111	25.160	2400.504	2519.795
40.126	25.531	2398.696	2522.834
41.140	25.739	2398.989	2525.777
42.155	25.442	2395.892	2518.024
43.169	25.319	2393.441	2513.416
44.184	25.437	2390.919	2512.133
45.199	25.329	2388.223	2507.480
46.213	25.206	2387.496	2504.696
47.228	25.249	2386.034	2503.461
48.242	25.320	2384.192	2502.219
49.257	25.287	2383.146	2500.361
50.271	25.516	2379.877	2499.838
51.286	25.492	2378.325	2497.568
52.301	25.243	2377.165	2492.582
53.315	24.901	2375.624	2485.894
54.330	24.619	2371.840	2477.710
55.344	24.338	2368.088	2469.577
56.359	24.220	2364.084	2463.463
57.374	23.967	2363.087	2458.613
58.388	24.060	2359.789	2456.190
59.403	24.457	2355.776	2457.202
60.417	24.467	2354.967	2456.208
61.432	24.537	2353.482	2455.332
62.447	24.528	2351.380	2452.719
63.461	24.458	2349.441	2449.443
64.476	24.486	2347.505	2447.517
65.490	24.842	2347.910	2452.547
66.505	25.188	2347.522	2456.614
67.520	25.304	2346.647	2457.005
68.534	25.021	2343.492	2449.518
69.549	25.115	2340.073	2446.937
70.563	25.154	2339.210	2446.275
71.578	25.221	2337.028	2444.621
72.593	25.371	2335.361	2444.631
73.607	25.552	2334.168	2445.572
74.622	25.557	2332.633	2443.734
75.636	25.502	2328.850	2438.732
76.651	25.273	2328.288	2434.731
77.666	25.395	2325.383	2433.065
78.680	25.366	2324.350	2431.295
79.695	25.600	2321.963	2431.683
80.709	25.478	2321.696	2429.451
81.724	25.636	2319.189	2428.682
82.739	25.818	2315.782	2427.297
83.753	25.712	2313.064	2422.724
84.768	25.575	2312.399	2419.886
85.782	25.516	2311.942	2418.321
86.797	25.622	2309.042	2416.428
87.812	25.599	2306.433	2413.091
88.826	25.343	2305.069	2407.924
89.841	25.638	2303.230	2409.687
90.855	25.605	2302.072	2407.744
91.870	25.507	2299.573	2403.534
92.884	25.474	2298.033	2401.188
93.899	25.610	2296.477	2401.100
94.914	25.311	2295.339	2395.611
95.928	24.727	2292.705	2384.749
96.943	24.499	2290.007	2378.607
97.957	24.893	2290.076	2383.669
98.972	25.203	2288.363	2385.747
99.987	25.123	2284.423	2380.286
101.001	25.157	2282.591	2378.543
102.016	25.333	2281.134	2379.079
103.030	25.325	2278.542	2375.989
104.045	25.597	2276.735	2377.436
105.060	25.729	2274.934	2377.020
106.074	25.557	2273.188	2372.627
107.089	25.321	2270.387	2366.303
108.103	25.392	2270.664	2367.246
109.118	25.476	2269.251	2366.599
110.133	25.504	2267.333	2364.689
111.147	25.606	2264.379	2362.666
112.162	25.499	2263.077	2359.610
113.176	25.437	2259.774	2355.076
114.191	25.498	2257.698	2353.426
115.206	25.448	2257.001	2351.759
116.220	25.330	2255.097	2347.946
117.235	25.221	2251.921	2342.927
118.249	25.256	2249.784	2340.884
119.264	25.351	2249.279	2341.321
120.279	25.525	2247.596	2341.573
121.293	25.311	2245.542	2336.350
122.308	25.329	2243.194	2333.862
123.322	25.285	2242.267	2332.050
124.337	24.937	2239.485	2324.335
125.352	24.638	2239.314	2319.979
126.366	24.892	2238.194	2321.854
127.381	24.963	2235.354	2319.551
128.395	25.076	2233.632	2318.960
129.410	25.532	2231.702	2322.596
130.424	25.446	2230.339	2319.783
131.439	25.372	2227.916	2316.025
132.454	25.319	2227.034	2314.152
133.468	25.245	2224.790	2310.580
134.483	25.253	2222.002	2307.512
135.497	25.203	2220.173	2304.690
136.512	25.446	2218.270	2305.569
137.527	25.349	2216.726	2302.442
138.541	25.330	2215.349	2300.494
139.556	25.050	2214.641	2295.872
140.570	25.096	2213.401	2294.910
141.585	25.181	2211.629	2293.888
142.600	25.223	2210.874	2293.371
143.614	25.430	2207.881	2292.643
144.629	25.508	2206.663	2292.109
145.643	25.292	2205.068	2287.416
146.658	25.323	2203.497	2285.897
147.673	25.242	2201.845	2282.884
148.687	25.387	2200.868	2283.446
149.702	25.503	2198.658	2282.359
150.716	25.443	2197.663	2280.286
151.731	25.630	2197.215	2281.933
152.746	25.851	2195.843	2283.049
153.760	25.249	2194.824	2274.056
154.775	24.518	2191.964	2261.519
155.789	24.047	2189.423	2252.629
156.804	24.500	2186.602	2255.221
157.819	25.092	2184.019	2259.788
158.833	25.252	2182.975	2260.461
159.848	25.579	2180.829	2262.102
160.862	25.608	2180.486	2261.847
161.877	25.889	2178.668	2263.231
162.892	25.880	2177.983	2262.133
163.906	26.019	2177.059	2262.667
164.921	26.070	2174.264	2260.129
165.935	25.871	2171.821	2254.810
166.950	25.600	2170.433	2249.693
167.964	25.479	2166.514	2243.844
168.979	25.326	2165.041	2240.140
169.994	25.435	2165.122	2241.320
171.008	25.468	2162.086	2238.314
172.023	25.506	2159.980	2236.346
173.037	25.463	2159.575	2235.128
174.052	25.463	2157.118	2232.316
175.067	25.302	2155.762	2228.635
176.081	25.204	2154.137	2225.463
177.096	25.215	2152.476	2223.622
178.110	25.049	2150.945	2219.710
179.125	25.152	2149.129	2218.840
180.140	25.268	2148.744	2219.629
181.154	25.251	2146.907	2217.250
182.169	24.975	2145.695	2212.302
183.183	24.725	2143.843	2207.026
184.198	24.322	2141.545	2199.408
185.213	24.265	2140.296	2197.155
186.227	24.817	2139.686	2203.095
187.242	25.205	2137.763	2205.654
188.256	25.136	2136.717	2203.458
189.271	25.562	2135.643	2207.345
190.286	25.513	2134.764	2205.565
191.300	25.236	2131.271	2198.283
192.315	25.162	2129.103	2194.876
193.329	25.330	2128.997	2196.564
194.344	25.554	2128.345	2198.378
195.359	25.675	2126.922	2198.138
196.373	25.758	2125.361	2197.280
197.388	25.703	2122.407	2193.284
198.402	25.394	2119.500	2186.246
199.417	25.296	2117.858	2183.082
200.432	25.306	2116.124	2181.164
201.446	25.445	2116.060	2182.528
202.461	25.564	2114.132	2181.733
203.475	25.490	2112.548	2178.936
204.490	25.300	2110.884	2174.645
205.504	25.403	2107.983	2172.650
206.519	25.348	2104.872	2168.515
207.534	25.437	2103.969	2168.410
208.548	25.479	2103.039	2167.694
209.563	25.364	2100.269	2163.186
210.577	25.207	2099.157	2159.889
211.592	25.426	2098.594	2161.694
212.607	25.018	2096.836	2154.689
213.621	24.083	2093.441	2139.659
214.636	24.115	2091.644	2137.950
215.650	24.926	2091.753	2147.587
216.665	25.085	2091.039	2148.514
217.680	25.467	2089.885	2151.677
218.694	25.631	2088.837	2152.304
219.709	25.658	2087.539	2151.039
220.723	25.636	2086.483	2149.430
221.738	25.792	2083.747	2148.218
222.753	25.730	2081.607	2145.018
223.767	25.537	2079.709	2140.499
224.782	25.273	2077.987	2135.307
225.796	25.228	2076.589	2133.072
226.811	25.474	2076.442	2135.613
227.826	25.564	2074.541	2134.474
228.840	25.712	2072.779	2134.169
229.855	25.512	2071.328	2130.037
230.869	25.422	2069.536	2126.865
231.884	25.336	2067.748	2123.754
232.899	25.190	2066.411	2120.388
233.913	25.350	2064.207	2119.773
234.928	25.347	2064.263	2119.540
235.942	25.325	2062.570	2117.294
236.957	25.351	2060.357	2115.072
237.972	25.433	2058.441	2113.828
238.986	25.533	2057.717	2114.013
240.001	25.192	2056.179	2108.151
241.015	25.010	2053.623	2103.129
242.030	24.867	2053.685	2101.247
243.045	24.775	2051.541	2097.724
244.059	24.631	2050.307	2094.518
245.074	25.028	2047.839	2096.413
246.088	25.218	2044.456	2094.933
247.103	25.158	2043.632	2093.134
248.117	25.318	2043.227	2094.344
249.132	25.505	2041.654	2094.667
250.147	25.442	2038.485	2090.431
251.161	25.189	2036.667	2085.355
252.176	25.172	2036.761	2085.004
253.190	25.397	2033.742	2084.296
254.205	25.067	2032.031	2078.447
255.220	25.185	2030.052	2077.538
256.234	25.061	2029.495	2075.283
257.249	24.940	2028.610	2072.716
258.263	25.011	2027.858	2072.534
259.278	25.043	2025.934	2070.681
260.293	24.979	2024.081	2067.798
261.307	25.259	2022.560	2069.241
262.322	25.454	2021.190	2069.857
263.336	25.293	2018.422	2064.916
264.351	25.157	2017.728	2062.381
265.366	25.276	2016.363	2062.118
266.380	25.411	2015.482	2062.518
267.395	25.198	2013.139	2057.426
268.409	25.168	2012.069	2055.739
269.424	25.528	2011.287	2058.842
270.439	25.612	2010.171	2058.418
271.453	25.313	2007.568	2052.064
272.468	24.541	2004.383	2039.714
273.482	24.294	2002.578	2034.798
274.497	24.882	2001.699	2040.401
275.512	25.328	2000.397	2043.932
276.526	25.552	1998.399	2044.209
277.541	25.367	1996.339	2039.737
278.555	25.352	1994.130	2037.067
279.570	25.077	1992.372	2031.898
280.585	25.029	1990.547	2029.249
281.599	25.067	1991.314	2030.221
282.614	25.361	1989.548	2031.518
283.628	25.345	1987.936	2029.451
284.643	25.220	1987.309	2027.149
285.657	25.261	1985.591	2025.609
286.672	25.224	1983.951	2023.281
287.687	25.062	1981.153	2018.344
288.701	24.913	1979.769	2015.008
289.716	24.683	1978.769	2011.148
290.730	24.846	1976.000	2009.938
291.745	24.820	1975.067	2008.450
292.760	24.867	1973.505	2007.159
293.774	24.882	1974.353	2007.945
294.789	25.186	1973.504	2010.272
295.803	25.318	1971.028	2008.996
296.818	25.267	1969.500	2006.618
297.833	25.231	1968.540	2004.994
298.847	25.289	1967.216	2004.059
299.862	25.255	1965.608	2001.800
300.876	25.001	1962.964	1996.025
301.891	24.527	1961.149	1988.640
302.906	24.581	1960.243	1988.077
303.920	25.275	1959.642	1994.990
304.935	25.329	1957.529	1993.207
305.949	25.173	1955.986	1989.658
306.964	25.536	1954.632	1992.079
307.979	25.468	1953.143	1989.570
308.993	25.013	1950.086	1981.163
310.008	24.783	1947.568	1975.815
311.022	24.936	1947.098	1976.804
312.037	25.029	1945.811	1976.291
313.052	24.854	1943.267	1971.529
314.066	24.314	1940.260	1962.273
315.081	24.013	1939.718	1958.155
316.095	23.917	1938.905	1956.041
317.110	24.157	1937.515	1957.062
318.125	24.522	1936.703	1960.036
319.139	24.913	1936.270	1963.667
320.154	25.104	1935.189	1964.445
321.168	25.305	1932.712	1963.901
322.183	25.234	1931.821	1961.985
323.197	25.439	1930.137	1962.286
324.212	25.295	1928.515	1958.825
325.227	25.380	1926.869	1957.848
326.241	25.426	1925.897	1957.131
327.256	25.488	1925.482	1957.153
328.270	25.372	1923.641	1953.780
329.285	25.275	1923.593	1952.440
330.300	25.419	1922.130	1952.289
331.314	24.417	1919.085	1938.028
332.329	24.201	1917.380	1933.722
333.343	24.939	1917.280	1941.434
334.358	25.475	1915.680	1945.413
335.373	25.753	1914.708	1947.223
336.387	25.684	1913.314	1944.818
337.402	25.505	1911.677	1940.978
338.416	25.558	1909.047	1938.654
339.431	25.456	1908.869	1937.129
340.446	25.748	1906.649	1937.805
341.460	25.648	1904.289	1934.095
342.475	25.510	1902.155	1930.210
343.489	25.251	1900.055	1925.057
344.504	25.186	1898.785	1922.836
345.519	24.998	1896.990	1918.770
346.533	24.591	1895.113	1912.263
347.548	24.735	1893.487	1911.934
348.562	24.949	1892.802	1913.320
349.577	24.812	1892.533	1911.347
350.592	24.854	1890.664	1909.677
351.606	24.812	1888.190	1906.503
352.621	24.677	1886.526	1903.153
353.635	24.750	1885.221	1902.386
354.650	24.763	1884.235	1901.300
355.665	24.876	1883.085	1901.117
356.679	25.042	1882.079	1901.645
357.694	24.964	1880.711	1899.206
358.708	25.217	1879.494	1900.448
359.723	25.039	1878.964	1897.780
360.738	24.545	1876.271	1889.583
361.752	24.438	1875.928	1887.881
362.767	25.048	1874.028	1892.211
363.781	25.209	1871.922	1891.568
364.796	25.374	1870.525	1891.682
365.810	25.192	1870.054	1889.045
366.825	25.279	1869.013	1888.685
367.840	25.373	1868.048	1888.484
368.854	25.339	1866.477	1886.307
369.869	25.535	1865.362	1887.026
370.883	25.462	1864.783	1885.442
371.898	24.984	1862.502	1877.881
372.913	24.830	1860.954	1874.470
373.927	24.942	1859.125	1873.577
374.942	25.083	1858.144	1873.845
375.956	25.064	1856.845	1872.115
376.971	25.092	1854.573	1869.899
377.986	24.827	1852.226	1864.527
379.000	24.909	1851.607	1864.538
380.015	25.277	1851.121	1867.676
381.029	25.633	1848.636	1868.665
382.044	25.796	1847.518	1869.017
383.059	25.812	1846.008	1867.428
384.073	25.622	1844.553	1863.756
385.088	25.375	1842.601	1858.989
386.102	25.362	1840.936	1856.955
387.117	25.217	1839.717	1853.991
388.132	25.248	1839.153	1853.523
389.146	24.908	1840.109	1850.734
390.161	24.485	1835.787	1841.782
391.175	24.516	1832.508	1838.592
392.190	25.089	1830.753	1842.532
393.205	25.042	1829.475	1840.537
394.219	25.123	1828.741	1840.417
395.234	25.255	1827.834	1840.644
396.248	25.267	1825.854	1838.556
397.263	25.274	1823.229	1835.765
398.278	25.075	1821.294	1831.554
399.292	25.055	1820.762	1830.587
400.307	25.352	1820.939	1833.598
401.321	25.392	1819.375	1832.211
402.336	24.925	1816.328	1824.144
403.350	24.508	1814.571	1817.893
404.365	24.942	1814.229	1821.777
405.380	25.009	1812.293	1820.299
406.394	24.666	1810.209	1814.487
407.409	24.496	1808.933	1811.255
408.423	24.487	1806.172	1808.182
409.438	24.355	1804.698	1805.150
410.453	24.467	1805.057	1806.433
411.467	24.891	1804.728	1810.198
412.482	24.979	1804.310	1810.461
413.496	25.074	1802.080	1808.963
414.511	25.138	1800.170	1807.481
415.526	25.156	1797.585	1804.847
416.540	25.169	1796.994	1804.177
417.555	25.169	1795.425	1802.377
418.569	24.976	1796.277	1801.072
419.584	24.874	1796.343	1799.893
420.599	24.887	1794.384	1797.847
421.613	24.666	1793.119	1794.133
422.628	24.845	1791.858	1794.461
423.642	25.119	1790.550	1795.691
424.657	25.131	1788.395	1793.433
425.672	24.765	1787.454	1788.605
426.686	24.919	1785.997	1788.475
427.701	24.944	1784.669	1787.182
428.715	24.967	1783.316	1785.848
429.730	25.127	1783.060	1786.978
430.745	25.378	1781.554	1787.769
431.759	25.255	1780.529	1785.296
432.774	24.646	1777.936	1776.399
433.788	23.741	1775.492	1764.709
434.803	23.391	1773.609	1759.130
435.818	23.351	1773.523	1758.439
436.832	23.376	1772.026	1756.995
437.847	22.203	1763.449	1736.636
438.861	12.322	1737.173	1613.439
439.876	2.289	1718.607	1497.597
440.890	0.444	1714.164	1475.415
441.905	0.290	1712.656	1472.432
442.920	0.180	1711.718	1470.363
443.934	0.231	1709.552	1468.831
444.949	0.281	1708.178	1467.961
445.963	0.225	1707.418	1466.582
446.978	0.098	1708.109	1465.758
447.993	0.206	1706.197	1464.996
449.007	0.236	1703.639	1462.920
450.022	0.213	1701.416	1460.615
451.036	0.518	1700.043	1462.227
452.051	1.618	1703.716	1475.942
453.066	8.715	1723.881	1563.071
454.080	19.810	1743.859	1690.577
455.095	23.549	1749.640	1732.759
456.109	24.576	1751.382	1744.361
457.124	24.889	1750.527	1746.371
458.139	24.825	1748.992	1744.009
459.153	24.617	1748.328	1741.102
460.168	24.457	1745.959	1736.962
461.182	24.622	1744.089	1736.506
462.197	24.654	1742.259	1734.789
463.212	24.556	1740.745	1732.117
464.226	24.631	1739.640	1731.543
465.241	24.610	1739.660	1731.156
466.255	24.656	1738.038	1729.776
467.270	24.637	1737.067	1728.417
468.285	24.690	1735.469	1727.138
469.299	24.729	1733.667	1725.517
470.314	24.785	1731.883	1724.076
471.328	24.798	1730.479	1722.598
472.343	24.686	1729.803	1720.634
473.358	24.644	1728.484	1718.711
474.372	24.763	1727.485	1718.667
475.387	24.765	1725.668	1716.672
476.401	24.672	1724.449	1714.357
477.416	24.536	1723.178	1711.580
478.430	24.708	1721.221	1711.085
479.445	24.714	1720.805	1710.517
480.460	24.824	1719.179	1709.755
481.474	24.712	1719.131	1708.430
482.489	24.839	1717.329	1707.654
483.503	24.884	1714.987	1705.553
484.518	24.557	1714.589	1701.819
485.533	24.661	1713.550	1701.576
486.547	24.745	1711.021	1699.664
487.562	24.645	1709.850	1697.345
488.576	24.668	1708.648	1696.164
489.591	24.834	1707.203	1696.115
490.606	24.737	1706.162	1693.947
491.620	24.922	1704.621	1693.976
492.635	24.759	1703.023	1690.634
493.649	24.722	1701.626	1688.695
494.664	24.743	1700.134	1687.216
495.679	24.638	1698.794	1684.691
496.693	24.735	1697.552	1684.169
497.708	24.882	1696.085	1683.902
498.722	24.828	1695.074	1682.190
499.737	24.876	1693.476	1680.852
500.752	24.842	1692.103	1678.971
501.766	24.752	1690.461	1676.290
502.781	24.799	1689.312	1675.397
503.795	24.878	1688.158	1674.796
504.810	24.861	1687.230	1673.515
505.825	24.814	1686.782	1672.423
506.839	24.857	1685.235	1671.098
507.854	24.749	1684.346	1669.003
508.868	24.624	1682.292	1665.591
509.883	24.638	1680.857	1664.109
510.898	24.629	1679.867	1662.842
511.912	24.386	1678.511	1659.028
512.927	24.449	1676.830	1657.759
513.941	24.489	1675.358	1656.479
514.956	24.895	1674.589	1659.301
515.971	25.034	1673.282	1659.107
516.985	24.842	1672.324	1656.167
518.000	24.720	1670.917	1653.446
519.014	24.801	1669.532	1652.627
520.029	24.624	1667.730	1648.999
521.043	24.545	1666.082	1646.447
522.058	24.637	1664.972	1646.003
523.073	24.542	1664.613	1644.568
524.087	24.709	1661.931	1643.269
525.102	24.654	1661.686	1642.324
526.116	24.730	1660.528	1641.682
527.131	24.767	1659.514	1640.827
528.146	24.719	1658.626	1639.308
529.160	24.880	1657.341	1639.322
530.175	24.800	1656.791	1637.842
531.189	24.774	1655.743	1636.372
532.204	24.697	1653.867	1633.617
533.219	24.763	1652.508	1632.684
534.233	24.729	1652.029	1631.704
535.248	24.693	1650.647	1629.818
536.262	24.639	1649.376	1627.871
537.277	24.662	1648.837	1627.354
538.292	24.791	1646.417	1625.944
539.306	24.725	1644.498	1623.255
540.321	24.647	1643.698	1621.562
541.335	24.561	1642.251	1619.161
542.350	24.698	1641.069	1619.044
543.365	24.853	1639.081	1618.298
544.379	24.773	1638.003	1616.312
545.394	24.804	1636.498	1614.912
546.408	24.814	1634.939	1613.275
547.423	24.683	1634.783	1611.744
548.438	24.704	1633.507	1610.484
549.452	24.684	1632.255	1608.871
550.467	24.768	1630.769	1607.973
551.481	24.685	1629.995	1606.270
552.496	24.679	1628.989	1605.034
553.511	24.640	1628.155	1603.667
554.525	24.689	1626.307	1602.097
555.540	24.579	1625.927	1600.535
556.554	24.634	1624.378	1599.316
557.569	24.649	1622.665	1597.577
558.583	24.561	1621.678	1595.619
559.598	24.705	1619.485	1594.560
560.613	24.722	1618.773	1593.827
561.627	24.494	1617.880	1590.709
562.642	24.633	1615.706	1589.626
563.656	24.432	1614.424	1586.380
564.671	24.419	1613.054	1584.723
565.686	24.430	1612.484	1584.076
566.700	24.546	1611.086	1583.546
567.715	24.707	1609.065	1582.800
568.729	24.779	1608.044	1582.249
569.744	25.014	1606.878	1582.999
570.759	24.899	1606.569	1581.483
571.773	24.937	1605.063	1580.153
572.788	24.925	1602.871	1577.699
573.802	24.689	1601.628	1574.195
574.817	24.572	1600.196	1571.570
575.832	24.480	1598.915	1569.307
576.846	24.468	1597.650	1567.775
577.861	24.600	1596.982	1568.093
578.875	24.648	1596.691	1568.042
579.890	24.512	1595.022	1565.018
580.905	24.589	1593.348	1563.862
581.919	24.588	1593.028	1563.352
582.934	24.548	1592.223	1562.030
583.948	24.562	1590.364	1560.138
584.963	24.643	1589.197	1559.516
585.978	24.589	1588.196	1557.878
586.992	24.481	1587.260	1555.824
588.007	24.496	1586.074	1554.607
589.021	24.431	1585.179	1552.971
590.036	24.378	1583.341	1550.529
591.051	24.493	1582.373	1550.394
592.065	24.547	1580.787	1549.126
593.080	24.481	1579.321	1546.932
594.094	24.585	1577.383	1545.753
595.109	24.715	1576.144	1545.480
596.123	24.681	1574.762	1543.647
597.138	24.681	1574.452	1543.156
598.153	24.553	1572.783	1540.227
599.167	24.564	1571.367	1538.756
600.182	24.466	1570.981	1537.345
601.196	24.564	1569.787	1536.836
602.211	24.549	1568.614	1535.377
603.226	24.474	1567.183	1533.144
604.240	24.420	1565.414	1530.767
605.255	24.476	1564.124	1529.803
606.269	24.577	1563.260	1529.645
607.284	24.519	1561.928	1527.661
608.299	24.481	1560.699	1525.943
609.313	24.445	1559.865	1524.640
610.328	24.415	1558.652	1523.010
611.342	24.440	1556.834	1521.265
612.357	24.473	1555.963	1520.521
613.372	24.562	1555.109	1520.259
614.386	24.436	1553.513	1517.447
615.401	24.357	1552.457	1515.553
616.415	24.230	1552.397	1514.228
617.430	24.265	1551.394	1513.368
618.445	24.212	1549.571	1510.958
619.459	24.183	1548.977	1509.951
620.474	24.530	1547.792	1511.568
621.488	24.695	1547.121	1512.137
622.503	24.904	1545.873	1512.514
623.518	24.570	1544.649	1508.300
624.532	24.445	1542.997	1505.444
625.547	24.225	1541.842	1502.272
626.561	24.063	1540.043	1498.971
627.576	24.111	1539.231	1498.406
628.591	24.494	1538.976	1501.219
629.605	24.664	1538.306	1501.818
630.620	24.853	1536.964	1501.923
631.634	24.905	1535.705	1500.948
632.649	24.839	1534.474	1499.013
633.663	24.913	1532.193	1497.229
634.678	24.478	1530.978	1492.205
635.693	24.250	1529.392	1488.564
636.707	24.281	1527.131	1486.446
637.722	24.076	1526.602	1484.039
638.736	24.067	1526.079	1483.276
639.751	24.239	1525.091	1483.578
640.766	24.257	1523.386	1481.896
641.780	24.233	1521.711	1479.885
642.795	24.292	1521.366	1479.869
643.809	24.357	1520.558	1479.444
644.824	24.426	1519.558	1478.867
645.839	24.614	1518.312	1479.043
646.853	24.389	1517.647	1476.347
647.868	24.396	1515.525	1474.166
648.882	24.422	1514.344	1473.056
649.897	24.457	1513.470	1472.319
650.912	24.525	1511.370	1470.665
651.926	24.406	1510.909	1469.056
652.941	24.444	1509.642	1467.961
653.955	24.427	1507.531	1465.589
654.970	24.428	1506.201	1464.127
655.985	24.177	1505.262	1460.973
656.999	24.096	1503.639	1458.560
658.014	24.221	1503.218	1459.004
659.028	24.251	1502.191	1458.076
660.043	24.317	1501.256	1457.535
661.058	24.431	1499.283	1456.380
662.072	24.447	1498.776	1455.846
663.087	24.307	1498.001	1453.777
664.101	24.381	1496.976	1453.211
665.116	24.389	1495.004	1451.187
666.131	24.266	1494.619	1449.637
667.145	24.356	1492.963	1448.593
668.160	24.158	1492.007	1445.871
669.174	24.083	1490.351	1443.486
670.189	24.118	1489.327	1442.603
671.204	24.247	1488.966	1443.131
672.218	24.317	1488.187	1442.774
673.233	24.322	1486.411	1440.921
674.247	24.210	1484.941	1438.413
675.262	24.076	1483.970	1436.214
676.276	24.054	1482.926	1434.852
677.291	24.215	1482.448	1435.525
678.306	24.426	1481.170	1435.821
679.320	24.302	1479.523	1433.049
680.335	24.221	1478.709	1431.437
681.349	24.139	1478.227	1430.140
682.364	24.150	1477.190	1429.052
683.379	24.195	1475.347	1427.462
684.393	24.136	1474.333	1425.835
685.408	24.041	1473.176	1423.784
686.422	24.069	1472.646	1423.318
687.437	23.890	1470.990	1420.114
688.452	23.938	1469.710	1419.097
689.466	23.977	1468.189	1417.767
690.481	24.123	1466.929	1417.548
691.495	24.213	1467.709	1418.854
692.510	24.708	1466.938	1421.894
693.525	24.845	1465.356	1421.283
694.539	24.562	1463.886	1417.437
695.554	24.268	1461.992	1413.087
696.568	23.926	1461.349	1409.574
697.583	23.807	1460.169	1407.320
698.598	23.785	1459.300	1406.138
699.612	23.829	1457.900	1404.968
700.627	23.871	1456.756	1404.033
701.641	23.967	1456.090	1403.981
702.656	24.038	1454.322	1402.679
703.671	24.085	1454.119	1402.679
704.685	24.066	1453.650	1401.912
705.700	23.984	1452.178	1399.677
706.714	24.134	1449.959	1398.557
707.729	24.125	1449.611	1397.984
708.744	24.083	1448.133	1396.061
709.758	24.063	1446.896	1394.539
710.773	24.015	1445.696	1392.836
711.787	24.054	1444.706	1392.023
712.802	24.256	1443.108	1391.903
713.816	24.149	1442.516	1390.323
714.831	24.209	1441.938	1390.076
715.846	24.048	1440.138	1386.910
716.860	23.984	1439.000	1385.150
717.875	23.967	1438.281	1384.160
718.889	24.026	1437.257	1383.469
719.904	23.882	1436.000	1380.966
720.919	23.930	1434.464	1379.702
721.933	23.916	1433.445	1378.441
722.948	23.830	1432.820	1377.012
723.962	23.775	1431.666	1375.306
724.977	23.673	1430.152	1372.897
725.992	23.692	1429.533	1372.289
727.006	23.925	1427.565	1372.040
728.021	23.879	1426.286	1370.291
729.035	23.745	1425.468	1368.301
730.050	23.989	1424.581	1369.177
731.065	24.065	1422.802	1367.889
732.079	23.808	1421.852	1364.828
733.094	23.885	1420.899	1364.346
734.108	23.994	1419.687	1363.854
735.123	23.839	1418.188	1361.062
736.138	23.899	1417.803	1360.986
737.152	23.873	1416.450	1359.330
738.167	23.883	1414.703	1357.566
739.181	23.805	1414.018	1356.146
740.196	23.940	1413.161	1356.200
741.211	23.753	1412.956	1354.407
742.225	23.786	1412.195	1353.767
743.240	23.741	1410.084	1351.236
744.254	23.681	1408.714	1349.306
745.269	23.590	1408.011	1347.770
746.284	23.596	1406.923	1346.618
747.298	23.958	1404.993	1347.368
748.313	24.104	1405.000	1348.325
749.327	24.293	1405.120	1349.714
750.342	24.564	1404.648	1351.157
751.356	24.809	1404.020	1352.256
752.371	24.476	1402.451	1348.055
753.386	23.936	1400.615	1342.034
754.400	23.792	1398.922	1339.161
755.415	23.870	1397.841	1338.556
756.429	23.839	1396.380	1336.764
757.444	23.801	1395.689	1335.651
758.459	23.773	1394.736	1334.371
759.473	23.589	1393.277	1331.423
760.488	23.744	1391.435	1330.673
761.502	23.656	1391.087	1329.524
762.517	23.712	1390.155	1328.891
763.532	23.830	1388.908	1328.425
764.546	23.777	1387.737	1326.750
765.561	23.762	1387.479	1326.232
766.575	23.776	1386.505	1325.244
767.590	23.973	1385.305	1325.420
768.605	23.909	1383.710	1323.255
769.619	24.012	1382.086	1322.312
770.634	23.984	1381.195	1321.090
771.648	23.811	1379.523	1318.047
772.663	23.705	1378.601	1316.215
773.678	23.581	1378.264	1314.817
774.692	23.613	1377.554	1314.221
775.707	23.584	1377.394	1313.695
776.721	23.665	1376.198	1312.999
777.736	23.464	1374.357	1309.592
778.751	23.524	1374.323	1309.846
779.765	23.599	1372.905	1308.891
780.780	23.642	1371.889	1308.089
781.794	23.681	1371.031	1307.400
782.809	23.530	1369.882	1305.034
783.824	23.412	1369.053	1303.218
784.838	23.788	1368.053	1304.881
785.853	24.275	1367.643	1307.931
786.867	24.125	1366.607	1305.676
787.882	23.963	1365.050	1302.841
788.897	23.876	1364.485	1301.504
789.911	23.483	1363.399	1297.424
790.926	23.412	1361.964	1295.380
791.940	23.356	1360.506	1293.430
792.955	23.347	1359.381	1292.134
793.969	23.396	1357.831	1290.868
794.984	23.432	1357.110	1290.291
795.999	23.535	1356.211	1290.034
797.013	23.622	1353.938	1288.354
798.028	23.442	1352.598	1285.614
799.042	23.319	1352.631	1284.594
800.057	23.301	1351.479	1283.215
801.072	23.432	1349.236	1281.883
802.086	23.512	1348.455	1281.566
803.101	23.401	1347.630	1279.823
804.115	23.438	1346.356	1278.728
805.130	23.406	1346.062	1278.064
806.145	23.639	1344.449	1278.067
807.159	23.484	1342.976	1275.393
808.174	23.452	1341.715	1273.816
809.188	23.570	1341.110	1273.939
810.203	23.617	1339.540	1272.636
811.218	23.668	1338.743	1272.089
812.232	23.624	1337.370	1270.316
813.247	23.711	1335.931	1269.422
814.261	23.708	1335.764	1269.091
815.276	23.550	1334.841	1266.929
816.291	23.443	1333.530	1264.768
817.305	23.206	1332.420	1261.860
818.320	23.249	1330.985	1260.662
819.334	23.432	1329.681	1260.586
820.349	23.502	1328.429	1259.742
821.364	23.227	1327.113	1256.387
822.378	23.199	1326.042	1255.020
823.393	23.353	1323.726	1253.773
824.407	23.271	1322.598	1251.975
825.422	23.207	1322.872	1251.628
826.437	23.383	1321.622	1251.545
827.451	23.336	1320.098	1249.615
828.466	23.895	1319.147	1252.525
829.480	24.109	1317.629	1252.454
830.495	23.697	1315.753	1247.611
831.509	23.282	1314.767	1243.597
832.524	23.182	1314.088	1242.099
833.539	23.233	1312.557	1240.863
834.553	23.388	1310.669	1240.021
835.568	23.361	1309.183	1238.275
836.582	23.273	1308.123	1236.509
837.597	23.398	1306.845	1236.030
838.612	23.434	1305.375	1234.739
839.626	23.542	1304.900	1234.902
840.641	23.613	1304.032	1234.426
841.655	23.355	1304.382	1232.808
842.670	23.652	1303.280	1233.688
843.685	23.701	1302.546	1233.189
844.699	23.560	1300.891	1230.497
845.714	23.637	1298.419	1228.542
846.728	23.495	1297.251	1226.304
847.743	23.398	1296.292	1224.578
848.758	23.302	1295.144	1222.679
849.772	23.237	1294.335	1221.322
850.787	23.224	1292.968	1219.795
851.801	23.188	1291.703	1218.206
852.816	23.065	1290.523	1216.100
853.831	23.207	1289.142	1215.630
854.845	23.236	1287.415	1214.055
855.860	23.176	1286.270	1212.419
856.874	23.270	1285.014	1211.733
857.889	23.489	1284.361	1212.480
858.904	23.696	1284.109	1213.519
859.918	23.980	1282.525	1213.823
860.933	24.063	1281.934	1213.691
861.947	23.805	1280.194	1210.133
862.962	23.442	1278.610	1206.005
863.977	23.361	1277.142	1203.925
864.991	23.324	1275.804	1202.264
866.006	23.256	1275.452	1201.326
867.020	22.963	1274.877	1198.642
868.035	22.983	1273.386	1197.237
869.049	23.234	1271.798	1197.305
870.064	23.291	1270.655	1196.475
871.079	23.186	1270.569	1195.535
872.093	23.217	1269.852	1194.925
873.108	23.344	1268.606	1194.473
874.122	23.206	1267.446	1192.303
875.137	23.395	1267.109	1193.124
876.152	23.474	1265.882	1192.360
877.166	23.637	1263.732	1191.292
878.181	23.282	1262.985	1188.049
879.195	22.952	1262.649	1185.370
880.210	23.059	1261.619	1184.980
881.225	23.313	1259.886	1184.920
882.239	23.365	1258.690	1184.000
883.254	23.159	1258.348	1182.153
884.268	23.237	1257.484	1181.723
885.283	23.207	1255.573	1179.588
886.298	23.157	1254.207	1177.827
887.312	23.014	1253.471	1176.041
888.327	23.182	1252.374	1175.993
889.341	23.119	1251.286	1174.411
890.356	22.980	1251.032	1173.103
891.371	22.972	1250.713	1172.609
892.385	23.189	1249.783	1173.040
893.400	23.204	1248.352	1171.657
894.414	23.216	1247.476	1170.776
895.429	23.499	1246.284	1171.398
896.444	23.926	1245.572	1173.421
897.458	24.351	1244.429	1175.016
898.473	23.958	1243.491	1171.388
899.487	23.557	1242.072	1167.260
900.502	23.405	1240.157	1164.320
901.517	23.283	1238.668	1161.980
902.531	23.195	1237.563	1160.223
903.546	23.244	1237.014	1159.890
904.560	23.167	1236.924	1159.157
905.575	23.167	1236.105	1158.256
906.589	23.130	1235.598	1157.397
907.604	23.235	1234.021	1156.472
