DTS Sentinel unit serial number:	SN409020Multiplexer serial number:	ORYXHardware model number:	OX4-SRSoftware version number:	ORYX F/W v3.00 Oryx Data Collector v3.7.2.0data status	okinstallation	HaddamTimeLapsedifferential loss correction	single-endedforward channel	channel 3reverse channel	N/Adate	2011/06/22time	02:36:16forward acquisition time	30.00reverse acquisition time	0.00gamma	498.7831k internal	0.1751k external	0.1751temperature offset calibration	1.0074default loss term (dB/km)	0.3790temperature slope calibration	1.3530multiplexer offset coefficient	1.0000multiplexer slope coefficient	1.0000fibre end	0.00T internal ref (°C)	22.34T ext. ref 1 (°C)	17.58T ext. ref 2 (°C)	0.02length (m)	temperature (°C)	Stokes	anti-Stokes-747.200	-41.380	0.060	0.041
-746.185	185.722	0.030	-0.059
-745.171	-83.647	0.074	-0.031
-744.156	41.296	0.173	-0.208
-743.142	-54.146	-0.277	0.167
-742.127	-57.242	0.565	-0.329
-741.112	-61.556	-0.079	-0.044
-740.098	101.542	0.194	0.301
-739.083	-59.583	0.153	0.087
-738.069	-128.429	0.204	0.038
-737.054	-200.000	-0.020	0.256
-736.039	-36.731	-0.121	-0.086
-735.025	160.741	-0.288	-0.535
-734.010	205.748	0.160	0.332
-732.996	-86.364	-0.318	0.129
-731.981	170.652	-0.131	-0.250
-730.966	-162.800	0.493	0.032
-729.952	-63.051	-0.241	-0.132
-728.937	-3.180	0.364	-0.337
-727.923	698.860	-0.047	-0.164
-726.908	-72.181	-0.401	-0.197
-725.894	-61.297	-0.419	-0.233
-724.879	800.000	0.013	-0.065
-723.864	-114.639	-0.509	0.128
-722.850	454.316	-0.112	-0.330
-721.835	286.913	0.294	-0.707
-720.821	63.393	-0.078	0.104
-719.806	19.033	0.286	-0.304
-718.791	323.561	0.048	-0.122
-717.777	150.561	0.067	0.121
-716.762	-94.217	0.172	-0.062
-715.748	-200.000	-0.049	-0.375
-714.733	-93.205	0.093	0.034
-713.718	52.757	-0.192	-0.244
-712.704	-93.346	0.300	-0.110
-711.689	-63.890	-0.272	-0.147
-710.675	-79.684	-0.498	-0.222
-709.660	572.180	-0.096	0.313
-708.645	-91.494	0.327	0.123
-707.631	-0.705	-0.609	0.572
-706.616	94.946	-0.356	-0.539
-705.602	19.105	-0.123	0.131
-704.587	-45.766	-0.208	0.136
-703.572	-99.467	0.417	0.139
-702.558	-141.067	0.180	-0.024
-701.543	-146.159	-0.253	-0.029
-700.529	-55.157	-0.545	-0.324
-699.514	-45.852	0.249	0.163
-698.499	146.336	-0.111	-0.199
-697.485	-200.000	0.068	0.501
-696.470	38.515	-0.600	0.709
-695.456	-118.622	-0.255	0.059
-694.441	35.792	0.208	0.243
-693.426	800.000	-0.114	-0.450
-692.412	-48.422	0.300	-0.191
-691.397	268.728	-0.149	-0.347
-690.383	800.000	0.084	0.324
-689.368	-200.000	-0.064	0.451
-688.354	-135.203	0.239	-0.038
-687.339	-200.000	-0.006	-0.158
-686.324	89.092	0.127	-0.187
-685.310	-200.000	0.046	0.471
-684.295	9.061	-0.394	-0.394
-683.281	-153.091	0.434	0.040
-682.266	-30.415	0.365	-0.274
-681.251	-82.296	-0.415	-0.178
-680.237	-77.416	-0.308	0.141
-679.222	230.806	0.173	0.376
-678.208	-147.654	-0.092	-0.010
-677.193	-92.727	-0.024	-0.009
-676.178	22.007	-0.200	0.216
-675.164	67.405	-0.355	-0.481
-674.149	-130.979	-0.350	-0.061
-673.135	-107.855	-0.243	0.070
-672.120	-174.687	-0.270	-0.010
-671.105	-127.042	0.244	-0.047
-670.091	60.706	-0.417	0.548
-669.076	-200.000	-0.005	-0.313
-668.062	324.755	-0.067	-0.171
-667.047	800.000	-0.061	0.330
-666.032	-28.322	0.289	-0.220
-665.018	-48.658	-0.606	-0.384
-664.003	-200.000	-0.016	0.103
-662.989	70.485	0.250	0.342
-661.974	-87.221	-0.278	0.111
-660.959	124.595	0.228	0.381
-659.945	800.000	0.092	-0.380
-658.930	-37.262	0.382	-0.270
-657.916	77.916	0.100	0.142
-656.901	75.873	-0.022	-0.030
-655.886	176.336	0.224	0.432
-654.872	-41.683	0.309	-0.210
-653.857	27.213	0.258	-0.287
-652.843	28.882	-0.433	-0.486
-651.828	215.708	-0.131	-0.275
-650.814	166.577	-0.197	-0.371
-649.799	227.690	0.016	0.034
-648.784	-124.865	-0.155	-0.031
-647.770	2.572	-0.355	-0.341
-646.755	-44.235	0.229	-0.152
-645.741	628.825	-0.117	0.393
-644.726	-140.113	0.413	-0.057
-643.711	800.000	0.063	-0.269
-642.697	223.423	-0.212	0.453
-641.682	-152.230	-0.642	-0.061
-640.668	363.014	-0.216	0.578
-639.653	-169.886	-0.150	0.007
-638.638	395.140	0.025	0.071
-637.624	52.784	0.100	0.127
-636.609	-14.773	0.164	0.139
-635.595	127.117	-0.247	0.415
-634.580	800.000	-0.012	-0.060
-633.565	-200.000	-0.414	-0.000
-632.551	-72.452	0.050	-0.024
-631.536	-194.659	0.139	-0.001
-630.522	-200.000	-0.007	-0.302
-629.507	-167.370	0.209	-0.011
-628.492	3.941	0.208	0.201
-627.478	-200.000	0.007	0.161
-626.463	-10.596	-0.037	-0.032
-625.449	17.465	0.252	-0.264
-624.434	-200.000	-0.056	-0.447
-623.419	-20.555	-0.263	-0.213
-622.405	-24.668	-0.104	0.081
-621.390	-126.788	0.336	0.065
-620.376	-200.000	-0.021	-0.246
-619.361	577.474	-0.025	0.081
-618.346	-47.379	-0.346	-0.222
-617.332	13.496	0.200	0.205
-616.317	-115.804	0.302	0.074
-615.303	-118.689	0.244	0.056
-614.288	2.541	0.407	0.390
-613.273	-89.920	0.385	0.148
-612.259	33.186	-0.260	0.299
-611.244	-25.999	-0.128	0.100
-610.230	-200.000	0.007	0.270
-609.215	263.159	-0.128	-0.295
-608.201	141.306	0.130	0.229
-607.186	-200.000	0.010	-0.202
-606.171	-12.021	-0.335	-0.290
-605.157	-68.429	-0.202	-0.103
-604.142	-88.996	-0.034	0.013
-603.128	22.808	-0.056	0.060
-602.113	-19.179	-0.070	0.058
-601.098	-32.630	-0.113	0.083
-600.084	-62.076	0.704	0.387
-599.069	87.057	-0.233	-0.340
-598.055	-82.476	-0.438	-0.187
-597.040	-13.998	-0.222	-0.190
-596.025	-200.000	0.002	0.036
-595.011	-9.097	-0.256	0.226
-593.996	156.325	0.091	-0.167
-592.982	-82.343	-0.343	0.146
-591.967	-108.334	0.113	-0.032
-590.952	-103.819	0.330	0.101
-589.938	-66.403	-0.456	-0.238
-588.923	-113.572	-0.241	-0.062
-587.909	-25.290	0.187	0.146
-586.894	-96.661	0.090	-0.031
-585.879	-75.775	-0.376	-0.175
-584.865	24.981	-0.192	-0.210
-583.850	416.082	-0.015	0.043
-582.836	-140.425	-0.897	-0.122
-581.821	-12.872	-0.393	-0.337
-580.806	-19.602	0.091	-0.074
-579.792	-28.802	0.295	0.224
-578.777	-4.638	-0.587	0.534
-577.763	-148.773	0.171	-0.018
-576.748	420.013	0.216	0.614
-575.733	398.717	-0.114	0.317
-574.719	440.834	0.157	-0.456
-573.704	40.177	0.176	0.209
-572.690	-6.464	-0.215	-0.193
-571.675	34.871	-0.150	0.173
-570.661	-52.036	0.460	0.281
-569.646	302.681	-0.094	0.231
-568.631	603.396	0.106	0.350
-567.617	-72.814	0.109	0.053
-566.602	57.996	0.189	-0.245
-565.588	-72.511	0.405	-0.197
-564.573	44.456	-0.022	-0.027
-563.558	128.490	0.243	0.410
-562.544	-68.412	0.215	0.110
-561.529	-54.636	-0.522	-0.310
-560.515	-106.287	0.062	-0.018
-559.500	4.799	-0.526	-0.510
-558.485	-38.328	-0.388	-0.271
-557.471	592.908	0.119	-0.389
-556.456	-123.112	-0.246	-0.052
-555.442	90.956	-0.175	-0.259
-554.427	392.593	0.122	0.336
-553.412	-61.567	0.317	-0.175
-552.398	-29.169	0.164	-0.123
-551.383	99.350	-0.210	-0.321
-550.369	-75.913	0.256	0.119
-549.354	-200.000	-0.005	0.304
-548.339	-126.268	0.221	-0.043
-547.325	-30.383	0.225	0.168
-546.310	-200.000	0.026	0.372
-545.296	47.423	-0.226	-0.278
-544.281	800.000	0.030	-0.139
-543.266	-63.035	-0.494	0.268
-542.252	73.454	0.269	-0.371
-541.237	-200.000	-0.097	-0.666
-540.223	663.979	0.052	0.179
-539.208	800.000	0.074	-0.397
-538.193	800.000	0.095	0.549
-537.179	46.109	0.308	-0.376
-536.164	-5.736	0.398	-0.359
-535.150	-1.577	0.405	0.376
-534.135	-200.000	-0.078	0.580
-533.121	273.427	-0.290	0.677
-532.106	248.933	0.119	-0.267
-531.091	177.656	-0.130	0.250
-530.077	-73.139	-0.067	-0.032
-529.062	-64.056	-0.616	0.330
-528.048	-42.904	0.264	-0.176
-527.033	-52.090	0.309	0.189
-526.018	-22.453	0.223	-0.177
-525.004	146.891	-0.111	-0.197
-523.989	567.743	-0.102	-0.327
-522.975	-1.412	0.207	-0.193
-521.960	-200.000	-0.006	-0.278
-520.945	800.000	0.064	-0.234
-519.931	-114.155	0.251	0.063
-518.916	190.846	0.226	0.449
-517.902	-169.876	0.597	0.028
-516.887	66.951	-0.246	0.330
-515.872	192.462	-0.201	0.401
-514.858	-86.320	0.587	0.237
-513.843	800.000	-0.069	0.358
-512.829	301.478	-0.146	-0.356
-511.814	-144.140	0.376	0.046
-510.799	800.000	0.090	-0.341
-509.785	-126.306	-0.079	0.015
-508.770	723.910	-0.021	-0.075
-507.756	-78.277	0.299	0.134
-506.741	562.133	-0.172	-0.552
-505.726	-99.704	-0.366	-0.120
-504.712	-56.035	0.343	-0.201
-503.697	-121.716	0.136	0.029
-502.683	-200.000	0.043	-0.379
-501.668	-12.487	-0.243	-0.208
-500.653	-131.682	0.177	-0.030
-499.639	-55.384	-0.256	-0.151
-498.624	-44.141	0.376	0.248
-497.610	474.318	-0.113	-0.338
-496.595	252.126	-0.145	0.325
-495.581	207.276	-0.224	0.461
-494.566	-119.947	-0.391	0.088
-493.551	800.000	0.069	-0.294
-492.537	91.152	-0.146	0.216
-491.522	-5.453	-0.271	-0.245
-490.508	-100.396	0.233	0.076
-489.493	55.079	-0.214	-0.273
-488.478	800.000	-0.101	-0.379
-487.464	-100.531	-0.059	-0.019
-486.449	-148.150	-0.404	-0.043
-485.435	-38.155	0.168	-0.117
-484.420	505.183	0.039	-0.119
-483.405	-66.269	0.185	0.097
-482.391	-200.000	-0.016	0.297
-481.376	87.463	-0.170	0.248
-480.362	76.751	-0.184	0.257
-479.347	106.243	0.085	-0.133
-478.332	-200.000	0.058	0.454
-477.318	-54.871	-0.125	-0.074
-476.303	-200.000	0.046	-0.379
-475.289	164.117	0.151	-0.281
-474.274	135.890	-0.212	-0.363
-473.259	-200.000	0.003	-0.345
-472.245	-200.000	0.014	-0.166
-471.230	-149.758	-0.154	0.016
-470.216	-28.480	0.049	-0.037
-469.201	-56.133	-0.118	0.069
-468.186	-80.702	-0.154	-0.067
-467.172	241.499	-0.123	0.271
-466.157	-200.000	-0.023	-0.179
-465.143	-128.131	0.472	-0.088
-464.128	-200.000	-0.045	-0.399
-463.113	-173.653	0.143	0.006
-462.099	-39.541	-0.166	-0.114
-461.084	159.288	0.310	-0.568
-460.070	462.449	-0.059	-0.174
-459.055	-200.000	0.010	-0.611
-458.040	-68.454	0.330	-0.168
-457.026	-32.035	-0.146	0.107
-456.011	-94.974	-0.203	0.072
-454.997	-88.910	-0.141	-0.055
-453.982	-200.000	0.477	-0.001
-452.968	800.000	0.037	-0.178
-451.953	800.000	-0.126	0.563
-450.938	-168.770	-0.325	0.016
-449.924	187.082	0.253	0.496
-448.909	21.379	0.389	0.415
-447.895	-31.800	0.358	-0.263
-446.880	800.000	-0.028	0.115
-445.865	-33.207	0.122	0.088
-444.851	-200.000	-0.002	-0.024
-443.836	252.259	0.130	-0.291
-442.822	800.000	0.010	-0.035
-441.807	800.000	-0.132	0.678
-440.792	115.627	0.167	0.269
-439.778	77.146	-0.174	0.243
-438.763	-23.460	0.363	-0.286
-437.749	24.202	0.412	0.446
-436.734	-71.009	0.180	0.089
-435.719	-146.676	-0.412	0.046
-434.705	40.898	0.132	0.156
-433.690	-109.851	-0.565	-0.154
-432.676	-120.123	-0.474	-0.106
-431.661	-200.000	-0.023	0.311
-430.646	-200.000	-0.020	-0.256
-429.632	-18.673	0.334	-0.273
-428.617	-160.069	-0.291	-0.021
-427.603	434.525	-0.149	-0.426
-426.588	-200.000	-0.006	-0.239
-425.573	-44.128	-0.256	0.168
-424.559	-52.101	0.058	0.035
-423.544	90.524	0.127	0.186
-422.530	-17.553	0.097	-0.080
-421.515	596.008	0.094	0.307
-420.500	-200.000	0.039	0.712
-419.486	-91.628	0.070	0.026
-418.471	-119.411	-0.593	0.134
-417.457	108.379	0.246	-0.386
-416.442	472.982	0.038	-0.114
-415.428	-108.692	0.426	-0.119
-414.413	-97.937	0.453	-0.152
-413.398	-41.594	-0.023	-0.015
-412.384	-112.928	-0.433	0.112
-411.369	169.403	-0.082	-0.153
-410.355	-152.315	0.211	0.020
-409.340	-108.423	0.132	-0.037
-408.325	314.338	0.072	-0.179
-407.311	144.245	-0.290	0.508
-406.296	-200.000	0.008	-0.090
-405.282	-81.487	0.151	0.065
-404.267	233.736	-0.067	-0.145
-403.252	-38.165	-0.463	0.321
-402.238	136.120	0.335	0.574
-401.223	-50.139	0.277	-0.171
-400.209	442.754	-0.190	-0.548
-399.194	800.000	-0.042	-0.187
-398.179	-116.037	-0.160	-0.039
-397.165	59.703	-0.151	0.195
-396.150	157.142	-0.097	0.176
-395.136	-200.000	-0.021	-0.221
-394.121	83.497	0.318	-0.456
-393.106	800.000	-0.045	-0.235
-392.092	74.915	-0.177	-0.245
-391.077	-146.342	0.064	-0.007
-390.063	215.918	-0.090	-0.188
-389.048	42.270	-0.285	0.339
-388.033	14.055	-0.332	0.339
-387.019	-136.448	0.302	0.045
-386.004	-63.005	0.481	-0.259
-384.990	237.159	-0.153	-0.332
-383.975	800.000	-0.059	-0.341
-382.960	-71.883	-0.658	-0.320
-381.946	122.565	0.186	-0.305
-380.931	112.159	0.037	-0.058
-379.917	-140.724	0.280	-0.037
-378.902	39.142	-0.126	0.148
-377.888	-200.000	-0.025	0.153
-376.873	399.772	0.188	-0.519
-375.858	-136.556	-0.367	-0.055
-374.844	-67.997	0.113	-0.057
-373.829	367.343	0.065	0.173
-372.815	304.520	0.168	0.411
-371.800	273.449	-0.082	0.190
-370.785	-96.725	0.380	-0.130
-369.771	-92.941	-0.396	0.144
-368.756	800.000	-0.081	0.399
-367.742	-70.555	-0.145	0.072
-366.727	2.398	-0.226	0.214
-365.712	-68.932	0.307	0.154
-364.698	-0.841	-0.184	0.171
-363.683	-140.346	0.485	0.066
-362.669	307.892	0.042	-0.104
-361.654	75.196	0.060	0.082
-360.639	534.195	-0.071	-0.222
-359.625	-78.995	0.421	0.187
-358.610	-65.039	-0.242	0.128
-357.596	612.997	0.085	0.279
-356.581	692.028	0.048	-0.165
-355.566	-200.000	0.028	0.343
-354.552	-140.210	-0.223	-0.030
-353.537	518.895	0.100	0.309
-352.523	-96.597	0.052	-0.018
-351.508	300.745	0.052	0.126
-350.493	-127.720	-0.177	0.033
-349.479	-112.193	-0.104	0.027
-348.464	235.890	0.130	-0.282
-347.450	28.390	-0.371	-0.410
-346.435	95.260	-0.298	0.445
-345.420	680.467	-0.170	0.583
-344.406	-4.218	0.328	0.297
-343.391	-136.979	-0.347	0.051
-342.377	113.816	-0.219	0.348
-341.362	-200.000	-0.099	-0.000
-340.348	138.848	0.105	0.180
-339.333	-200.000	-0.049	-0.292
-338.318	531.899	-0.050	-0.154
-337.304	-156.273	0.327	-0.026
-336.289	670.777	-0.077	0.261
-335.275	90.219	0.356	0.521
-334.260	-68.304	-0.208	-0.105
-333.245	-169.916	0.703	-0.032
-332.231	195.723	-0.330	-0.657
-331.216	-200.000	0.050	-0.318
-330.202	-81.129	-0.537	0.231
-329.187	800.000	0.021	-0.103
-328.172	98.878	-0.221	-0.334
-327.158	17.795	-0.090	-0.094
-326.143	97.398	0.280	-0.421
-325.129	-192.696	-0.849	0.010
-324.114	-36.019	0.429	0.302
-323.099	41.237	-0.231	-0.273
-322.085	23.070	-0.416	-0.446
-321.070	-59.492	0.174	0.097
-320.056	-33.302	0.316	-0.228
-319.041	115.278	0.134	-0.214
-318.026	-111.352	-0.432	0.114
-317.012	-57.023	-0.452	0.259
-315.997	117.731	0.290	0.467
-314.983	-97.741	0.180	-0.061
-313.968	-111.587	0.268	0.071
-312.953	53.663	-0.024	0.031
-311.939	-124.173	0.139	0.028
-310.924	-27.246	-0.246	-0.187
-309.910	-80.104	-0.073	0.032
-308.895	-103.014	0.614	0.189
-307.880	-32.120	0.090	-0.066
-306.866	96.542	-0.052	-0.078
-305.851	138.825	-0.163	0.280
-304.837	86.362	0.188	-0.272
-303.822	-200.000	-0.018	-0.208
-302.807	-105.108	-0.692	-0.205
-301.793	-125.503	0.542	-0.107
-300.778	194.179	0.188	-0.372
-299.764	-142.252	-0.165	0.021
-298.749	592.696	-0.115	-0.373
-297.735	71.064	0.235	0.319
-296.720	-42.703	-0.071	-0.047
-295.705	-114.166	0.215	-0.054
-294.691	164.652	-0.222	-0.409
-293.676	-109.721	-0.484	0.132
-292.662	-77.333	0.360	-0.163
-291.647	-74.818	-0.185	-0.086
-290.632	-77.073	0.411	0.186
-289.618	-145.602	0.487	-0.056
-288.603	-43.402	0.070	-0.046
-287.589	143.957	0.107	0.186
-286.574	198.383	0.343	0.686
-285.559	800.000	-0.069	0.256
-284.545	244.050	-0.203	0.446
-283.530	-34.244	0.252	0.180
-282.516	228.508	-0.057	0.122
-281.501	-177.897	-0.296	0.009
-280.486	-192.534	0.062	0.001
-279.472	-103.554	-0.441	-0.134
-278.457	755.227	-0.094	0.334
-277.443	106.218	0.409	-0.633
-276.428	71.965	0.358	-0.486
-275.413	48.012	-0.380	-0.463
-274.399	-107.187	-0.211	0.060
-273.384	-38.564	-0.331	0.228
-272.370	-89.277	0.290	-0.111
-271.355	-46.712	0.136	-0.087
-270.340	291.736	0.102	-0.243
-269.326	-99.951	-0.232	0.075
-268.311	-62.528	-0.140	-0.076
-267.297	32.593	0.233	-0.262
-266.282	800.000	0.014	-0.059
-265.267	-75.038	0.217	0.101
-264.253	-24.846	-0.187	0.145
-263.238	417.858	-0.083	-0.232
-262.224	50.919	-0.198	-0.245
-261.209	729.716	0.077	0.270
-260.195	6.157	-0.326	0.314
-259.180	-41.049	-0.071	0.048
-258.165	349.507	-0.073	0.188
-257.151	101.566	-0.095	0.144
-256.136	-70.128	-0.431	0.213
-255.122	230.919	-0.274	0.587
-254.107	-52.420	0.245	-0.148
-253.092	389.628	-0.087	0.237
-252.078	-200.000	-0.004	-0.268
-251.063	-105.119	0.330	0.098
-250.049	58.057	0.166	0.212
-249.034	115.517	0.032	0.050
-248.019	-160.844	0.234	-0.016
-247.005	103.122	-0.136	0.209
-245.990	113.943	0.068	-0.107
-244.976	-152.351	0.007	-0.001
-243.961	-66.615	-0.256	0.132
-242.946	-50.103	-0.199	0.123
-241.932	-88.299	-0.080	0.031
-240.917	46.084	-0.233	0.281
-239.903	-9.863	0.343	0.297
-238.888	212.760	0.173	0.356
-237.873	65.080	-0.122	-0.161
-236.859	-180.662	-0.251	-0.007
-235.844	-200.000	-0.010	0.155
-234.830	94.759	-0.215	0.319
-233.815	17.804	-0.225	-0.234
-232.800	-95.950	-0.147	0.051
-231.786	-200.000	-0.010	0.118
-230.771	800.000	-0.042	0.152
-229.757	-145.581	-0.499	0.058
-228.742	-128.133	0.288	0.053
-227.727	-17.396	0.218	0.178
-226.713	109.363	0.087	0.137
-225.698	-109.037	0.325	-0.090
-224.684	-200.000	-0.006	-0.323
-223.669	-87.443	0.205	0.080
-222.655	-68.704	-0.086	-0.043
-221.640	101.631	-0.067	-0.102
-220.625	-126.774	-0.029	-0.006
-219.611	541.621	0.123	0.385
-218.596	479.985	0.075	-0.222
-217.582	-200.000	0.014	-0.129
-216.567	559.720	0.135	-0.428
-215.552	-30.713	-0.187	0.137
-214.538	10.173	-0.350	-0.346
-213.523	143.514	0.142	-0.246
-212.509	3.981	0.264	-0.251
-211.494	72.805	0.140	0.191
-210.479	800.000	0.033	-0.139
-209.465	-200.000	-0.064	-0.445
-208.450	-39.956	-0.128	0.086
-207.436	-105.815	0.273	-0.080
-206.421	-96.244	-0.119	-0.041
-205.406	3.828	0.268	-0.254
-204.392	42.794	0.160	0.190
-203.377	-50.528	-0.363	-0.222
-202.363	-93.931	-0.138	-0.049
-201.348	-5.597	-0.239	-0.213
-200.333	524.981	0.042	0.130
-199.319	-71.472	-0.389	-0.188
-198.304	-200.000	0.017	-0.290
-197.290	-27.155	0.256	0.194
-196.275	65.534	0.152	0.201
-195.260	-152.839	0.260	0.024
-194.246	-57.247	0.588	0.336
-193.231	-75.207	-0.504	0.233
-192.217	729.256	0.122	0.427
-191.202	120.972	-0.073	-0.119
-190.187	800.000	-0.109	-0.479
-189.173	158.580	-0.161	0.291
-188.158	-97.348	-0.214	0.072
-187.144	790.137	-0.104	0.374
-186.129	21.031	-0.479	0.505
-185.114	-200.000	0.037	-0.343
-184.100	484.589	-0.101	-0.300
-183.085	252.207	0.224	0.497
-182.071	-94.380	0.300	0.106
-181.056	-72.957	0.371	-0.176
-180.042	800.000	0.143	-0.585
-179.027	-1.416	0.185	-0.169
-178.012	-100.066	0.396	-0.127
-176.998	-132.839	-0.363	0.060
-175.983	-112.499	0.182	-0.047
-174.969	567.270	0.155	-0.492
-173.954	-63.319	0.427	-0.228
-172.939	46.259	-0.067	-0.080
-171.925	-200.000	0.042	-0.573
-170.910	-118.094	0.178	0.041
-169.896	-200.000	0.000	0.315
-168.881	160.727	0.049	-0.090
-167.866	94.681	0.309	-0.457
-166.852	-200.000	-0.037	0.403
-165.837	200.287	0.139	-0.279
-164.823	-115.239	-0.714	-0.174
-163.808	-52.190	-0.237	-0.142
-162.793	-200.000	0.070	0.402
-161.779	-58.323	0.283	0.159
-160.764	-67.159	0.097	0.050
-159.750	324.174	0.121	0.301
-158.735	319.587	0.171	0.424
-157.720	-164.057	0.502	-0.030
-156.706	-39.215	-0.680	0.463
-155.691	800.000	0.041	-0.195
-154.677	-81.505	0.424	0.180
-153.662	196.421	0.125	-0.248
-152.647	-139.443	0.678	0.093
-151.633	-60.315	0.096	0.053
-150.618	-97.570	0.545	0.182
-149.604	-159.727	-0.254	-0.018
-148.589	27.647	0.094	0.103
-147.574	-19.636	0.234	0.187
-146.560	-197.940	-0.492	-0.004
-145.545	150.050	0.457	-0.807
-144.531	-14.351	0.444	0.370
-143.516	-149.242	-0.420	-0.043
-142.502	185.017	0.091	-0.176
-141.487	-164.574	-0.707	-0.041
-140.472	-123.050	-0.110	-0.023
-139.458	449.234	0.060	0.171
-138.443	126.872	-0.107	0.177
-137.429	49.341	0.466	0.569
-136.414	363.452	0.274	-0.718
-135.399	222.594	-0.122	0.256
-134.385	800.000	-0.113	-0.429
-133.370	-81.393	0.281	-0.120
-132.356	16.417	-0.151	-0.155
-131.341	-155.838	0.293	0.024
-130.326	800.000	0.074	0.300
-129.312	80.874	0.377	0.528
-128.297	-93.889	0.148	0.053
-127.283	91.251	-0.086	0.126
-126.268	1.306	0.079	0.074
-125.253	137.112	-0.077	-0.131
-124.239	-200.000	0.042	-0.573
-123.224	144.190	0.027	0.047
-122.210	-105.078	-0.102	-0.030
-121.195	122.369	0.129	-0.209
-120.180	252.354	0.016	-0.036
-119.166	-200.000	-0.022	-0.427
-118.151	24.446	0.245	-0.262
-117.137	3.496	-0.196	0.185
-116.122	-84.585	-0.693	0.282
-115.107	-181.259	-0.210	0.005
-114.093	509.886	0.133	-0.404
-113.078	105.105	0.221	0.338
-112.064	-169.135	-0.234	0.011
-111.049	-13.536	0.083	0.070
-110.034	36.683	0.150	0.172
-109.020	-112.274	-0.254	0.066
-108.005	658.078	0.101	0.337
-106.991	-123.929	0.610	-0.124
-105.976	66.542	-0.212	-0.280
-104.962	-48.058	-0.085	0.053
-103.947	-200.000	-0.033	-0.203
-102.932	698.873	-0.020	0.069
-101.918	-17.125	-0.106	0.086
-100.903	176.838	0.098	-0.185
-99.889	-200.000	0.016	0.121
-98.874	-154.096	0.239	0.021
-97.859	192.606	0.084	0.166
-96.845	-3.286	0.207	-0.187
-95.830	-200.000	0.014	0.337
-94.816	-63.764	0.136	0.072
-93.801	-154.848	0.069	0.006
-92.786	80.748	0.200	0.280
-91.772	-155.703	-0.445	0.036
-90.757	-81.126	0.373	0.159
-89.743	100.550	0.073	-0.109
-88.728	667.823	0.110	0.372
-87.713	-200.000	0.029	-0.232
-86.699	-113.792	0.502	0.126
-85.684	-111.434	0.223	0.058
-84.670	17.542	0.087	-0.089
-83.655	-134.308	-0.115	-0.018
-82.640	-200.000	-0.358	0.001
-81.626	-200.000	0.042	-0.540
-80.611	154.874	-0.288	-0.514
-79.597	-200.000	-0.006	0.236
-78.582	-21.413	0.207	-0.163
-77.567	-126.899	0.349	0.066
-76.553	-160.807	0.317	0.021
-75.538	76.125	0.453	0.621
-74.524	-43.940	-0.079	0.052
-73.509	-135.067	0.595	-0.092
-72.494	-200.000	0.003	-0.181
-71.480	667.015	-0.138	0.465
-70.465	-166.477	-0.322	0.017
-69.451	112.552	-0.172	-0.270
-68.436	-12.542	0.258	0.217
-67.422	468.088	0.210	-0.611
-66.407	-200.000	0.077	0.539
-65.392	649.967	-0.019	-0.064
-64.378	180.071	0.163	-0.309
-63.363	4.505	0.246	-0.233
-62.349	663.221	-0.088	0.295
-61.334	-20.725	-2.526	-2.002
-60.319	-4.531	1.555	1.389
-59.305	198.651	-3.506	-6.963
-58.290	48.110	4.355	5.271
-57.276	406.271	3.770	10.341
-56.261	-200.000	24.527	319.402
-55.246	351.513	1307.485	3363.001
-54.232	52.318	2850.213	3518.578
-53.217	50.971	2661.510	3264.628
-52.203	31.322	2390.797	2655.224
-51.188	27.472	2057.847	2237.912
-50.173	24.286	1944.475	2077.288
-49.159	23.186	1932.568	2051.670
-48.144	22.683	1927.553	2040.420
-47.130	22.606	1924.941	2036.684
-46.115	22.550	1924.154	2035.113
-45.100	22.543	1921.932	2032.610
-44.086	22.382	1921.073	2029.754
-43.071	22.436	1919.637	2028.784
-42.057	22.455	1918.008	2027.193
-41.042	22.477	1916.085	2025.339
-40.027	22.478	1915.067	2024.191
-39.013	22.634	1913.137	2023.871
-37.998	22.529	1912.278	2021.675
-36.984	22.557	1910.300	2019.818
-35.969	22.569	1908.701	2018.196
-34.954	22.470	1908.156	2016.400
-33.940	22.411	1906.752	2014.156
-32.925	22.463	1905.534	2013.386
-31.911	22.452	1904.504	2012.084
-30.896	22.435	1903.673	2010.934
-29.881	22.420	1902.020	2008.939
-28.867	22.411	1900.270	2006.902
-27.852	22.388	1898.545	2004.747
-26.838	22.373	1897.384	2003.262
-25.823	22.265	1896.399	2000.909
-24.809	22.313	1895.033	1999.940
-23.794	22.247	1893.904	1997.915
-22.779	22.290	1892.162	1996.492
-21.765	22.254	1891.097	1994.879
-20.750	22.361	1889.422	1994.241
-19.736	22.318	1888.959	1993.185
-18.721	22.264	1888.550	1992.061
-17.706	22.377	1886.561	1991.173
-16.692	22.194	1885.648	1988.050
-15.677	22.436	1883.652	1988.618
-14.663	22.188	1883.141	1985.186
-13.648	22.232	1881.186	1983.535
-12.633	22.298	1879.917	1982.868
-11.619	22.340	1878.559	1981.836
-10.604	22.251	1877.811	1979.964
-9.590	22.174	1877.362	1978.541
-8.575	22.240	1875.111	1976.836
-7.560	22.206	1874.174	1975.381
-6.546	22.267	1873.011	1974.765
-5.531	22.269	1871.727	1973.359
-4.517	22.135	1870.505	1970.477
-3.502	22.211	1869.744	1970.459
-2.487	22.341	1868.457	1970.490
-1.473	22.352	1863.950	1965.782
-0.458	22.117	1847.123	1945.334
0.556	18.679	1993.979	2046.585
1.571	17.118	2197.303	2234.378
2.586	18.061	2235.410	2285.533
3.600	17.902	2238.745	2286.527
4.615	17.982	2237.690	2286.257
5.629	18.038	2235.926	2284.936
6.644	17.939	2233.785	2281.136
7.659	18.039	2231.724	2280.109
8.673	17.996	2229.762	2277.249
9.688	17.795	2239.067	2283.772
10.702	16.884	2319.055	2352.379
11.717	15.239	2384.119	2394.484
12.731	7.195	2364.776	2259.789
13.746	0.994	2347.987	2154.995
14.761	0.182	2344.301	2139.750
15.775	0.144	2342.022	2136.871
16.790	0.092	2340.898	2134.852
17.804	0.039	2339.208	2132.291
18.819	-0.042	2338.865	2130.574
19.834	0.024	2336.734	2129.316
20.848	-0.042	2335.454	2126.959
21.863	0.088	2333.366	2126.644
22.877	-0.007	2332.008	2123.808
23.892	-0.053	2330.038	2121.115
24.907	0.006	2327.716	2119.581
25.921	-0.066	2326.386	2117.088
26.936	0.007	2323.496	2115.235
27.950	0.096	2319.739	2112.823
28.965	0.001	2318.751	2110.335
29.980	0.023	2317.725	2109.451
30.994	0.120	2314.474	2107.614
32.009	3.983	2326.408	2172.806
33.023	12.846	2352.015	2322.448
34.038	16.397	2357.670	2378.077
35.053	16.575	2354.236	2376.839
36.067	16.616	2352.986	2375.873
37.082	16.482	2350.536	2371.227
38.096	16.578	2349.011	2370.766
39.111	16.758	2346.765	2370.741
40.126	16.971	2343.602	2370.252
41.140	17.069	2343.034	2370.778
42.155	16.911	2341.511	2366.737
43.169	16.934	2339.343	2364.574
44.184	16.776	2336.717	2359.431
45.199	16.780	2333.694	2356.155
46.213	16.802	2332.976	2355.454
47.228	16.898	2332.290	2355.816
48.242	16.920	2330.006	2353.529
49.257	16.942	2329.105	2352.651
50.271	17.145	2325.551	2351.608
51.286	16.872	2322.434	2344.376
52.301	16.639	2320.232	2338.632
53.315	17.282	2323.911	2351.010
54.330	19.794	2330.097	2391.954
55.344	21.258	2331.145	2413.084
56.359	21.474	2327.450	2411.958
57.374	21.582	2327.346	2413.066
58.388	21.780	2324.973	2413.052
59.403	21.610	2320.380	2405.652
60.417	21.339	2317.614	2398.756
61.432	21.381	2316.323	2397.717
62.447	21.622	2315.388	2399.775
63.461	21.883	2313.365	2400.984
64.476	21.989	2311.339	2400.052
65.490	21.630	2309.380	2392.801
66.505	20.812	2306.017	2377.808
67.520	18.969	2298.982	2345.033
68.534	17.226	2291.217	2313.001
69.549	16.713	2286.468	2300.922
70.563	16.669	2284.931	2298.503
71.578	16.760	2282.926	2297.453
72.593	16.836	2281.174	2296.449
73.607	16.904	2279.210	2295.126
74.622	16.830	2278.103	2292.734
75.636	16.753	2274.119	2287.401
76.651	16.766	2271.682	2284.848
77.666	16.768	2270.067	2282.980
78.680	16.721	2268.329	2280.322
79.695	16.621	2264.932	2275.290
80.709	16.526	2264.028	2272.824
81.724	16.499	2262.569	2270.719
82.739	16.541	2259.051	2267.475
83.753	16.486	2257.968	2265.384
84.768	16.420	2256.327	2262.581
85.782	16.467	2254.826	2261.429
86.797	16.337	2253.656	2258.242
87.812	16.541	2251.279	2258.329
88.826	16.673	2248.451	2256.985
89.841	16.611	2246.726	2254.156
90.855	16.578	2244.890	2251.610
91.870	16.666	2242.745	2250.357
92.884	16.610	2241.616	2248.215
93.899	16.594	2240.372	2246.476
94.914	17.198	2242.950	2256.861
95.928	19.341	2248.630	2290.965
96.943	20.045	2247.390	2298.820
97.957	17.876	2237.933	2260.034
98.972	16.833	2231.740	2239.666
99.987	16.519	2229.390	2232.871
101.001	16.568	2226.568	2230.426
102.016	16.530	2224.008	2227.090
103.030	16.553	2221.351	2224.469
104.045	16.566	2219.380	2222.392
105.060	16.538	2217.826	2220.200
106.074	16.424	2216.550	2217.159
107.089	16.632	2213.917	2217.004
108.103	16.493	2213.830	2214.819
109.118	16.637	2211.943	2214.555
110.133	16.730	2210.513	2214.085
111.147	16.676	2207.525	2210.115
112.162	16.679	2206.524	2208.882
113.176	16.676	2204.697	2206.761
114.191	16.762	2203.068	2205.988
115.206	16.736	2200.927	2203.233
116.220	16.679	2199.971	2201.274
117.235	16.742	2197.425	2199.286
118.249	16.723	2195.748	2197.095
119.264	16.774	2194.053	2195.801
120.279	16.739	2192.037	2193.069
121.293	16.733	2190.846	2191.534
122.308	16.693	2188.545	2188.448
123.322	16.577	2188.673	2186.811
124.337	16.976	2189.034	2192.097
125.352	19.375	2195.945	2229.974
126.366	19.921	2194.115	2234.925
127.381	17.573	2184.264	2194.260
128.395	16.710	2179.781	2178.336
129.410	16.671	2176.201	2173.997
130.424	16.513	2175.531	2171.028
131.439	16.626	2173.790	2170.487
132.454	16.676	2171.825	2168.913
133.468	16.727	2169.755	2167.235
134.483	16.776	2168.674	2166.529
135.497	16.916	2167.402	2166.803
136.512	16.828	2164.785	2162.796
137.527	16.743	2162.529	2159.199
138.541	16.577	2162.128	2156.401
139.556	16.503	2160.771	2153.849
140.570	16.645	2158.863	2153.504
141.585	16.537	2156.905	2149.908
142.600	16.555	2155.508	2148.489
143.614	16.480	2153.499	2145.277
144.629	16.370	2152.352	2142.478
145.643	16.424	2150.148	2140.711
146.658	16.413	2148.716	2138.887
147.673	16.478	2146.022	2136.774
148.687	16.534	2145.760	2136.968
149.702	16.660	2144.158	2136.722
150.716	16.656	2143.229	2135.484
151.731	16.660	2141.360	2133.426
152.746	16.746	2140.389	2133.286
153.760	17.149	2143.370	2141.116
154.775	19.514	2150.210	2177.709
155.789	20.253	2147.294	2183.858
156.804	18.004	2138.029	2145.804
157.819	16.750	2131.210	2122.913
158.833	16.680	2128.485	2119.075
159.848	16.629	2126.553	2116.255
160.862	16.600	2126.149	2115.227
161.877	16.666	2124.304	2113.976
162.892	16.759	2123.928	2114.504
163.906	16.761	2122.135	2112.500
164.921	16.792	2120.587	2111.095
165.935	16.877	2117.680	2109.008
166.950	16.792	2116.812	2106.830
167.964	16.774	2113.948	2103.497
168.979	16.632	2112.085	2099.629
169.994	16.541	2111.327	2097.481
171.008	16.449	2108.966	2093.750
172.023	16.493	2107.791	2092.879
173.037	16.556	2106.685	2092.315
174.052	16.693	2105.117	2092.201
175.067	16.676	2102.961	2089.598
176.081	16.509	2101.835	2086.156
177.096	16.559	2101.247	2085.941
178.110	16.623	2099.358	2084.615
179.125	16.669	2098.017	2083.606
180.140	16.717	2096.774	2082.706
181.154	16.624	2095.978	2080.523
182.169	16.732	2094.809	2080.448
183.183	17.351	2096.431	2089.451
184.198	19.958	2102.629	2127.621
185.213	20.349	2101.105	2130.656
186.227	17.849	2092.416	2090.838
187.242	16.783	2087.756	2072.825
188.256	16.680	2086.008	2069.579
189.271	16.637	2083.063	2065.876
190.286	16.614	2081.451	2063.747
191.300	16.617	2079.148	2061.257
192.315	16.591	2077.959	2059.514
193.329	16.692	2077.105	2059.655
194.344	17.016	2076.556	2062.829
195.359	16.866	2076.191	2060.387
196.373	16.799	2073.337	2056.488
197.388	16.668	2069.895	2051.236
198.402	16.586	2067.820	2047.932
199.417	16.554	2065.727	2045.225
200.432	16.748	2063.560	2045.197
201.446	16.573	2064.034	2043.291
202.461	16.547	2061.199	2039.925
203.475	16.446	2060.106	2037.379
204.490	16.508	2057.735	2035.543
205.504	16.506	2055.185	2032.747
206.519	16.580	2053.630	2031.854
207.534	16.513	2052.348	2029.535
208.548	16.734	2050.464	2030.098
209.563	16.723	2049.421	2028.688
210.577	16.680	2049.323	2027.827
211.592	16.734	2047.625	2026.558
212.607	17.884	2052.518	2045.018
213.621	20.747	2058.497	2085.255
214.636	20.167	2052.167	2071.630
215.650	17.555	2043.884	2031.729
216.665	16.896	2040.641	2020.382
217.680	16.822	2039.193	2017.816
218.694	16.555	2036.857	2012.068
219.709	16.607	2035.572	2011.178
220.723	16.767	2034.214	2011.506
221.738	16.678	2033.918	2009.917
222.753	16.794	2031.205	2008.374
223.767	16.781	2029.872	2006.657
224.782	16.701	2027.970	2003.594
225.796	16.639	2026.370	2001.032
226.811	16.813	2024.680	2001.194
227.826	16.694	2023.119	1997.999
228.840	16.734	2021.604	1996.734
229.855	16.709	2020.174	1994.781
230.869	16.552	2018.828	1991.362
231.884	16.611	2017.468	1990.479
232.899	16.598	2015.560	1988.203
233.913	16.598	2014.750	1987.164
234.928	16.528	2013.890	1985.251
235.942	16.619	2011.686	1983.919
236.957	16.639	2009.738	1981.988
237.972	16.686	2008.308	1980.901
238.986	16.627	2007.658	1979.332
240.001	16.399	2007.018	1975.779
241.015	16.706	2004.761	1976.926
242.030	17.339	2006.276	1985.608
243.045	19.742	2010.921	2018.207
244.059	19.798	2008.756	2016.448
245.074	17.719	1999.791	1982.923
246.088	16.898	1996.342	1969.684
247.103	16.936	1995.041	1968.608
248.117	16.923	1993.490	1966.689
249.132	16.791	1991.552	1963.008
250.147	16.862	1988.964	1961.048
251.161	16.757	1987.861	1958.509
252.176	16.962	1987.088	1959.890
253.190	17.138	1984.657	1959.298
254.205	17.099	1982.566	1956.554
255.220	17.062	1981.913	1955.242
256.234	16.946	1981.487	1953.250
257.249	16.774	1980.210	1949.760
258.263	16.719	1979.095	1947.790
259.278	16.809	1978.143	1947.659
260.293	16.622	1975.721	1942.884
261.307	16.573	1973.009	1939.426
262.322	16.489	1972.222	1937.457
263.336	16.493	1969.997	1935.074
264.351	16.562	1967.653	1933.340
265.366	16.601	1966.815	1932.728
266.380	16.567	1966.092	1931.400
267.395	16.573	1965.271	1930.428
268.409	16.563	1962.806	1927.660
269.424	16.479	1961.791	1925.475
270.439	16.600	1961.278	1926.129
271.453	17.554	1962.844	1938.347
272.468	19.853	1968.135	1969.684
273.482	20.020	1964.458	1967.680
274.497	17.648	1955.294	1931.273
275.512	16.616	1952.392	1916.435
276.526	16.688	1948.490	1913.195
277.541	16.584	1947.182	1910.503
278.555	16.528	1945.857	1908.330
279.570	16.451	1944.460	1905.862
280.585	16.497	1943.285	1905.001
281.599	16.535	1942.373	1904.306
282.614	16.845	1940.984	1906.227
283.628	16.886	1940.131	1905.627
284.643	16.839	1940.269	1904.998
285.657	17.158	1938.263	1906.399
286.672	17.107	1937.212	1904.567
287.687	17.066	1934.846	1901.553
288.701	16.986	1933.806	1899.400
289.716	16.905	1932.679	1897.153
290.730	17.003	1931.186	1896.558
291.745	17.113	1929.188	1895.614
292.760	17.021	1928.401	1893.579
293.774	16.936	1927.460	1891.474
294.789	16.926	1926.080	1889.784
295.803	16.809	1923.567	1885.776
296.818	16.716	1922.592	1883.562
297.833	16.799	1921.582	1883.268
298.847	16.782	1920.114	1881.421
299.862	16.806	1918.561	1879.938
300.876	17.396	1919.382	1887.098
301.891	20.012	1924.986	1921.592
302.906	20.445	1922.171	1923.376
303.920	17.758	1914.751	1885.890
304.935	16.988	1911.571	1873.992
305.949	16.897	1908.697	1869.939
306.964	16.995	1906.980	1869.118
307.979	16.825	1906.683	1866.720
308.993	17.082	1904.507	1867.210
310.008	17.225	1903.571	1867.645
311.022	17.247	1902.135	1866.252
312.037	17.081	1900.062	1862.166
313.052	17.042	1898.319	1859.807
314.066	17.202	1896.937	1859.992
315.081	17.132	1896.704	1858.775
316.095	17.001	1895.624	1856.048
317.110	16.989	1893.327	1853.448
318.125	17.019	1890.984	1851.258
319.139	16.889	1889.798	1848.452
320.154	16.949	1889.185	1848.285
321.168	16.990	1886.644	1846.035
322.183	16.843	1885.956	1843.535
323.197	16.714	1884.643	1840.615
324.212	16.824	1881.131	1838.167
325.227	16.513	1880.012	1833.460
326.241	16.535	1877.932	1831.459
327.256	16.692	1877.032	1832.071
328.270	16.744	1875.640	1831.057
329.285	16.632	1876.160	1830.118
330.300	17.688	1879.604	1844.753
331.314	20.339	1885.139	1878.844
332.329	20.274	1879.636	1872.428
333.343	17.688	1871.238	1835.882
334.358	16.541	1869.003	1821.062
335.373	16.555	1867.132	1819.179
336.387	16.508	1865.110	1816.483
337.402	16.520	1863.078	1814.411
338.416	16.570	1861.859	1813.552
339.431	16.673	1861.161	1813.764
340.446	16.674	1859.702	1812.136
341.460	16.736	1858.600	1811.511
342.475	17.043	1856.510	1812.555
343.489	17.046	1855.734	1811.608
344.504	16.966	1854.789	1809.613
345.519	17.010	1853.860	1808.954
346.533	17.252	1852.047	1809.563
347.548	17.262	1851.059	1808.490
348.562	17.056	1849.653	1804.693
349.577	17.087	1848.780	1803.962
350.592	17.181	1848.021	1804.006
351.606	17.296	1845.740	1802.788
352.621	17.219	1844.522	1800.562
353.635	16.944	1842.732	1795.681
354.650	16.957	1840.550	1793.470
355.665	16.814	1839.116	1790.346
356.679	16.866	1837.296	1788.908
357.694	16.735	1835.662	1785.710
358.708	16.672	1835.544	1784.715
359.723	17.951	1838.115	1800.572
360.738	20.445	1842.887	1831.490
361.752	19.707	1838.148	1818.755
362.767	17.459	1831.130	1787.889
363.781	16.922	1827.955	1778.914
364.796	16.657	1826.892	1774.873
365.810	16.697	1824.921	1773.167
366.825	16.749	1823.995	1772.601
367.840	16.817	1823.946	1773.057
368.854	16.947	1823.208	1773.490
369.869	16.737	1821.139	1769.065
370.883	16.704	1819.036	1766.465
371.898	16.667	1817.789	1764.654
372.913	16.718	1817.003	1764.214
373.927	16.784	1816.105	1763.822
374.942	16.789	1815.224	1762.809
375.956	16.909	1813.452	1762.129
376.971	16.868	1810.945	1759.056
377.986	16.732	1809.406	1755.926
379.000	16.660	1808.849	1754.433
380.015	16.886	1806.704	1754.490
381.029	16.851	1805.028	1752.290
382.044	16.680	1802.820	1748.158
383.059	16.772	1801.123	1747.261
384.073	16.678	1800.022	1745.005
385.088	16.699	1799.347	1744.364
386.102	16.640	1797.462	1741.718
387.117	16.614	1795.800	1739.632
388.132	16.653	1795.664	1739.688
389.146	17.489	1799.297	1751.651
390.161	20.226	1803.713	1784.078
391.175	20.014	1796.603	1774.651
392.190	17.398	1788.549	1739.630
393.205	16.864	1785.927	1731.386
394.219	16.837	1784.120	1729.152
395.234	16.756	1782.918	1726.946
396.248	16.771	1781.017	1725.052
397.263	16.665	1779.393	1722.189
398.278	16.756	1777.615	1721.199
399.292	16.735	1777.212	1720.389
400.307	16.694	1776.270	1718.848
401.321	16.972	1774.769	1720.024
402.336	16.860	1773.911	1717.848
403.350	16.691	1773.632	1715.653
404.365	16.991	1771.664	1716.590
405.380	17.285	1770.283	1718.033
406.394	17.332	1769.449	1717.495
407.409	17.214	1768.030	1714.713
408.423	17.246	1766.849	1713.692
409.438	17.188	1765.042	1711.148
410.453	17.069	1764.371	1709.081
411.467	17.189	1763.788	1709.532
412.482	16.987	1761.839	1705.397
413.496	16.938	1760.607	1703.509
414.511	16.924	1758.038	1700.675
415.526	16.913	1755.608	1698.005
416.540	16.762	1754.618	1695.329
417.555	16.738	1753.559	1693.862
418.569	16.934	1753.681	1695.742
419.584	16.907	1753.696	1695.287
420.599	16.927	1753.609	1695.205
421.613	16.814	1751.601	1691.925
422.628	16.823	1750.374	1690.628
423.642	16.883	1748.275	1688.993
424.657	16.779	1747.561	1687.068
425.672	16.940	1745.666	1686.646
426.686	16.929	1744.172	1684.888
427.701	16.909	1742.968	1683.320
428.715	17.018	1741.076	1682.383
429.730	17.076	1740.183	1681.893
430.745	17.008	1738.984	1679.855
431.759	17.115	1738.711	1680.457
432.774	17.381	1738.885	1683.073
433.788	17.835	1739.166	1687.650
434.803	17.813	1738.543	1686.632
435.818	17.962	1737.340	1686.733
436.832	17.711	1736.747	1683.465
437.847	16.726	1730.481	1667.452
438.861	9.337	1709.681	1574.716
439.876	1.679	1695.149	1486.193
440.890	0.280	1692.298	1469.805
441.905	0.095	1691.458	1467.085
442.920	0.180	1689.996	1466.473
443.934	0.102	1689.095	1464.757
444.949	0.195	1687.676	1464.257
445.963	0.046	1686.782	1461.852
446.978	0.061	1686.131	1461.261
447.993	0.218	1684.378	1461.095
449.007	0.012	1682.427	1457.225
450.022	0.051	1680.701	1455.935
451.036	0.303	1678.169	1456.010
452.051	1.182	1682.651	1468.281
453.066	8.474	1699.302	1554.108
454.080	15.886	1710.770	1637.094
455.095	17.346	1712.811	1653.128
456.109	17.425	1712.622	1653.515
457.124	17.726	1711.551	1655.220
458.139	17.731	1710.860	1654.403
459.153	17.720	1709.844	1653.122
460.168	17.755	1708.902	1652.352
461.182	17.749	1706.959	1650.211
462.197	17.723	1704.448	1647.338
463.212	17.691	1703.065	1645.495
464.226	17.695	1702.311	1644.603
465.241	17.847	1700.838	1644.457
466.255	17.860	1700.038	1643.611
467.270	17.746	1698.461	1640.791
468.285	17.673	1696.919	1638.401
469.299	17.676	1695.750	1637.103
470.314	17.656	1694.308	1635.323
471.328	17.740	1693.527	1635.178
472.343	17.701	1692.343	1633.473
473.358	17.765	1691.036	1632.629
474.372	17.733	1689.441	1630.586
475.387	17.817	1687.770	1629.585
476.401	17.718	1686.508	1627.215
477.416	17.657	1685.518	1625.483
478.430	17.661	1685.086	1624.908
479.445	17.646	1683.511	1623.055
480.460	17.689	1681.329	1621.168
481.474	17.700	1680.685	1620.454
482.489	17.714	1680.037	1619.770
483.503	17.897	1677.039	1618.431
484.518	17.863	1676.562	1617.458
485.533	17.888	1675.470	1616.450
486.547	17.881	1674.159	1614.917
487.562	17.955	1673.255	1614.560
488.576	17.965	1671.559	1612.823
489.591	17.960	1670.722	1611.773
490.606	17.891	1668.616	1608.893
491.620	17.900	1667.211	1607.436
492.635	18.056	1666.004	1607.556
493.649	18.141	1664.272	1606.492
494.664	17.948	1663.095	1603.345
495.679	17.670	1661.156	1598.666
496.693	17.842	1659.986	1598.965
497.708	17.888	1659.983	1599.207
498.722	17.837	1659.267	1597.846
499.737	18.073	1657.156	1597.836
500.752	17.941	1655.557	1594.868
501.766	17.845	1653.756	1592.037
502.781	17.932	1652.523	1591.480
503.795	17.843	1651.043	1589.029
504.810	18.008	1649.303	1588.703
505.825	18.028	1649.825	1589.206
506.839	17.940	1649.043	1587.441
507.854	17.892	1647.357	1585.176
508.868	17.863	1646.257	1583.656
509.883	17.909	1645.238	1582.917
510.898	18.153	1643.081	1582.927
511.912	18.059	1641.379	1580.222
512.927	18.021	1639.683	1578.048
513.941	17.940	1638.685	1576.142
514.956	17.861	1636.959	1573.564
515.971	17.910	1636.085	1572.991
516.985	17.913	1635.401	1572.168
518.000	17.852	1634.855	1570.889
519.014	18.032	1633.819	1571.372
520.029	17.908	1632.719	1568.987
521.043	18.050	1631.214	1568.663
522.058	18.028	1629.888	1566.997
523.073	17.934	1629.478	1565.543
524.087	18.141	1628.269	1566.099
525.102	18.214	1626.505	1564.885
526.116	17.902	1624.884	1560.280
527.131	17.976	1624.073	1559.994
528.146	18.111	1623.255	1560.256
529.160	18.229	1621.819	1559.774
530.175	18.047	1621.007	1557.140
531.189	18.183	1619.961	1557.191
532.204	18.211	1617.929	1555.304
533.219	18.038	1617.316	1552.950
534.233	17.963	1616.461	1551.258
535.248	17.998	1615.503	1550.473
536.262	18.164	1614.384	1550.726
537.277	18.094	1614.060	1549.596
538.292	18.160	1611.324	1547.383
539.306	18.220	1609.432	1545.919
540.321	18.033	1608.293	1542.950
541.335	18.065	1607.154	1541.960
542.350	18.058	1606.069	1540.674
543.365	18.136	1604.449	1539.639
544.379	18.276	1602.535	1538.883
545.394	18.200	1602.318	1537.800
546.408	18.151	1600.516	1535.448
547.423	17.834	1599.249	1531.193
548.438	17.892	1598.117	1530.449
549.452	17.958	1597.732	1530.484
550.467	17.956	1596.042	1528.669
551.481	17.958	1595.289	1527.780
552.496	18.199	1594.565	1529.068
553.511	18.368	1593.043	1528.944
554.525	18.216	1592.374	1526.756
555.540	18.338	1591.018	1526.363
556.554	18.354	1590.182	1525.529
557.569	18.369	1588.045	1523.427
558.583	18.046	1587.053	1519.405
559.598	18.084	1586.343	1518.881
560.613	18.157	1585.149	1518.211
561.627	18.304	1583.111	1517.386
562.642	18.198	1581.958	1515.152
563.656	18.437	1581.341	1516.515
564.671	18.285	1580.135	1513.819
565.686	18.318	1579.134	1512.974
566.700	18.169	1577.556	1509.961
567.715	18.063	1575.703	1507.063
568.729	18.101	1574.015	1505.608
569.744	17.943	1572.643	1502.718
570.759	17.931	1571.653	1501.484
571.773	18.109	1570.804	1502.066
572.788	18.277	1569.266	1501.895
573.802	18.284	1567.955	1500.527
574.817	18.203	1567.598	1499.290
575.832	18.420	1565.763	1499.260
576.846	18.497	1564.112	1498.184
577.861	18.235	1563.263	1494.889
578.875	18.360	1562.855	1495.415
579.890	18.403	1562.275	1495.057
580.905	18.470	1561.250	1494.490
581.919	18.511	1560.801	1494.235
582.934	18.506	1558.858	1492.153
583.948	18.569	1557.634	1491.355
584.963	18.510	1556.190	1489.279
585.978	18.185	1555.537	1485.636
586.992	18.293	1555.181	1486.061
588.007	18.461	1553.708	1485.946
589.021	18.315	1552.283	1483.127
590.036	18.194	1550.547	1480.239
591.051	18.281	1549.284	1479.616
592.065	18.422	1548.121	1479.547
593.080	18.476	1546.472	1478.270
594.094	18.350	1545.363	1475.934
595.109	18.213	1543.356	1472.657
596.123	18.258	1541.665	1471.254
597.138	18.043	1541.436	1469.009
598.153	18.408	1540.490	1471.081
599.167	18.490	1538.248	1469.472
600.182	18.466	1537.666	1468.528
601.196	18.443	1537.051	1467.570
602.211	18.421	1536.068	1466.263
603.226	18.443	1534.774	1465.042
604.240	18.598	1533.244	1464.739
605.255	18.632	1532.280	1463.932
606.269	18.636	1531.617	1463.160
607.284	18.428	1530.123	1459.776
608.299	18.534	1528.707	1459.157
609.313	18.372	1527.337	1456.287
610.328	18.430	1526.822	1456.117
611.342	18.500	1525.420	1455.208
612.357	18.666	1524.098	1455.182
613.372	18.607	1522.614	1453.093
614.386	18.605	1521.886	1452.206
615.401	18.600	1521.201	1451.340
616.415	18.551	1521.069	1450.620
617.430	18.626	1519.945	1450.014
618.445	18.703	1518.769	1449.372
619.459	18.671	1517.131	1447.358
620.474	18.566	1516.116	1445.332
621.488	18.192	1514.580	1440.527
622.503	18.110	1513.256	1438.404
623.518	18.214	1513.173	1439.029
624.532	18.481	1511.706	1439.723
625.547	18.571	1510.284	1438.951
626.561	18.654	1510.130	1439.334
627.576	18.712	1509.068	1438.635
628.591	18.587	1507.093	1435.527
629.605	18.263	1505.804	1431.409
630.620	18.231	1503.705	1428.973
631.634	18.194	1502.651	1427.487
632.649	18.230	1501.625	1426.643
633.663	18.297	1501.287	1426.715
634.678	18.532	1500.321	1427.595
635.693	18.714	1498.209	1426.932
636.707	18.858	1497.251	1427.054
637.722	18.950	1496.414	1426.848
638.736	18.877	1495.484	1425.182
639.751	18.797	1493.944	1422.877
640.766	19.040	1492.879	1423.719
641.780	18.921	1491.681	1421.412
642.795	18.799	1491.280	1419.846
643.809	18.871	1489.927	1418.991
644.824	18.792	1489.299	1417.562
645.839	18.841	1488.493	1417.037
646.853	18.818	1486.998	1415.254
647.868	18.864	1485.279	1413.826
648.882	18.707	1484.406	1411.530
649.897	18.658	1483.148	1409.761
650.912	18.743	1481.442	1408.669
651.926	18.753	1480.252	1407.450
652.941	18.578	1479.031	1404.686
653.955	18.518	1477.276	1402.354
654.970	18.332	1475.633	1399.096
655.985	18.396	1474.328	1398.221
656.999	18.359	1474.131	1397.563
658.014	18.610	1472.356	1397.767
659.028	18.635	1471.280	1396.786
660.043	18.691	1471.235	1397.035
661.058	18.797	1470.084	1396.637
662.072	18.777	1468.686	1394.976
663.087	18.867	1467.841	1394.746
664.101	18.670	1466.865	1392.041
665.116	18.873	1465.413	1392.153
666.131	18.982	1464.817	1392.306
667.145	18.743	1463.908	1389.332
668.160	18.748	1464.015	1389.307
669.174	18.903	1462.169	1388.649
670.189	18.878	1460.000	1386.221
671.204	18.851	1459.506	1385.367
672.218	18.851	1458.603	1384.342
673.233	19.074	1457.468	1384.907
674.247	19.193	1456.034	1384.337
675.262	18.976	1455.372	1381.789
676.276	18.893	1454.732	1380.344
677.291	18.990	1452.804	1379.135
678.306	18.737	1451.215	1375.424
679.320	18.796	1450.575	1375.124
680.335	18.977	1450.211	1376.070
681.349	18.998	1449.954	1375.830
682.364	19.003	1448.103	1373.949
683.379	18.858	1447.434	1371.992
684.393	19.060	1445.381	1371.498
685.408	19.021	1444.824	1370.495
686.422	18.877	1443.423	1367.851
687.437	18.809	1443.830	1367.525
688.452	18.979	1442.609	1367.562
689.466	18.933	1440.337	1364.877
690.481	18.969	1438.795	1363.541
691.495	18.598	1438.731	1360.364
692.510	18.490	1437.299	1357.981
693.525	18.379	1434.909	1354.682
694.539	18.357	1434.666	1354.118
695.554	18.717	1434.681	1356.824
696.568	18.774	1434.455	1356.904
697.583	19.031	1432.851	1357.265
698.598	19.001	1432.003	1356.059
699.612	19.183	1430.205	1355.634
700.627	19.154	1428.862	1353.972
701.641	19.069	1428.189	1352.499
702.656	19.065	1427.487	1351.644
703.671	19.017	1427.215	1350.838
704.685	19.239	1425.626	1350.924
705.700	19.175	1424.307	1349.007
706.714	19.094	1422.939	1346.916
707.729	18.934	1421.383	1344.027
708.744	18.775	1420.572	1341.850
709.758	18.814	1419.492	1340.977
710.773	18.677	1418.431	1338.741
711.787	18.785	1416.607	1337.703
712.802	18.780	1414.958	1335.947
713.816	18.960	1414.751	1336.993
714.831	19.079	1413.469	1336.551
715.846	19.167	1411.953	1335.645
716.860	19.324	1410.323	1335.168
717.875	19.222	1409.841	1333.758
718.889	19.135	1408.902	1332.033
719.904	19.168	1408.574	1331.820
720.919	19.084	1407.954	1330.423
721.933	19.170	1407.053	1330.076
722.948	19.256	1406.261	1329.836
723.962	19.289	1404.200	1327.985
724.977	19.392	1403.333	1327.805
725.992	19.239	1402.298	1325.484
727.006	19.297	1401.003	1324.545
728.021	19.316	1399.528	1323.140
729.035	19.266	1399.007	1322.102
730.050	19.193	1397.476	1319.935
731.065	19.144	1396.690	1318.656
732.079	19.104	1396.609	1318.121
733.094	19.130	1395.149	1316.779
734.108	19.320	1392.719	1315.790
735.123	19.284	1391.433	1314.143
736.138	19.214	1390.649	1312.709
737.152	19.219	1389.829	1311.810
738.167	19.283	1389.056	1311.413
739.181	19.303	1388.780	1311.152
740.196	19.321	1387.585	1310.002
741.211	19.299	1386.222	1308.392
742.225	19.186	1385.226	1306.430
743.240	19.240	1383.345	1304.918
744.254	19.274	1382.329	1304.062
745.269	19.346	1381.406	1303.578
746.284	19.157	1380.980	1301.583
747.298	19.036	1379.745	1299.346
748.313	18.700	1378.787	1295.742
749.327	18.583	1377.330	1293.332
750.342	18.498	1376.260	1291.527
751.356	18.291	1374.576	1288.221
752.371	18.506	1373.831	1289.001
753.386	18.856	1373.893	1291.543
754.400	19.222	1372.965	1293.280
755.415	19.329	1372.096	1293.112
756.429	19.342	1370.773	1291.809
757.444	19.231	1369.648	1289.761
758.459	19.421	1368.294	1289.763
759.473	19.538	1367.583	1289.812
760.488	19.463	1366.540	1288.111
761.502	19.442	1365.368	1286.698
762.517	19.424	1364.119	1285.233
763.532	19.335	1362.749	1283.122
764.546	19.258	1361.408	1281.132
765.561	19.190	1360.151	1279.281
766.575	18.779	1358.986	1274.974
767.590	18.794	1358.254	1274.245
768.605	18.925	1357.285	1274.155
769.619	18.981	1356.396	1273.591
770.634	19.152	1354.803	1273.213
771.648	19.328	1354.651	1274.223
772.663	19.368	1354.332	1274.068
773.678	19.489	1353.397	1273.936
774.692	19.306	1353.082	1272.127
775.707	19.393	1352.717	1272.277
776.721	19.596	1350.734	1271.762
777.736	19.397	1349.534	1269.008
778.751	19.540	1348.549	1268.989
779.765	19.517	1347.497	1267.674
780.780	19.459	1347.106	1266.728
781.794	19.372	1346.111	1265.001
782.809	19.383	1344.255	1263.183
783.824	19.204	1343.978	1261.457
784.838	18.945	1342.217	1257.749
785.853	18.613	1340.798	1253.824
786.867	18.644	1340.285	1253.428
787.882	18.900	1339.805	1254.706
788.897	19.065	1339.224	1255.221
789.911	19.201	1338.237	1255.142
790.926	19.221	1336.989	1253.964
791.940	19.284	1336.039	1253.388
792.955	19.118	1334.666	1250.738
793.969	19.403	1333.529	1251.599
794.984	19.346	1333.310	1250.828
795.999	19.454	1332.030	1250.268
797.013	19.630	1329.924	1249.420
798.028	19.600	1328.414	1247.631
799.042	19.392	1328.432	1245.992
800.057	19.491	1327.603	1245.783
801.072	19.540	1326.302	1244.768
802.086	19.495	1324.695	1242.787
803.101	19.678	1323.666	1242.996
804.115	19.662	1323.023	1242.127
805.130	19.564	1321.925	1240.239
806.145	19.554	1320.671	1238.838
807.159	19.562	1319.216	1237.387
808.174	19.446	1317.992	1235.254
809.188	19.537	1316.589	1234.445
810.203	19.198	1315.244	1230.601
811.218	19.220	1313.290	1228.785
812.232	19.064	1311.812	1226.137
813.247	18.997	1311.151	1224.894
814.261	19.180	1310.941	1225.857
815.276	19.394	1310.685	1227.004
816.291	19.473	1309.703	1226.502
817.305	19.601	1308.117	1225.782
818.320	19.582	1306.692	1224.166
819.334	19.531	1305.378	1222.425
820.349	19.556	1304.706	1221.826
821.364	19.593	1303.141	1220.481
822.378	19.620	1302.042	1219.495
823.393	19.478	1300.235	1216.648
824.407	19.577	1299.263	1216.295
825.422	19.455	1298.808	1214.864
826.437	19.382	1297.897	1213.348
827.451	19.294	1295.881	1210.694
828.466	18.893	1294.176	1206.129
829.480	18.821	1291.740	1203.207
830.495	18.947	1290.754	1203.036
831.509	19.237	1290.427	1204.623
832.524	19.326	1289.800	1204.522
833.539	19.324	1288.977	1203.589
834.553	19.642	1287.988	1204.754
835.568	19.627	1286.217	1202.850
836.582	19.657	1285.277	1202.037
837.597	19.612	1284.176	1200.547
838.612	19.486	1283.242	1198.649
839.626	19.561	1282.169	1198.031
840.641	19.240	1281.414	1194.940
841.655	19.170	1280.511	1193.472
842.670	19.048	1278.799	1190.882
843.685	18.869	1277.194	1187.999
844.699	19.078	1276.209	1188.392
845.714	19.392	1275.011	1189.309
846.728	19.639	1274.393	1190.305
847.743	19.593	1273.566	1189.069
848.758	19.664	1272.310	1188.244
849.772	19.723	1271.251	1187.522
850.787	19.643	1269.882	1185.552
851.801	19.615	1269.126	1184.510
852.816	19.439	1268.340	1182.424
853.831	19.440	1266.266	1180.353
854.845	19.318	1264.361	1177.597
855.860	19.289	1263.173	1176.155
856.874	19.328	1261.472	1174.696
857.889	19.194	1260.404	1172.644
858.904	18.910	1258.741	1169.013
859.918	18.784	1257.064	1166.458
860.933	18.796	1255.337	1164.794
861.947	18.912	1255.333	1165.445
862.962	19.057	1254.469	1165.488
863.977	19.137	1253.426	1164.924
864.991	19.508	1252.239	1166.205
866.006	19.553	1252.476	1166.591
867.020	19.378	1251.610	1164.456
868.035	19.387	1250.456	1163.304
869.049	19.625	1249.377	1163.772
870.064	19.561	1248.701	1162.570
871.079	19.569	1248.298	1162.108
872.093	19.657	1247.378	1161.710
873.108	19.751	1245.574	1160.522
874.122	19.404	1244.334	1156.892
875.137	19.341	1243.391	1155.454
876.152	19.265	1242.729	1154.187
877.166	19.408	1241.050	1153.448
878.181	19.493	1240.167	1153.061
879.195	19.623	1240.178	1153.806
880.210	19.705	1239.025	1153.148
881.225	19.604	1237.981	1151.358
882.239	19.602	1236.845	1150.152
883.254	19.795	1235.650	1150.192
884.268	19.672	1234.741	1148.388
885.283	19.946	1233.701	1149.111
886.298	19.954	1231.706	1147.170
887.312	19.747	1231.210	1145.191
888.327	19.702	1230.342	1143.950
889.341	19.795	1228.675	1142.883
890.356	19.594	1228.528	1141.273
891.371	19.524	1228.401	1140.550
892.385	19.525	1227.384	1139.474
893.400	19.570	1226.349	1138.678
894.414	19.355	1224.636	1135.528
895.429	19.300	1222.363	1132.922
896.444	18.857	1220.671	1128.292
897.458	18.620	1219.705	1125.701
898.473	18.882	1219.583	1127.186
899.487	19.319	1218.482	1128.905
900.502	19.476	1217.772	1129.152
901.517	19.583	1216.725	1128.746
902.531	19.687	1216.273	1128.877
903.546	19.730	1215.944	1128.715
904.560	19.750	1215.009	1127.844
905.575	19.743	1214.463	1127.154
906.589	19.702	1213.727	1126.071
907.604	19.771	1212.567	1125.312
