DTS Sentinel unit serial number:	SN409020Multiplexer serial number:	ORYXHardware model number:	OX4-SRSoftware version number:	ORYX F/W v3.00 Oryx Data Collector v3.7.2.0data status	okinstallation	HaddamTimeLapsedifferential loss correction	single-endedforward channel	channel 3reverse channel	N/Adate	2011/06/21time	18:26:17forward acquisition time	30.00reverse acquisition time	0.00gamma	498.7831k internal	0.1820k external	0.1820temperature offset calibration	1.0074default loss term (dB/km)	0.3790temperature slope calibration	1.3530multiplexer offset coefficient	1.0000multiplexer slope coefficient	1.0000fibre end	0.00T internal ref (°C)	36.19T ext. ref 1 (°C)	27.44T ext. ref 2 (°C)	0.26length (m)	temperature (°C)	Stokes	anti-Stokes-747.200	77.293	0.145	-0.197
-746.185	29.462	-0.486	0.528
-745.171	61.496	-0.106	-0.135
-744.156	-199.246	-0.240	0.002
-743.142	-25.046	-0.156	0.118
-742.127	-200.000	-0.097	0.742
-741.112	312.363	-0.110	-0.265
-740.098	6.515	0.289	-0.274
-739.083	-17.457	0.343	0.276
-738.069	-200.000	0.056	0.459
-737.054	256.903	-0.144	-0.318
-736.039	-18.834	0.194	0.154
-735.025	18.431	0.031	0.032
-734.010	-124.307	0.365	0.072
-732.996	183.994	0.155	0.294
-731.981	527.699	-0.109	0.330
-730.966	-105.870	-0.633	-0.181
-729.952	-91.901	0.348	0.125
-728.937	101.209	-0.031	0.047
-727.923	-181.783	-0.238	0.006
-726.908	-32.921	0.399	-0.282
-725.894	151.095	0.082	-0.143
-724.879	106.896	0.091	-0.139
-723.864	-27.058	0.150	-0.112
-722.850	-115.337	-0.203	-0.049
-721.835	800.000	0.060	0.290
-720.821	-23.413	-0.035	0.027
-719.806	-10.306	-0.190	-0.161
-718.791	374.523	0.141	-0.367
-717.777	53.482	-0.321	0.393
-716.762	-200.000	0.034	0.425
-715.748	-124.428	0.120	-0.024
-714.733	800.000	0.077	0.317
-713.718	-200.000	0.005	-0.124
-712.704	-47.387	0.269	0.167
-711.689	357.239	-0.030	-0.077
-710.675	-200.000	-0.014	0.266
-709.660	144.047	0.043	-0.073
-708.645	-111.285	0.557	-0.144
-707.631	800.000	0.073	-0.372
-706.616	-200.000	0.006	0.052
-705.602	-183.934	-0.558	-0.012
-704.587	-74.745	-0.417	-0.190
-703.572	309.976	0.056	0.134
-702.558	638.386	0.067	0.218
-701.543	-161.267	-0.458	0.030
-700.529	43.659	-0.085	-0.099
-699.514	-83.748	0.284	-0.115
-698.499	-200.000	-0.015	0.236
-697.485	218.332	-0.055	-0.111
-696.470	-22.150	0.505	0.390
-695.456	109.751	-0.214	-0.328
-694.441	684.864	0.024	0.079
-693.426	-127.762	-0.045	-0.008
-692.412	-65.384	0.185	0.094
-691.397	-94.728	-0.336	-0.116
-690.383	800.000	0.101	-0.376
-689.368	-200.000	0.009	0.321
-688.354	-200.000	-0.006	0.130
-687.339	-155.112	-0.343	0.028
-686.324	-7.411	-0.221	0.191
-685.310	-200.000	-0.010	-0.301
-684.295	-38.180	-0.321	-0.216
-683.281	-10.443	0.302	-0.255
-682.266	301.193	-0.062	-0.146
-681.251	-200.000	0.063	-0.468
-680.237	-158.331	0.576	0.042
-679.222	-114.651	-0.045	-0.011
-678.208	28.119	0.477	-0.513
-677.193	-148.269	0.685	0.071
-676.178	-121.690	0.275	-0.058
-675.164	-3.277	0.288	0.256
-674.149	117.543	0.029	0.045
-673.135	-17.054	-0.240	0.192
-672.120	3.025	0.309	0.286
-671.105	442.660	-0.165	-0.463
-670.091	98.875	-0.153	0.225
-669.076	-76.082	-0.459	-0.206
-668.062	76.913	-0.161	-0.218
-667.047	-200.000	-0.034	-0.318
-666.032	-200.000	0.020	-0.477
-665.018	-200.000	-0.008	-0.512
-664.003	-200.000	-0.018	-0.326
-662.989	800.000	-0.113	0.457
-661.974	55.643	-0.044	0.054
-660.959	800.000	0.137	-0.533
-659.945	105.917	0.188	0.283
-658.930	-200.000	-0.007	0.050
-657.916	-152.483	-0.158	0.014
-656.901	-200.000	0.007	0.038
-655.886	-36.106	0.174	-0.119
-654.872	186.652	0.134	-0.255
-653.857	-200.000	-0.014	-0.150
-652.843	159.833	0.122	-0.218
-651.828	-200.000	0.017	-0.365
-650.814	-112.913	-0.234	0.059
-649.799	-81.073	-0.098	0.041
-648.784	760.832	-0.085	-0.294
-647.770	-200.000	0.003	-0.189
-646.755	134.214	-0.068	0.113
-645.741	-200.000	-0.040	-0.417
-644.726	156.853	-0.079	-0.140
-643.711	-170.936	0.294	-0.013
-642.697	-85.843	-0.380	-0.149
-641.682	-37.685	0.263	0.178
-640.668	-200.000	0.068	-0.407
-639.653	-200.000	0.080	-0.473
-638.638	110.313	0.293	-0.448
-637.624	-141.958	0.376	-0.047
-636.609	-80.018	0.357	0.152
-635.595	-146.483	-0.611	0.067
-634.580	800.000	-0.020	-0.078
-633.565	13.904	0.164	-0.162
-632.551	-12.331	0.251	0.209
-631.536	42.551	0.030	-0.034
-630.522	-184.611	-0.169	0.003
-629.507	265.823	0.386	-0.860
-628.492	105.597	0.337	-0.508
-627.478	800.000	0.069	-0.259
-626.463	-95.070	-0.307	-0.105
-625.449	66.002	0.049	0.063
-624.434	157.413	-0.109	0.192
-623.419	-49.787	0.229	0.138
-622.405	403.515	0.163	0.439
-621.390	-13.394	-0.074	0.061
-620.376	800.000	-0.033	-0.140
-619.361	-15.555	-0.232	0.188
-618.346	-21.568	0.125	0.097
-617.332	-200.000	-0.130	-0.769
-616.317	-5.683	0.370	-0.322
-615.303	129.114	-0.250	-0.406
-614.288	-200.000	0.005	-0.398
-613.273	-131.504	-0.451	-0.075
-612.259	-200.000	0.012	-0.140
-611.244	800.000	0.119	-0.425
-610.230	800.000	0.135	0.479
-609.215	39.595	-0.235	0.267
-608.201	636.003	0.053	-0.171
-607.186	-200.000	-0.007	0.237
-606.171	15.771	-0.115	0.115
-605.157	-124.779	0.160	0.031
-604.142	254.013	-0.063	0.136
-603.128	-81.476	-0.234	0.097
-602.113	-148.634	0.481	0.049
-601.098	-92.685	0.271	0.096
-600.084	800.000	-0.022	-0.082
-599.069	-200.000	-0.022	-0.379
-598.055	800.000	0.121	-0.578
-597.040	-200.000	-0.024	-0.134
-596.025	-21.447	0.208	-0.161
-595.011	-66.728	0.188	0.094
-593.996	572.986	0.142	-0.443
-592.982	-115.671	-0.392	-0.093
-591.967	140.627	0.080	-0.135
-590.952	566.245	0.163	-0.505
-589.938	-2.958	0.224	-0.198
-588.923	-26.183	-0.071	0.053
-587.909	426.636	-0.145	0.399
-586.894	309.741	0.151	0.360
-585.879	507.681	-0.163	0.483
-584.865	-48.121	-0.146	-0.089
-583.850	37.110	0.291	0.327
-582.836	-109.991	-0.029	0.008
-581.821	-121.849	0.209	-0.043
-580.806	118.434	0.107	0.168
-579.792	-94.548	-0.280	-0.096
-578.777	-184.363	-0.374	-0.008
-577.763	-95.747	0.293	-0.099
-576.748	-200.000	-0.003	0.316
-575.733	267.488	0.138	-0.309
-574.719	-31.385	-0.013	-0.009
-573.704	-24.557	-0.200	-0.151
-572.690	-90.727	0.381	-0.139
-571.675	219.703	-0.120	-0.244
-570.661	800.000	-0.175	-0.786
-569.646	9.254	-0.276	-0.265
-568.631	-200.000	0.039	-0.262
-567.617	-129.646	-0.339	0.059
-566.602	-128.931	-0.471	-0.083
-565.588	39.885	-0.169	-0.192
-564.573	127.005	0.076	-0.123
-563.558	-40.055	-0.244	-0.161
-562.544	57.389	-0.182	0.226
-561.529	-200.000	-0.062	-0.550
-560.515	87.910	0.193	0.272
-559.500	-73.444	-0.345	0.159
-558.485	-78.941	-0.462	0.199
-557.471	-200.000	0.033	0.235
-556.456	-134.983	-0.433	-0.066
-555.442	-200.000	-0.032	0.460
-554.427	68.254	-0.201	0.261
-553.412	43.349	-0.225	-0.260
-552.398	800.000	-0.082	-0.319
-551.383	142.419	0.073	-0.123
-550.369	-91.184	-0.081	-0.029
-549.354	-23.821	-0.417	0.316
-548.339	59.692	-0.295	0.369
-547.325	-71.047	-0.523	0.248
-546.310	-200.000	0.008	0.262
-545.296	-200.000	-0.019	0.186
-544.281	431.636	0.091	-0.250
-543.266	53.723	-0.198	0.241
-542.252	-119.158	-0.036	0.008
-541.237	112.340	-0.107	0.164
-540.223	-200.000	0.044	0.245
-539.208	31.417	0.121	0.132
-538.193	-200.000	-0.449	0.002
-537.179	47.283	-0.101	0.120
-536.164	800.000	-0.122	0.508
-535.150	291.102	-0.116	0.268
-534.135	-200.000	0.061	0.487
-533.121	-14.925	-0.221	-0.179
-532.106	161.755	-0.157	-0.280
-531.091	-71.340	0.320	0.151
-530.077	-25.469	0.445	-0.333
-529.062	-128.225	0.152	0.027
-528.048	-8.290	-0.384	0.327
-527.033	-101.662	-0.391	0.119
-526.018	220.476	-0.034	-0.069
-525.004	82.079	0.112	-0.154
-523.989	-57.546	-0.083	0.046
-522.975	-25.406	-0.081	0.060
-521.960	84.801	-0.256	-0.356
-520.945	-200.000	-0.106	0.749
-519.931	140.143	-0.248	0.415
-518.916	220.218	-0.202	-0.411
-517.902	-108.287	-0.047	-0.013
-516.887	-55.266	-0.038	-0.021
-515.872	800.000	-0.139	0.609
-514.858	473.299	0.142	-0.407
-513.843	-200.000	0.039	-0.246
-512.829	-200.000	-0.006	-0.064
-511.814	37.296	-0.178	-0.200
-510.799	800.000	-0.191	0.754
-509.785	800.000	-0.082	0.293
-508.770	126.821	-0.054	0.087
-507.756	745.325	-0.163	-0.559
-506.741	-23.246	-0.319	-0.242
-505.726	-200.000	-0.021	-0.225
-504.712	451.876	-0.101	0.284
-503.697	254.778	0.390	0.849
-502.683	800.000	-0.128	-0.490
-501.668	-200.000	0.049	-0.489
-500.653	-69.663	-0.302	-0.145
-499.639	70.441	0.203	-0.266
-498.624	-156.130	0.682	-0.054
-497.610	800.000	-0.061	-0.256
-496.595	159.746	-0.070	-0.125
-495.581	166.015	-0.228	-0.410
-494.566	-54.527	-0.284	-0.162
-493.551	800.000	-0.132	0.561
-492.537	-62.389	0.172	0.090
-491.522	800.000	-0.085	0.334
-490.508	9.797	0.038	0.036
-489.493	63.294	0.133	0.169
-488.478	-96.648	-0.138	0.046
-487.464	-69.054	-0.118	0.057
-486.449	-35.793	0.090	-0.062
-485.435	317.687	0.117	-0.280
-484.420	89.999	-0.196	0.277
-483.405	20.183	0.173	0.176
-482.391	-46.557	0.145	0.090
-481.376	-24.366	0.237	0.178
-480.362	-200.000	-0.087	-0.585
-479.347	-86.567	-0.367	0.142
-478.332	-77.029	-0.265	0.116
-477.318	-85.733	-0.433	-0.169
-476.303	302.309	-0.108	0.253
-475.289	-179.709	0.519	0.014
-474.274	-148.214	-0.374	-0.039
-473.259	-83.253	0.213	0.086
-472.245	-72.593	0.311	-0.145
-471.230	466.949	0.100	-0.285
-470.216	-134.817	0.196	0.030
-469.201	146.105	-0.168	-0.286
-468.186	5.269	-0.422	-0.393
-467.172	800.000	0.058	-0.284
-466.157	10.724	0.277	-0.267
-465.143	-136.450	0.439	0.064
-464.128	11.447	0.299	-0.289
-463.113	-73.214	-0.134	-0.062
-462.099	31.825	0.361	0.393
-461.084	-200.000	-0.092	0.658
-460.070	228.202	-0.090	0.186
-459.055	-193.370	0.348	0.004
-458.040	13.633	-0.144	-0.142
-457.026	89.330	0.445	-0.627
-456.011	-6.471	0.467	-0.402
-454.997	-32.943	-0.285	-0.200
-453.982	800.000	-0.129	0.469
-452.968	66.110	-0.216	0.277
-451.953	209.219	-0.052	-0.104
-450.938	-33.420	-0.519	-0.362
-449.924	800.000	-0.098	-0.469
-448.909	-88.390	-0.358	-0.134
-447.895	48.854	0.325	-0.386
-446.880	-87.769	-0.165	-0.063
-445.865	-110.945	0.319	0.082
-444.851	-28.995	-0.302	0.219
-443.836	-109.183	-0.416	0.111
-442.822	-132.554	-0.046	0.007
-441.807	-123.375	-0.274	-0.055
-440.792	-28.004	0.196	-0.143
-439.778	88.120	-0.118	0.165
-438.763	-32.693	-0.167	0.117
-437.749	-200.000	-0.002	-0.013
-436.734	-67.084	0.554	-0.275
-435.719	13.779	0.205	-0.201
-434.705	280.600	-0.133	-0.302
-433.690	800.000	-0.086	-0.309
-432.676	-40.586	0.209	-0.137
-431.661	15.473	-0.260	0.258
-430.646	-14.646	-0.084	0.068
-429.632	8.801	-0.439	0.418
-428.617	78.003	-0.161	0.217
-427.603	-42.498	0.306	0.196
-426.588	188.085	-0.087	-0.164
-425.573	-107.924	-0.242	-0.066
-424.559	-66.295	0.198	-0.099
-423.544	-114.980	-0.427	-0.102
-422.530	-130.675	-0.181	-0.031
-421.515	-109.620	-0.442	-0.117
-420.500	489.886	-0.091	0.263
-419.486	347.817	-0.160	0.399
-418.471	-62.608	-0.304	0.158
-417.457	-94.782	0.409	0.139
-416.442	-69.473	-0.440	0.212
-415.428	-142.024	0.280	-0.035
-414.413	-60.419	0.204	-0.109
-413.398	31.719	0.093	-0.101
-412.384	-46.058	0.373	0.231
-411.369	414.884	-0.192	0.518
-410.355	278.252	0.158	0.357
-409.340	-120.666	0.292	0.062
-408.325	-200.000	-0.023	0.345
-407.311	-3.292	-0.108	0.095
-406.296	228.535	0.217	0.447
-405.282	-56.876	0.218	0.121
-404.267	160.375	0.247	-0.436
-403.252	-148.435	-0.066	0.007
-402.238	-113.469	-0.123	0.030
-401.223	407.218	0.105	0.282
-400.209	-82.176	0.328	-0.134
-399.194	800.000	-0.022	0.103
-398.179	770.601	0.074	-0.255
-397.165	371.750	-0.067	0.171
-396.150	-131.933	0.390	-0.064
-395.136	800.000	-0.077	-0.414
-394.121	36.120	-0.143	-0.159
-393.106	-137.104	-0.205	-0.029
-392.092	598.392	-0.039	0.124
-391.077	297.358	-0.154	-0.357
-390.063	-200.000	0.011	-0.082
-389.048	114.724	-0.135	-0.208
-388.033	10.322	0.124	0.119
-387.019	-110.280	-0.305	0.079
-386.004	-51.543	0.139	0.082
-384.990	-30.117	0.523	-0.374
-383.975	-200.000	0.035	-0.374
-382.960	656.812	0.111	0.363
-381.946	464.240	-0.168	0.474
-380.931	-70.211	-0.566	0.270
-379.917	-55.898	-0.226	0.127
-378.902	-160.898	-0.124	-0.008
-377.888	-10.167	0.222	-0.185
-376.873	-1.793	-0.119	-0.106
-375.858	574.215	0.060	-0.185
-374.844	-200.000	-0.050	-0.419
-373.829	800.000	0.056	-0.210
-372.815	-19.167	-0.101	-0.079
-371.800	-200.000	0.011	-0.263
-370.785	-107.486	0.216	0.059
-369.771	-200.000	0.086	0.575
-368.756	-200.000	-0.024	0.221
-367.742	-200.000	-0.012	0.317
-366.727	773.550	0.113	-0.392
-365.712	11.506	0.483	0.466
-364.698	41.402	0.215	0.246
-363.683	115.542	0.397	0.612
-362.669	-200.000	-0.058	0.326
-361.654	-200.000	0.013	0.089
-360.639	800.000	-0.054	-0.271
-359.625	-18.278	0.235	-0.185
-358.610	-13.591	0.220	0.179
-357.596	4.051	0.332	0.306
-356.581	68.787	-0.157	-0.203
-355.566	462.699	-0.074	0.208
-354.552	-200.000	0.169	0.000
-353.537	198.231	-0.054	0.104
-352.523	-42.825	-0.520	0.332
-351.508	-57.305	-0.099	0.055
-350.493	-37.734	0.224	-0.150
-349.479	-200.000	0.003	-0.060
-348.464	800.000	0.036	-0.165
-347.450	-56.885	0.332	-0.184
-346.435	103.556	0.141	-0.209
-345.420	-200.000	-0.048	-0.616
-344.406	250.079	0.090	0.194
-343.391	-107.050	0.348	0.096
-342.377	800.000	-0.194	0.911
-341.362	9.485	-0.472	-0.450
-340.348	-94.108	-0.311	-0.107
-339.333	205.756	0.121	0.237
-338.318	-154.573	0.806	-0.067
-337.304	635.597	-0.040	-0.128
-336.289	-200.000	0.001	-0.052
-335.275	190.181	0.036	0.068
-334.260	-200.000	0.049	0.456
-333.245	-77.331	-0.439	0.191
-332.231	-200.000	-0.017	-0.188
-331.216	-200.000	0.043	-0.255
-330.202	-95.766	0.365	0.122
-329.187	-42.407	-0.507	-0.325
-328.172	547.553	-0.118	0.358
-327.158	800.000	0.026	0.123
-326.143	-117.191	-0.332	0.075
-325.129	800.000	0.025	-0.128
-324.114	257.433	-0.089	-0.194
-323.099	-29.845	-0.330	-0.236
-322.085	-77.136	0.098	-0.043
-321.070	800.000	0.065	0.343
-320.056	272.838	0.117	-0.261
-319.041	-27.697	-0.249	-0.182
-318.026	33.279	0.095	-0.104
-317.012	212.625	0.030	0.060
-315.997	-190.062	0.128	0.002
-314.983	448.894	-0.047	-0.132
-313.968	-200.000	-0.012	-0.540
-312.953	634.096	-0.084	-0.268
-311.939	-53.434	-0.156	0.089
-310.924	309.939	0.176	-0.415
-309.910	-150.707	-0.139	0.013
-308.895	437.624	-0.085	0.234
-307.880	-35.468	0.131	-0.089
-306.866	-72.669	0.098	-0.045
-305.851	233.434	0.346	0.718
-304.837	-136.479	-0.294	0.042
-303.822	106.284	-0.200	0.298
-302.807	-87.921	0.241	-0.090
-301.793	151.415	0.048	-0.083
-300.778	800.000	-0.031	0.112
-299.764	-54.247	0.183	-0.104
-298.749	551.497	-0.075	0.227
-297.735	15.244	-0.186	-0.183
-296.720	9.371	-0.204	0.194
-295.705	-130.624	-0.417	0.070
-294.691	-42.036	0.167	-0.107
-293.676	-65.567	0.096	0.048
-292.662	60.825	0.047	0.059
-291.647	-27.022	0.113	0.083
-290.632	3.696	-0.134	-0.123
-289.618	-153.609	-0.150	0.013
-288.603	151.105	0.021	-0.037
-287.589	261.789	0.175	-0.383
-286.574	-22.879	0.145	0.109
-285.559	800.000	0.110	0.598
-284.545	-116.209	0.214	0.049
-283.530	111.013	-0.405	-0.613
-282.516	580.647	0.095	0.293
-281.501	18.560	-0.132	0.133
-280.486	639.807	0.094	-0.302
-279.472	541.728	-0.108	0.323
-278.457	-154.660	0.119	-0.010
-277.443	-148.234	-0.025	0.003
-276.428	174.388	0.283	0.516
-275.413	96.844	-0.251	0.361
-274.399	-200.000	-0.012	0.120
-273.384	-200.000	-0.007	0.184
-272.370	107.735	-0.177	0.264
-271.355	282.940	-0.099	-0.223
-270.340	-175.715	0.220	-0.007
-269.326	92.061	-0.108	0.153
-268.311	-200.000	0.006	-0.150
-267.297	800.000	-0.124	-0.506
-266.282	-200.000	0.012	-0.241
-265.267	84.095	0.160	0.220
-264.253	54.308	-0.187	-0.226
-263.238	-200.000	0.022	-0.553
-262.224	192.033	0.179	-0.340
-261.209	323.238	-0.217	-0.522
-260.195	-123.195	-0.321	0.064
-259.180	58.491	0.244	0.301
-258.165	61.306	-0.355	0.443
-257.151	-124.741	-0.200	0.038
-256.136	502.558	-0.056	0.164
-255.122	-24.775	0.333	-0.247
-254.107	60.907	-0.250	-0.312
-253.092	800.000	-0.073	-0.313
-252.078	176.833	-0.154	0.282
-251.063	73.549	-0.032	-0.042
-250.049	-90.698	0.529	-0.190
-249.034	-155.088	-0.387	-0.031
-248.019	-26.401	0.321	0.236
-247.005	-27.421	0.225	-0.164
-245.990	-16.191	0.326	0.259
-244.976	-91.578	0.232	0.082
-243.961	6.651	0.037	-0.035
-242.946	800.000	-0.048	0.182
-241.932	-1.026	0.235	0.208
-240.917	136.597	0.165	0.270
-239.903	-200.000	-0.057	0.450
-238.888	213.137	0.307	0.610
-237.873	288.039	0.316	0.719
-236.859	43.418	0.212	-0.243
-235.844	-34.604	0.551	0.377
-234.830	-65.620	0.270	-0.135
-233.815	351.523	-0.194	0.483
-232.800	317.477	-0.129	0.308
-231.786	592.085	0.072	0.224
-230.771	-200.000	-0.039	0.354
-229.757	178.117	0.019	-0.035
-228.742	-30.958	0.205	0.144
-227.727	-200.000	0.015	-0.203
-226.713	-83.469	0.314	0.125
-225.698	213.163	0.074	0.146
-224.684	30.560	-0.386	0.414
-223.669	800.000	0.203	0.835
-222.655	-39.004	-0.293	0.192
-221.640	-25.711	-0.345	0.254
-220.625	-200.000	-0.072	0.544
-219.611	62.910	-0.325	-0.407
-218.596	-97.038	-0.255	0.083
-217.582	-73.890	0.194	-0.088
-216.567	669.335	-0.015	-0.050
-215.552	155.232	0.208	-0.359
-214.538	-68.065	0.572	-0.278
-213.523	37.951	0.062	0.069
-212.509	-8.043	0.269	0.226
-211.494	40.852	0.065	-0.074
-210.479	82.113	0.120	-0.163
-209.465	483.878	-0.058	0.166
-208.450	800.000	-0.065	-0.237
-207.436	-47.360	-0.095	0.058
-206.421	-200.000	0.043	-0.562
-205.406	199.907	0.187	-0.361
-204.392	495.625	0.124	0.357
-203.377	-75.770	0.377	-0.166
-202.363	-99.709	-0.084	0.026
-201.348	-63.498	0.139	0.071
-200.333	-39.081	0.327	0.215
-199.319	-163.174	0.406	-0.024
-198.304	-96.274	0.174	0.057
-197.290	93.797	-0.088	-0.125
-196.275	225.428	0.082	-0.167
-195.260	-25.479	0.369	0.273
-194.246	-69.949	-0.175	0.083
-193.231	240.665	0.180	-0.378
-192.217	-69.872	0.348	0.165
-191.202	-200.000	0.014	-0.338
-190.187	23.900	0.311	-0.320
-189.173	-32.792	-0.180	0.125
-188.158	-200.000	0.112	-0.633
-187.144	411.459	0.073	-0.195
-186.129	-82.339	-0.159	-0.064
-185.114	627.264	-0.063	0.200
-184.100	-172.894	0.364	-0.014
-183.085	-132.201	-0.249	0.040
-182.071	-55.637	0.443	0.247
-181.056	396.134	0.192	-0.503
-180.042	-12.433	0.111	0.091
-179.027	65.337	0.132	-0.167
-178.012	-109.724	0.384	-0.100
-176.998	-61.161	-0.379	-0.199
-175.983	-63.684	-0.189	0.096
-174.969	-97.505	0.415	0.134
-173.954	435.761	-0.187	-0.510
-172.939	-137.139	-0.429	-0.060
-171.925	57.882	-0.102	0.125
-170.910	800.000	0.039	0.154
-169.896	-190.808	0.272	-0.004
-168.881	-116.960	-0.025	0.006
-167.866	-71.169	0.251	0.117
-166.852	241.885	0.167	-0.350
-165.837	5.465	0.287	0.264
-164.823	-86.085	-0.476	0.183
-163.808	84.197	0.093	-0.127
-162.793	-200.000	0.030	0.398
-161.779	-76.713	0.185	0.081
-160.764	443.727	-0.119	-0.327
-159.750	39.329	-0.200	-0.224
-158.735	-16.865	0.329	0.260
-157.720	27.594	-0.292	0.307
-156.706	367.760	-0.232	0.589
-155.691	228.073	-0.034	-0.070
-154.677	800.000	-0.168	-0.654
-153.662	-65.263	0.436	0.219
-152.647	97.212	-0.110	0.157
-151.633	-135.666	-0.503	0.074
-150.618	-46.056	-0.295	-0.181
-149.604	800.000	-0.029	-0.152
-148.589	800.000	-0.061	-0.240
-147.574	-113.531	0.537	0.130
-146.560	-200.000	0.020	-0.299
-145.545	159.042	-0.155	-0.271
-144.531	-38.259	0.629	0.415
-143.516	68.095	-0.019	0.025
-142.502	217.300	-0.171	-0.341
-141.487	-13.112	-0.220	0.178
-140.472	19.128	0.370	-0.370
-139.458	23.618	0.044	-0.046
-138.443	-22.276	0.010	0.008
-137.429	416.644	-0.148	0.397
-136.414	245.507	-0.046	-0.096
-135.399	-58.674	-0.228	-0.123
-134.385	-61.474	-0.322	0.168
-133.370	800.000	0.101	-0.385
-132.356	-27.921	0.309	-0.223
-131.341	-200.000	-0.094	0.648
-130.326	-3.050	-0.070	0.061
-129.312	-115.799	-0.413	-0.096
-128.297	-17.959	-0.195	-0.152
-127.283	223.054	-0.305	0.616
-126.268	27.833	-0.288	0.303
-125.253	39.526	-0.258	0.289
-124.239	-6.538	-0.162	-0.138
-123.224	-88.829	0.180	-0.066
-122.210	640.909	0.091	-0.290
-121.195	-200.000	0.007	-0.303
-120.180	-90.241	0.365	-0.132
-119.166	-56.172	0.535	-0.296
-118.151	-124.332	0.583	0.113
-117.137	-113.437	0.171	-0.041
-116.122	-171.703	-0.320	-0.013
-115.107	-109.727	-0.191	-0.050
-114.093	182.458	0.113	0.208
-113.078	-176.350	0.448	0.014
-112.064	-121.622	0.373	-0.076
-111.049	800.000	-0.035	-0.143
-110.034	-151.220	0.119	0.011
-109.020	120.924	0.125	0.193
-108.005	-92.885	-0.110	0.038
-106.991	554.992	-0.057	0.172
-105.976	-119.498	0.239	0.051
-104.962	-200.000	-0.015	-0.199
-103.947	-80.964	0.050	0.021
-102.932	-34.272	-0.586	0.400
-101.918	-160.996	-0.135	0.009
-100.903	-148.837	-0.429	-0.043
-99.889	-38.862	-0.192	0.126
-98.874	-60.521	0.377	0.199
-97.859	46.857	0.216	0.250
-96.845	800.000	0.033	0.150
-95.830	36.621	0.178	-0.196
-94.816	-53.830	0.276	-0.156
-93.801	-119.475	-0.339	0.073
-92.786	-114.472	-0.453	-0.108
-91.772	-95.862	0.382	-0.126
-90.757	140.748	-0.032	-0.053
-89.743	444.014	0.082	-0.227
-88.728	-65.886	-0.688	-0.341
-87.713	-51.539	-0.340	-0.197
-86.699	-50.880	-0.105	-0.061
-85.684	-55.682	0.254	-0.141
-84.670	22.788	0.421	0.429
-83.655	389.327	0.065	-0.168
-82.640	800.000	-0.082	-0.408
-81.626	485.896	-0.063	0.181
-80.611	29.219	-0.070	-0.074
-79.597	-105.275	-0.444	0.125
-78.582	56.367	-0.170	0.206
-77.567	194.079	-0.346	-0.655
-76.553	-200.000	-0.005	0.086
-75.538	-138.110	-0.447	-0.061
-74.524	-200.000	0.030	-0.222
-73.509	-73.212	-0.203	-0.092
-72.494	480.873	0.197	-0.560
-71.480	-45.229	0.329	0.203
-70.465	-25.731	-0.255	0.187
-69.451	97.861	-0.157	0.226
-68.436	-200.000	0.021	-0.166
-67.422	-125.574	-0.341	-0.064
-66.407	318.718	0.154	-0.365
-65.392	-83.762	0.263	-0.104
-64.378	-50.996	-0.290	0.169
-63.363	-125.999	0.535	-0.099
-62.349	-143.932	0.378	0.044
-61.334	-8.020	-1.443	-1.209
-60.319	-39.848	0.349	-0.226
-59.305	288.852	-2.800	-6.338
-58.290	2.233	2.720	2.445
-57.276	437.328	3.991	10.875
-56.261	-200.000	13.587	215.012
-55.246	484.371	1149.691	3271.824
-54.232	65.607	2800.910	3531.803
-53.217	73.806	2704.694	3531.092
-52.203	78.185	2435.748	3237.336
-51.188	38.115	2089.653	2313.345
-50.173	39.662	1960.427	2187.473
-49.159	37.239	1949.698	2148.505
-48.144	36.561	1946.203	2137.032
-47.130	36.715	1943.488	2135.672
-46.115	36.505	1942.161	2131.799
-45.100	36.496	1940.679	2129.995
-44.086	36.517	1939.235	2128.559
-43.071	36.545	1936.963	2126.291
-42.057	36.373	1936.353	2123.636
-41.042	36.436	1934.252	2121.939
-40.027	36.433	1933.366	2120.848
-39.013	36.328	1931.965	2118.070
-37.998	36.399	1930.276	2116.913
-36.984	36.380	1930.133	2116.472
-35.969	36.388	1928.058	2114.200
-34.954	36.377	1926.917	2112.738
-33.940	36.419	1925.983	2112.093
-32.925	36.272	1924.096	2108.329
-31.911	36.334	1922.846	2107.557
-30.896	36.277	1921.568	2105.446
-29.881	36.359	1920.093	2104.640
-28.867	36.389	1918.826	2103.502
-27.852	36.326	1917.517	2101.286
-26.838	36.248	1916.314	2099.032
-25.823	36.236	1915.038	2097.423
-24.809	36.161	1913.860	2095.234
-23.794	36.161	1912.781	2093.964
-22.779	36.172	1911.191	2092.264
-21.765	36.171	1909.656	2090.494
-20.750	36.168	1908.815	2089.450
-19.736	36.168	1908.139	2088.630
-18.721	36.205	1905.773	2086.362
-17.706	36.177	1904.576	2084.661
-16.692	36.022	1903.997	2082.262
-15.677	36.077	1902.738	2081.398
-14.663	36.139	1901.220	2080.333
-13.648	36.051	1900.088	2078.057
-12.633	36.039	1899.199	2076.872
-11.619	36.044	1897.939	2075.467
-10.604	35.968	1896.151	2072.604
-9.590	36.026	1895.300	2072.218
-8.575	36.111	1892.892	2070.424
-7.560	36.114	1891.614	2068.971
-6.546	35.958	1891.751	2067.359
-5.531	35.929	1890.649	2065.761
-4.517	36.119	1888.643	2065.527
-3.502	36.173	1888.088	2065.427
-2.487	36.087	1887.380	2063.638
-1.473	36.187	1883.702	2060.616
-0.458	36.259	1865.081	2040.925
0.556	32.070	1996.593	2124.542
1.571	30.614	2212.009	2335.109
2.586	32.306	2259.959	2407.246
3.600	32.299	2262.491	2409.565
4.615	32.411	2262.833	2411.076
5.629	32.257	2260.305	2406.119
6.644	32.474	2259.083	2407.314
7.659	32.618	2257.843	2407.552
8.673	32.996	2255.417	2409.527
9.688	32.115	2258.785	2401.520
10.702	28.025	2325.711	2418.130
11.717	24.033	2388.168	2428.144
12.731	12.599	2357.233	2240.748
13.746	2.073	2329.285	2070.940
14.761	0.237	2324.903	2041.793
15.775	0.146	2322.249	2037.978
16.790	0.092	2321.006	2035.909
17.804	-0.016	2319.957	2033.284
18.819	0.100	2318.244	2033.118
19.834	0.047	2316.497	2030.624
20.848	0.085	2315.096	2029.661
21.863	0.174	2313.299	2029.054
22.877	0.039	2311.797	2025.656
23.892	0.052	2309.011	2023.162
24.907	0.064	2307.244	2021.526
25.921	0.122	2305.754	2020.758
26.936	0.076	2302.696	2017.214
27.950	0.063	2300.459	2014.850
28.965	0.079	2298.104	2012.757
29.980	0.134	2296.814	2012.123
30.994	0.354	2294.745	2013.022
32.009	6.510	2316.545	2115.133
33.023	21.366	2362.283	2359.652
34.038	28.819	2379.070	2477.559
35.053	29.750	2378.198	2488.967
36.067	29.534	2374.043	2481.395
37.082	29.239	2370.991	2473.935
38.096	29.362	2369.940	2474.195
39.111	29.808	2367.940	2477.816
40.126	29.734	2365.040	2473.495
41.140	29.738	2364.657	2472.845
42.155	29.735	2362.159	2469.896
43.169	29.443	2359.986	2463.414
44.184	29.704	2356.902	2463.402
45.199	29.621	2355.341	2460.362
46.213	29.450	2353.812	2456.184
47.228	29.405	2352.441	2453.854
48.242	29.739	2351.694	2457.242
49.257	30.076	2350.641	2460.355
50.271	30.215	2349.606	2460.821
51.286	30.487	2346.606	2461.013
52.301	29.806	2343.610	2448.522
53.315	29.329	2341.036	2439.200
54.330	28.591	2337.159	2425.063
55.344	28.140	2333.479	2414.970
56.359	28.167	2330.164	2411.609
57.374	28.029	2328.539	2407.811
58.388	27.931	2324.705	2402.264
59.403	27.847	2320.886	2396.920
60.417	27.708	2318.041	2391.860
61.432	28.007	2317.719	2395.183
62.447	27.855	2315.853	2390.970
63.461	27.907	2312.719	2388.138
64.476	27.926	2310.161	2385.461
65.490	28.141	2310.706	2388.556
66.505	28.105	2309.681	2386.735
67.520	28.265	2310.025	2388.903
68.534	28.988	2309.132	2397.172
69.549	29.089	2305.318	2394.247
70.563	28.912	2303.541	2389.793
71.578	28.895	2303.062	2388.788
72.593	29.538	2301.495	2395.266
73.607	29.647	2300.095	2394.939
74.622	29.544	2297.708	2390.831
75.636	29.393	2294.641	2385.391
76.651	29.318	2292.753	2382.177
77.666	29.609	2291.948	2384.824
78.680	29.499	2288.962	2380.015
79.695	29.227	2284.771	2371.851
80.709	28.091	2281.150	2353.124
81.724	27.811	2278.861	2346.856
82.739	28.785	2279.537	2359.854
83.753	29.786	2280.515	2373.509
84.768	29.863	2279.764	2373.437
85.782	29.930	2277.970	2372.147
86.797	29.973	2275.403	2369.740
87.812	29.564	2272.734	2361.420
88.826	29.478	2270.954	2358.189
89.841	29.891	2269.445	2361.637
90.855	30.402	2268.033	2366.436
91.870	29.900	2264.358	2355.899
92.884	29.612	2262.122	2349.605
93.899	29.769	2262.093	2351.305
94.914	29.033	2258.963	2338.362
95.928	27.614	2255.149	2316.031
96.943	27.520	2253.031	2312.380
97.957	28.978	2254.426	2332.129
98.972	29.769	2254.317	2341.810
99.987	29.439	2250.808	2333.691
101.001	29.382	2247.671	2329.437
102.016	29.556	2245.534	2329.158
103.030	29.316	2243.441	2323.661
104.045	29.214	2242.006	2320.600
105.060	29.806	2241.045	2326.822
106.074	30.194	2238.868	2329.189
107.089	29.496	2234.974	2316.051
108.103	29.128	2233.918	2310.037
109.118	29.586	2233.190	2314.782
110.133	29.452	2231.044	2310.591
111.147	29.410	2228.989	2307.669
112.162	29.345	2228.429	2305.992
113.176	29.569	2225.640	2305.639
114.191	29.148	2223.158	2297.517
115.206	29.070	2221.752	2294.811
116.220	29.397	2219.633	2296.440
117.235	29.213	2216.886	2291.020
118.249	29.056	2215.491	2287.349
119.264	29.233	2213.963	2287.704
120.279	29.103	2212.207	2283.995
121.293	29.151	2210.203	2282.253
122.308	29.201	2208.615	2280.955
123.322	28.911	2206.949	2275.352
124.337	28.108	2203.286	2261.334
125.352	27.671	2201.042	2253.331
126.366	28.186	2202.655	2261.114
127.381	29.263	2202.693	2274.254
128.395	29.885	2200.134	2279.037
129.410	29.692	2197.710	2273.863
130.424	29.453	2195.643	2268.505
131.439	29.588	2193.459	2267.636
132.454	29.259	2192.549	2262.367
133.468	29.458	2190.367	2262.297
134.483	29.404	2188.005	2258.924
135.497	29.160	2187.092	2254.709
136.512	29.559	2186.854	2259.109
137.527	29.684	2185.154	2258.614
138.541	29.587	2183.036	2254.961
139.556	29.532	2182.033	2252.986
140.570	29.255	2180.211	2247.438
141.585	29.145	2177.331	2242.858
142.600	29.230	2176.398	2242.663
143.614	29.575	2175.271	2245.449
144.629	29.951	2174.012	2248.470
145.643	29.401	2171.766	2239.173
146.658	29.225	2168.238	2233.122
147.673	28.794	2165.530	2224.828
148.687	28.993	2164.256	2225.663
149.702	29.210	2163.432	2227.186
150.716	29.496	2164.384	2231.374
151.731	30.308	2166.123	2242.779
152.746	30.761	2165.129	2246.977
153.760	29.545	2160.814	2227.492
154.775	27.937	2155.362	2202.140
155.789	27.519	2152.214	2193.598
156.804	28.463	2153.080	2205.644
157.819	29.179	2151.944	2212.872
158.833	29.534	2149.357	2214.222
159.848	29.761	2148.177	2215.476
160.862	29.868	2146.869	2215.150
161.877	30.221	2146.045	2218.284
162.892	30.197	2145.830	2217.496
163.906	30.244	2145.038	2216.978
164.921	30.303	2141.555	2213.820
165.935	29.932	2139.915	2207.419
166.950	29.424	2136.781	2197.846
167.964	29.059	2134.129	2190.487
168.979	29.017	2131.713	2187.236
169.994	29.038	2131.831	2187.349
171.008	29.131	2128.662	2184.943
172.023	28.865	2128.087	2180.922
173.037	29.401	2127.827	2186.785
174.052	29.493	2124.663	2184.371
175.067	29.068	2123.401	2177.756
176.081	29.057	2121.620	2175.531
177.096	29.345	2121.508	2178.578
178.110	29.378	2119.251	2176.396
179.125	29.089	2117.497	2170.908
180.140	29.307	2117.556	2173.294
181.154	29.608	2116.094	2175.096
182.169	29.531	2115.447	2173.260
183.183	29.383	2112.922	2168.652
184.198	28.321	2109.251	2152.086
185.213	28.105	2106.955	2146.942
186.227	29.266	2108.149	2161.604
187.242	29.437	2105.974	2161.127
188.256	29.282	2105.023	2158.064
189.271	29.666	2103.747	2161.019
190.286	29.568	2102.170	2157.983
191.300	29.084	2098.004	2147.772
192.315	29.027	2097.179	2146.007
193.329	29.441	2097.519	2150.946
194.344	29.816	2096.482	2154.020
195.359	29.588	2095.013	2149.588
196.373	29.752	2093.337	2149.527
197.388	29.808	2089.693	2146.178
198.402	29.457	2086.975	2139.045
199.417	29.426	2085.912	2137.333
200.432	29.528	2083.908	2136.204
201.446	29.476	2083.187	2134.616
202.461	29.507	2081.252	2132.736
203.475	29.328	2078.664	2127.743
204.490	29.204	2077.249	2124.611
205.504	29.352	2074.501	2123.263
206.519	29.241	2071.182	2118.322
207.534	29.449	2071.915	2121.218
208.548	30.104	2071.927	2128.550
209.563	29.563	2069.192	2119.242
210.577	29.684	2068.264	2119.434
211.592	30.441	2069.021	2128.684
212.607	29.626	2065.718	2115.652
213.621	27.439	2061.238	2085.665
214.636	27.556	2059.053	2084.549
215.650	29.460	2062.410	2109.590
216.665	30.436	2061.527	2119.646
217.680	30.373	2060.210	2117.307
218.694	30.331	2058.927	2115.256
219.709	29.644	2054.910	2103.020
220.723	29.642	2053.884	2101.701
221.738	30.209	2053.873	2107.913
222.753	30.369	2051.783	2107.349
223.767	30.015	2049.104	2100.305
224.782	29.503	2045.495	2090.525
225.796	29.420	2044.450	2088.270
226.811	29.764	2043.076	2090.522
227.826	29.484	2041.834	2085.818
228.840	29.499	2040.545	2084.427
229.855	29.351	2039.436	2081.366
230.869	29.165	2036.565	2076.075
231.884	29.273	2035.041	2075.502
232.899	29.499	2034.668	2077.430
233.913	29.735	2034.351	2079.526
234.928	29.793	2033.443	2079.001
235.942	29.674	2030.236	2074.133
236.957	29.295	2028.267	2067.594
237.972	29.429	2028.278	2068.874
238.986	29.568	2027.308	2069.197
240.001	29.230	2024.977	2062.767
241.015	28.964	2023.043	2057.560
242.030	29.410	2022.741	2062.019
243.045	28.630	2018.918	2049.127
244.059	28.498	2018.175	2046.653
245.074	29.623	2018.135	2058.972
246.088	29.614	2015.210	2055.645
247.103	29.749	2013.992	2055.667
248.117	29.914	2013.619	2056.882
249.132	29.896	2011.711	2054.489
250.147	29.527	2008.497	2046.851
251.161	28.880	2006.589	2037.449
252.176	29.281	2004.170	2039.211
253.190	29.128	2002.607	2035.676
254.205	29.055	2000.495	2032.481
255.220	29.101	1999.168	2031.395
256.234	28.756	1997.602	2025.734
257.249	28.702	1996.569	2023.846
258.263	28.937	1996.774	2026.413
259.278	29.163	1995.966	2027.851
260.293	29.278	1993.554	2026.438
261.307	29.195	1992.179	2023.875
262.322	29.273	1990.714	2023.009
263.336	28.950	1987.300	2015.740
264.351	28.956	1986.879	2015.137
265.366	29.455	1987.670	2021.195
266.380	29.922	1986.376	2024.766
267.395	29.630	1984.647	2019.553
268.409	29.624	1982.713	2017.278
269.424	29.749	1981.695	2017.373
270.439	29.910	1981.082	2018.272
271.453	29.924	1979.204	2016.269
272.468	28.336	1973.477	1992.845
273.482	27.661	1971.700	1983.439
274.497	28.927	1972.018	1997.353
275.512	29.796	1970.899	2005.460
276.526	29.880	1969.390	2004.591
277.541	29.654	1967.017	1999.486
278.555	29.291	1965.050	1993.302
279.570	29.185	1962.305	1989.121
280.585	29.039	1960.470	1985.445
281.599	29.234	1960.834	1987.685
282.614	29.449	1958.645	1987.556
283.628	28.884	1955.699	1978.221
284.643	28.245	1952.447	1967.791
285.657	27.824	1950.604	1961.156
286.672	27.506	1948.618	1955.497
287.687	27.032	1945.923	1947.450
288.701	27.071	1944.985	1946.694
289.716	26.580	1941.257	1937.454
290.730	25.483	1938.524	1922.705
291.745	26.285	1939.928	1932.494
292.760	27.025	1940.241	1940.524
293.774	27.842	1942.167	1950.995
294.789	29.328	1943.688	1968.254
295.803	29.670	1941.624	1969.588
296.818	29.438	1940.490	1965.723
297.833	29.920	1940.226	1970.378
298.847	29.804	1938.768	1967.414
299.862	29.686	1936.158	1963.277
300.876	29.424	1933.340	1957.392
301.891	28.515	1930.991	1945.086
302.906	28.295	1930.379	1941.898
303.920	29.440	1930.461	1953.944
304.935	30.311	1930.373	1962.885
305.949	30.176	1928.123	1958.924
306.964	30.165	1926.664	1957.098
307.979	29.404	1921.879	1943.942
308.993	26.953	1913.246	1909.099
310.008	24.579	1907.003	1877.594
311.022	24.175	1905.877	1871.995
312.037	24.767	1904.723	1876.888
313.052	24.651	1901.868	1872.623
314.066	24.005	1899.958	1863.725
315.081	24.039	1898.885	1862.797
316.095	23.888	1897.848	1859.972
317.110	23.735	1895.821	1856.158
318.125	23.755	1893.682	1854.048
319.139	23.821	1892.489	1853.359
320.154	23.944	1892.356	1854.288
321.168	23.963	1890.701	1852.641
322.183	25.539	1895.920	1874.061
323.197	28.613	1901.054	1911.153
324.212	29.738	1900.759	1922.394
325.227	29.581	1899.116	1918.862
326.241	29.662	1898.308	1918.662
327.256	29.909	1897.051	1919.730
328.270	29.726	1894.901	1915.427
329.285	29.699	1895.082	1915.092
330.300	29.412	1894.195	1910.987
331.314	27.828	1889.118	1889.170
332.329	27.865	1887.393	1887.607
333.343	29.149	1887.962	1901.283
334.358	29.760	1887.547	1906.975
335.373	29.985	1886.744	1908.259
336.387	30.243	1885.817	1909.771
337.402	30.295	1884.040	1908.275
338.416	30.005	1881.862	1902.848
339.431	29.724	1880.154	1897.993
340.446	29.972	1876.919	1897.058
341.460	28.703	1873.095	1879.908
342.475	28.070	1871.139	1871.215
343.489	26.826	1864.789	1851.883
344.504	25.168	1860.775	1830.677
345.519	24.491	1857.150	1819.960
346.533	24.046	1854.423	1812.511
347.548	23.956	1854.360	1811.311
348.562	24.368	1853.366	1814.341
349.577	24.377	1851.968	1812.841
350.592	24.525	1851.530	1813.712
351.606	24.501	1849.735	1811.495
352.621	24.027	1846.680	1803.458
353.635	24.086	1846.041	1803.219
354.650	25.285	1849.378	1818.480
355.665	28.056	1853.012	1850.064
356.679	29.003	1853.645	1860.105
357.694	29.505	1854.484	1865.826
358.708	30.013	1853.666	1869.930
359.723	29.482	1852.216	1862.864
360.738	28.032	1847.762	1843.472
361.752	28.251	1846.931	1844.646
362.767	29.647	1847.517	1859.137
363.781	30.220	1845.569	1862.737
364.796	30.303	1845.702	1863.491
365.810	30.175	1844.485	1860.746
366.825	29.589	1839.500	1849.596
367.840	26.916	1832.361	1815.356
368.854	24.438	1826.516	1784.484
369.869	24.064	1824.030	1778.082
370.883	24.277	1823.147	1779.148
371.898	24.565	1821.961	1780.660
372.913	24.582	1820.775	1779.466
373.927	24.238	1818.840	1773.912
374.942	24.287	1817.870	1773.246
375.956	25.342	1820.855	1786.508
376.971	26.267	1820.457	1795.137
377.986	26.350	1818.720	1794.044
379.000	26.352	1817.868	1793.004
380.015	26.606	1817.240	1794.707
381.029	28.371	1819.443	1814.250
382.044	29.651	1820.732	1828.054
383.059	29.645	1819.163	1826.200
384.073	29.397	1818.679	1823.032
385.088	29.635	1818.135	1824.634
386.102	29.849	1816.529	1824.929
387.117	29.620	1814.618	1820.516
388.132	29.746	1814.007	1820.933
389.146	29.461	1812.971	1816.854
390.161	28.111	1808.809	1799.133
391.175	27.890	1804.697	1792.645
392.190	28.429	1803.456	1796.515
393.205	29.042	1802.581	1801.454
394.219	29.317	1801.106	1802.469
395.234	29.343	1800.762	1802.170
396.248	29.371	1798.273	1799.737
397.263	29.389	1795.591	1797.013
398.278	29.342	1793.573	1794.316
399.292	29.174	1792.573	1791.462
400.307	28.710	1791.251	1785.394
401.321	27.796	1788.462	1773.480
402.336	27.355	1786.053	1766.576
403.350	27.129	1782.933	1761.074
404.365	27.336	1782.498	1762.454
405.380	26.960	1778.765	1754.891
406.394	24.926	1774.196	1730.441
407.409	24.446	1771.931	1723.367
408.423	24.516	1769.434	1721.407
409.438	24.299	1768.252	1717.957
410.453	24.085	1767.701	1715.140
411.467	24.407	1767.648	1717.999
412.482	25.139	1768.299	1725.508
413.496	27.800	1774.033	1756.676
414.511	29.613	1774.564	1774.515
415.526	29.679	1772.961	1773.344
416.540	29.605	1771.766	1771.220
417.555	29.595	1770.254	1769.400
418.569	29.291	1769.162	1765.170
419.584	29.071	1768.531	1762.209
420.599	28.950	1768.379	1760.687
421.613	29.206	1767.542	1762.102
422.628	29.063	1766.217	1759.200
423.642	29.366	1764.257	1759.939
424.657	28.682	1761.399	1750.329
425.672	28.538	1760.632	1747.981
426.686	28.890	1759.959	1750.465
427.701	28.484	1757.427	1743.857
428.715	28.243	1755.290	1739.231
429.730	28.784	1754.308	1743.211
430.745	29.238	1754.786	1747.807
431.759	29.613	1755.680	1752.065
432.774	30.152	1754.872	1756.180
433.788	28.235	1748.225	1731.121
434.803	25.827	1743.958	1703.821
435.818	25.386	1742.652	1698.151
436.832	25.451	1740.966	1696.927
437.847	24.838	1735.123	1685.227
438.861	16.044	1709.334	1577.600
439.876	3.527	1686.082	1439.160
440.890	0.395	1679.006	1403.678
441.905	0.179	1677.746	1400.434
442.920	0.096	1676.475	1398.435
443.934	0.052	1674.992	1396.613
444.949	0.075	1673.661	1395.551
445.963	-0.043	1673.391	1394.062
446.978	0.046	1672.837	1394.265
447.993	0.187	1671.461	1394.258
449.007	0.123	1669.223	1391.632
450.022	0.047	1667.248	1389.116
451.036	0.160	1665.915	1388.882
452.051	1.378	1673.375	1406.277
453.066	13.208	1699.668	1539.526
454.080	24.145	1716.938	1657.887
455.095	26.561	1721.425	1684.655
456.109	28.672	1725.962	1708.660
457.124	29.587	1725.239	1716.294
458.139	28.936	1723.238	1708.023
459.153	28.418	1721.030	1700.796
460.168	28.506	1719.659	1700.060
461.182	28.975	1719.348	1703.919
462.197	29.787	1719.830	1711.745
463.212	30.053	1718.715	1712.909
464.226	30.529	1718.577	1716.982
465.241	30.803	1717.318	1718.064
466.255	30.753	1717.241	1717.321
467.270	30.723	1715.597	1715.188
468.285	31.092	1715.086	1717.892
469.299	31.441	1714.873	1720.704
470.314	31.682	1712.725	1720.565
471.328	31.777	1711.842	1720.346
472.343	31.685	1711.560	1719.007
473.358	31.669	1710.695	1717.786
474.372	31.876	1708.783	1717.566
475.387	32.197	1708.692	1720.223
476.401	32.016	1706.094	1715.739
477.416	31.509	1703.954	1708.734
478.430	31.612	1702.745	1708.263
479.445	31.698	1702.339	1708.437
480.460	31.666	1700.942	1706.541
481.474	31.751	1700.408	1706.577
482.489	32.195	1698.705	1708.721
483.503	31.761	1696.090	1701.923
484.518	31.369	1694.390	1696.439
485.533	31.680	1693.608	1698.285
486.547	31.625	1691.710	1695.685
487.562	30.894	1689.724	1686.842
488.576	31.301	1689.700	1690.317
489.591	31.860	1689.902	1695.397
490.606	32.121	1688.323	1695.980
491.620	32.072	1687.183	1694.185
492.635	31.931	1684.442	1689.954
493.649	31.362	1681.219	1681.379
494.664	31.107	1681.032	1678.681
495.679	31.468	1680.572	1681.280
496.693	31.511	1678.905	1679.799
497.708	31.647	1678.273	1680.199
498.722	31.598	1677.227	1678.506
499.737	31.942	1675.870	1680.044
500.752	31.652	1675.062	1676.426
501.766	31.668	1673.308	1674.611
502.781	31.896	1670.802	1673.946
503.795	31.857	1670.233	1672.832
504.810	31.884	1669.000	1671.633
505.825	31.785	1667.594	1669.145
506.839	31.206	1665.798	1661.961
507.854	31.040	1664.582	1659.070
508.868	30.962	1662.060	1655.656
509.883	30.228	1659.123	1645.995
510.898	29.506	1657.087	1637.338
511.912	29.082	1653.918	1630.244
512.927	28.653	1651.511	1623.858
513.941	28.611	1650.500	1622.301
514.956	28.882	1650.217	1624.233
515.971	29.765	1650.180	1631.837
516.985	29.477	1648.219	1627.148
518.000	29.066	1646.391	1621.516
519.014	28.985	1646.144	1620.359
520.029	29.027	1643.503	1617.938
521.043	28.860	1641.561	1614.354
522.058	28.780	1641.106	1613.009
523.073	29.008	1639.739	1613.483
524.087	29.266	1640.226	1616.043
525.102	29.896	1640.238	1621.415
526.116	30.520	1641.326	1627.786
527.131	31.106	1640.832	1632.260
528.146	31.307	1640.138	1633.143
529.160	31.459	1639.489	1633.631
530.175	31.758	1638.858	1635.437
531.189	31.720	1637.206	1633.257
532.204	31.618	1635.765	1630.733
533.219	31.603	1634.154	1628.793
534.233	31.669	1633.785	1628.813
535.248	31.213	1631.632	1622.485
536.262	30.894	1630.498	1618.378
537.277	31.483	1630.169	1623.001
538.292	31.971	1628.812	1625.704
539.306	31.896	1627.394	1623.444
540.321	31.383	1624.968	1616.372
541.335	30.927	1623.304	1610.565
542.350	31.194	1622.406	1611.791
543.365	31.731	1621.646	1615.506
544.379	32.094	1620.748	1617.557
545.394	31.864	1619.303	1613.937
546.408	31.361	1616.751	1606.848
547.423	31.476	1616.541	1607.442
548.438	32.117	1615.720	1611.964
549.452	32.087	1614.565	1610.362
550.467	31.632	1611.807	1603.502
551.481	31.336	1611.707	1600.668
552.496	31.364	1610.533	1599.549
553.511	31.485	1609.933	1599.803
554.525	31.623	1608.984	1599.848
555.540	31.557	1608.583	1598.695
556.554	31.845	1606.779	1599.181
557.569	31.600	1603.767	1593.895
558.583	30.988	1601.854	1586.567
559.598	30.965	1600.683	1585.026
560.613	30.846	1600.060	1583.196
561.627	30.734	1598.546	1580.557
562.642	30.341	1595.006	1573.518
563.656	29.718	1592.230	1565.289
564.671	29.442	1590.473	1561.027
565.686	29.145	1589.861	1557.713
566.700	29.169	1588.197	1556.104
567.715	29.043	1587.254	1553.921
568.729	29.313	1586.195	1554.987
569.744	29.947	1585.029	1559.035
570.759	30.040	1583.745	1558.365
571.773	29.659	1582.860	1554.088
572.788	29.568	1581.608	1551.907
573.802	29.331	1579.340	1547.495
574.817	29.219	1577.256	1544.327
575.832	29.266	1577.393	1544.669
576.846	30.063	1577.779	1551.573
577.861	30.553	1577.616	1555.350
578.875	30.907	1577.318	1557.849
579.890	31.237	1576.896	1560.018
580.905	31.381	1576.041	1560.189
581.919	31.413	1576.389	1560.622
582.934	31.747	1574.420	1561.276
583.948	31.440	1573.174	1557.285
584.963	31.296	1571.271	1554.016
585.978	31.295	1570.431	1552.991
586.992	30.842	1568.289	1546.901
588.007	30.834	1568.414	1546.777
589.021	30.511	1565.835	1541.351
590.036	29.750	1563.490	1532.520
591.051	30.203	1563.596	1536.215
592.065	31.016	1562.100	1541.326
593.080	31.016	1561.331	1540.380
594.094	31.304	1559.982	1541.249
595.109	31.302	1558.494	1539.581
596.123	31.651	1558.503	1542.299
597.138	31.810	1557.598	1542.533
598.153	31.243	1555.515	1535.597
599.167	30.963	1553.320	1530.936
600.182	30.809	1552.056	1528.237
601.196	31.090	1551.656	1529.978
602.211	31.404	1551.062	1531.794
603.226	31.238	1549.802	1529.005
604.240	31.450	1548.186	1528.965
605.255	31.493	1547.195	1528.159
606.269	31.333	1545.956	1525.437
607.284	31.144	1544.567	1522.335
608.299	31.056	1542.690	1519.585
609.313	30.880	1541.513	1516.799
610.328	30.609	1540.035	1512.950
611.342	30.774	1537.935	1512.050
612.357	30.631	1537.274	1510.057
613.372	30.422	1535.823	1506.746
614.386	30.124	1534.677	1503.015
615.401	30.313	1533.569	1503.286
616.415	30.010	1532.605	1499.698
617.430	29.642	1530.906	1494.864
618.445	29.327	1529.196	1490.458
619.459	29.175	1527.755	1487.633
620.474	29.193	1526.842	1486.715
621.488	29.532	1526.850	1489.296
622.503	30.392	1526.343	1495.585
623.518	29.986	1523.629	1489.467
624.532	29.495	1522.195	1483.921
625.547	29.250	1521.013	1480.615
626.561	29.264	1519.835	1479.406
627.576	29.302	1519.279	1478.992
628.591	29.549	1518.988	1480.522
629.605	29.911	1518.465	1482.749
630.620	30.234	1517.216	1483.952
631.634	30.915	1516.953	1488.992
632.649	30.975	1515.484	1487.849
633.663	30.563	1513.170	1482.096
634.678	29.832	1511.438	1474.373
635.693	29.694	1509.185	1470.892
636.707	29.431	1507.369	1466.843
637.722	29.479	1506.620	1466.322
638.736	29.949	1506.538	1469.818
639.751	30.347	1506.847	1473.124
640.766	30.470	1505.641	1472.751
641.780	30.612	1504.176	1472.272
642.795	30.803	1503.613	1473.062
643.809	30.961	1503.470	1474.002
644.824	31.143	1502.959	1474.768
645.839	31.263	1501.964	1474.569
646.853	31.278	1500.282	1472.858
647.868	30.999	1498.916	1469.133
648.882	30.811	1497.731	1466.310
649.897	30.602	1495.673	1462.466
650.912	30.512	1494.750	1460.675
651.926	30.496	1493.855	1459.500
652.941	30.721	1492.258	1459.542
653.955	30.467	1490.586	1455.731
654.970	29.752	1487.275	1446.701
655.985	29.543	1484.711	1442.392
656.999	29.300	1484.078	1439.696
658.014	29.441	1483.874	1440.430
659.028	30.115	1483.497	1445.181
660.043	30.591	1483.277	1448.519
661.058	30.723	1482.821	1448.938
662.072	30.809	1481.553	1448.193
663.087	30.691	1480.159	1445.739
664.101	30.484	1479.295	1443.106
665.116	30.614	1478.687	1443.354
666.131	30.648	1477.221	1442.012
667.145	30.845	1476.071	1442.249
668.160	30.861	1474.789	1440.948
669.174	30.663	1473.219	1437.704
670.189	30.834	1472.301	1437.969
671.204	31.165	1471.761	1439.839
672.218	30.983	1471.426	1437.921
673.233	30.974	1470.103	1436.386
674.247	31.132	1468.438	1435.809
675.262	30.897	1467.378	1432.786
676.276	30.766	1466.159	1430.418
677.291	30.753	1465.568	1429.568
678.306	31.170	1464.525	1431.592
679.320	30.945	1462.839	1428.044
680.335	30.480	1461.837	1423.314
681.349	30.600	1461.184	1423.429
682.364	30.683	1460.148	1422.887
683.379	30.415	1458.487	1419.044
684.393	30.043	1456.997	1414.568
685.408	30.048	1455.940	1413.407
686.422	29.951	1453.901	1410.516
687.437	29.744	1452.933	1407.824
688.452	29.492	1451.449	1404.290
689.466	29.239	1449.879	1400.674
690.481	29.354	1448.891	1400.429
691.495	29.487	1449.146	1401.521
692.510	30.360	1448.956	1407.827
693.525	31.155	1447.286	1412.088
694.539	30.682	1445.416	1406.498
695.554	29.738	1443.838	1397.627
696.568	29.387	1442.921	1393.904
697.583	29.350	1442.006	1392.575
698.598	29.597	1441.343	1393.642
699.612	29.790	1439.937	1393.575
700.627	29.970	1439.205	1394.064
701.641	30.561	1438.610	1397.787
702.656	30.645	1437.940	1397.610
703.671	30.634	1437.716	1397.135
704.685	30.734	1436.947	1396.974
705.700	30.758	1435.684	1395.766
706.714	30.495	1433.480	1391.478
707.729	30.428	1431.670	1389.045
708.744	30.432	1430.632	1387.903
709.758	30.093	1429.391	1383.990
710.773	29.635	1427.196	1378.267
711.787	29.291	1425.861	1374.232
712.802	30.059	1425.127	1379.111
713.816	30.304	1425.070	1380.720
714.831	30.438	1424.713	1381.214
715.846	30.246	1423.130	1378.078
716.860	30.253	1421.566	1376.453
717.875	30.368	1420.367	1375.987
718.889	30.194	1419.827	1373.999
719.904	30.105	1418.738	1372.120
720.919	30.216	1417.350	1371.442
721.933	30.055	1416.508	1369.266
722.948	29.884	1415.448	1366.810
723.962	30.145	1414.679	1367.833
724.977	30.179	1413.286	1366.577
725.992	30.372	1413.008	1367.573
727.006	30.570	1412.648	1368.526
728.021	30.653	1410.250	1366.652
729.035	30.564	1409.066	1364.684
730.050	30.640	1408.526	1364.557
731.065	30.492	1406.996	1361.822
732.079	30.383	1405.907	1359.808
733.094	30.560	1405.321	1360.379
734.108	30.587	1403.925	1359.064
735.123	30.532	1402.601	1357.213
736.138	30.365	1401.272	1354.539
737.152	30.320	1400.395	1353.202
738.167	30.340	1399.255	1352.082
739.181	30.371	1398.024	1350.960
740.196	30.444	1397.686	1351.003
741.211	30.247	1396.361	1348.122
742.225	30.124	1395.189	1345.934
743.240	29.927	1393.515	1342.722
744.254	29.956	1391.027	1340.372
745.269	29.493	1390.339	1336.185
746.284	29.353	1389.711	1334.397
747.298	29.436	1388.644	1333.817
748.313	29.397	1388.259	1333.005
749.327	29.977	1387.581	1336.405
750.342	30.449	1388.188	1340.253
751.356	31.009	1387.543	1343.529
752.371	30.681	1385.663	1339.175
753.386	29.870	1383.299	1330.869
754.400	29.849	1381.815	1329.129
755.415	30.342	1381.241	1331.977
756.429	30.386	1380.918	1331.823
757.444	30.591	1379.473	1331.744
758.459	30.438	1378.566	1329.606
759.473	30.079	1377.424	1325.769
760.488	29.854	1375.843	1322.470
761.502	29.663	1374.842	1319.977
762.517	29.943	1372.976	1320.039
763.532	30.235	1371.509	1320.560
764.546	30.156	1369.779	1318.172
765.561	29.614	1368.713	1313.113
766.575	28.873	1367.291	1306.306
767.590	28.801	1366.721	1305.088
768.605	29.522	1366.466	1309.829
769.619	29.935	1365.721	1311.902
770.634	30.043	1364.282	1311.136
771.648	30.005	1363.165	1309.630
772.663	29.613	1362.624	1306.172
773.678	29.889	1362.261	1307.626
774.692	30.334	1362.335	1310.697
775.707	30.130	1361.648	1308.438
776.721	30.367	1360.413	1308.771
777.736	30.227	1358.664	1305.945
778.751	30.335	1357.724	1305.649
779.765	30.315	1356.915	1304.573
780.780	30.114	1357.026	1303.100
781.794	30.298	1355.713	1302.982
782.809	29.859	1353.630	1297.730
783.824	29.375	1351.920	1292.530
784.838	29.531	1350.774	1292.376
785.853	30.040	1350.917	1295.939
786.867	29.959	1349.779	1294.120
787.882	29.540	1348.945	1290.228
788.897	29.440	1347.532	1288.014
789.911	29.289	1345.499	1284.862
790.926	29.273	1344.606	1283.740
791.940	29.298	1343.854	1283.050
792.955	29.350	1342.864	1282.311
793.969	29.402	1341.644	1281.359
794.984	29.756	1341.272	1283.315
795.999	29.996	1340.309	1283.914
797.013	30.113	1339.028	1283.348
798.028	30.137	1337.863	1282.247
799.042	29.953	1337.036	1280.024
800.057	30.032	1336.256	1279.669
801.072	30.058	1334.758	1278.260
802.086	30.042	1333.311	1276.610
803.101	30.057	1332.146	1275.450
804.115	30.066	1331.188	1274.442
805.130	29.868	1330.262	1272.033
806.145	29.889	1329.119	1270.930
807.159	29.693	1327.390	1267.776
808.174	29.666	1326.848	1266.921
809.188	29.998	1325.115	1267.400
810.203	29.684	1323.784	1263.814
811.218	29.396	1322.605	1260.560
812.232	29.100	1320.324	1256.210
813.247	28.923	1319.046	1253.625
814.261	29.354	1319.509	1256.871
815.276	29.644	1319.252	1258.464
816.291	29.596	1318.232	1257.012
817.305	29.446	1316.654	1254.333
818.320	29.490	1315.907	1253.768
819.334	29.633	1315.134	1253.859
820.349	29.939	1313.847	1254.568
821.364	30.047	1312.124	1253.503
822.378	29.982	1311.138	1251.968
823.393	29.887	1309.500	1249.613
824.407	29.767	1308.441	1247.635
825.422	29.903	1308.064	1248.048
826.437	29.535	1306.673	1244.082
827.451	29.331	1305.002	1240.959
828.466	29.585	1304.367	1241.930
829.480	29.918	1302.876	1242.608
830.495	29.714	1300.410	1238.734
831.509	29.299	1299.590	1235.008
832.524	29.300	1298.698	1234.017
833.539	29.443	1298.212	1234.374
834.553	29.643	1296.532	1233.973
835.568	29.689	1294.866	1232.546
836.582	29.815	1294.211	1232.618
837.597	29.728	1293.456	1231.165
838.612	29.718	1291.891	1229.468
839.626	29.436	1290.738	1226.340
840.641	29.338	1289.586	1224.440
841.655	29.380	1288.190	1223.249
842.670	29.046	1286.590	1219.362
843.685	28.517	1285.740	1214.889
844.699	28.855	1285.205	1216.488
845.714	29.358	1283.870	1218.419
846.728	29.158	1282.978	1216.094
847.743	29.304	1281.842	1215.846
848.758	29.458	1281.440	1216.338
849.772	29.662	1280.380	1216.535
850.787	29.648	1278.961	1214.948
851.801	29.606	1277.702	1213.327
852.816	29.614	1276.645	1212.234
853.831	29.507	1275.138	1209.952
854.845	29.404	1273.361	1207.444
855.860	29.296	1271.519	1204.842
856.874	29.278	1270.343	1203.466
857.889	29.320	1270.155	1203.419
858.904	29.630	1269.464	1204.651
859.918	30.047	1268.805	1206.615
860.933	30.230	1267.634	1206.554
861.947	29.975	1265.663	1202.871
862.962	29.492	1264.108	1198.098
863.977	29.195	1262.613	1194.602
864.991	29.233	1262.240	1194.353
866.006	29.061	1262.047	1192.904
867.020	29.354	1260.754	1193.446
868.035	29.348	1259.985	1192.537
869.049	29.444	1258.737	1191.840
870.064	29.639	1257.713	1191.989
871.079	29.617	1257.041	1191.066
872.093	29.341	1256.549	1188.670
873.108	29.373	1254.675	1186.963
874.122	29.090	1253.267	1183.657
875.137	28.967	1252.335	1181.843
876.152	28.924	1251.172	1180.327
877.166	28.923	1250.001	1179.077
878.181	28.975	1248.557	1177.908
879.195	28.876	1248.675	1177.240
880.210	29.132	1247.676	1177.806
881.225	29.489	1246.678	1179.016
882.239	29.299	1246.279	1177.275
883.254	29.442	1245.305	1177.128
884.268	29.594	1243.740	1176.482
885.283	29.481	1242.832	1174.764
886.298	29.462	1241.632	1173.363
887.312	29.460	1240.929	1172.547
888.327	29.396	1239.773	1170.907
889.341	29.432	1237.706	1169.043
890.356	29.369	1237.053	1167.887
891.371	29.281	1236.965	1167.105
892.385	29.250	1235.752	1165.624
893.400	29.053	1235.118	1163.634
894.414	29.139	1233.801	1162.799
895.429	29.219	1232.596	1162.032
896.444	30.148	1232.372	1167.561
897.458	30.588	1231.660	1169.530
898.473	30.243	1230.319	1165.940
899.487	29.561	1228.853	1160.106
900.502	29.244	1227.309	1156.512
901.517	29.059	1226.268	1154.224
902.531	29.176	1225.027	1153.654
903.546	29.348	1224.250	1153.869
904.560	29.326	1224.002	1153.354
905.575	29.330	1222.685	1152.005
906.589	29.086	1222.126	1149.808
907.604	29.180	1220.832	1149.044
