DTS Sentinel unit serial number:	SN409020Multiplexer serial number:	ORYXHardware model number:	OX4-SRSoftware version number:	ORYX F/W v3.00 Oryx Data Collector v3.7.2.0data status	okinstallation	HaddamTimeLapsedifferential loss correction	single-endedforward channel	channel 3reverse channel	N/Adate	2011/06/22time	02:21:17forward acquisition time	30.00reverse acquisition time	0.00gamma	498.7831k internal	0.1751k external	0.1751temperature offset calibration	1.0074default loss term (dB/km)	0.3790temperature slope calibration	1.3530multiplexer offset coefficient	1.0000multiplexer slope coefficient	1.0000fibre end	0.00T internal ref (°C)	22.37T ext. ref 1 (°C)	17.54T ext. ref 2 (°C)	0.01length (m)	temperature (°C)	Stokes	anti-Stokes-747.200	800.000	-0.111	-0.615
-746.185	-106.698	0.555	-0.163
-745.171	29.108	0.209	0.236
-744.156	535.061	-0.162	0.514
-743.142	-98.898	-0.271	-0.091
-742.127	-77.494	0.634	-0.291
-741.112	-200.000	0.022	-0.278
-740.098	31.161	-0.401	0.458
-739.083	-120.511	0.184	0.041
-738.069	14.455	0.499	0.517
-737.054	-21.847	-0.302	0.243
-736.039	-150.345	-0.351	0.035
-735.025	262.632	0.242	0.559
-734.010	-103.750	0.151	-0.047
-732.996	-200.000	0.037	-0.551
-731.981	41.169	-0.110	-0.132
-730.966	-134.929	-0.435	-0.069
-729.952	-65.320	0.100	0.053
-728.937	109.858	-0.087	0.139
-727.923	187.228	-0.111	0.220
-726.908	-100.619	-0.536	-0.175
-725.894	-55.494	-0.305	-0.181
-724.879	130.469	-0.153	-0.261
-723.864	51.707	-0.214	0.270
-722.850	-200.000	0.022	-0.485
-721.835	47.556	-0.051	-0.063
-720.821	-31.866	0.149	-0.111
-719.806	34.622	0.241	-0.279
-718.791	-141.866	-0.116	-0.015
-717.777	-200.000	-0.021	-0.186
-716.762	685.919	0.057	-0.198
-715.748	-200.000	0.043	-0.323
-714.733	-18.493	-0.469	-0.388
-713.718	76.898	-0.113	-0.159
-712.704	66.657	0.162	-0.219
-711.689	-146.022	-0.434	0.050
-710.675	-87.682	-0.253	-0.101
-709.660	-158.666	-0.271	0.020
-708.645	-70.363	-0.128	-0.064
-707.631	-68.018	-0.093	0.048
-706.616	763.623	0.127	-0.459
-705.602	-193.425	-0.358	0.004
-704.587	176.563	0.099	0.191
-703.572	-93.885	0.363	-0.132
-702.558	800.000	0.039	-0.161
-701.543	-200.000	0.010	0.165
-700.529	73.357	0.419	0.582
-699.514	-18.547	-0.367	0.303
-698.499	692.196	0.080	0.278
-697.485	-70.152	-0.280	0.140
-696.470	150.952	-0.118	-0.213
-695.456	32.274	0.016	-0.018
-694.441	-62.046	-0.518	0.286
-693.426	145.270	0.190	-0.338
-692.412	356.751	0.118	-0.312
-691.397	-64.983	-0.241	-0.129
-690.383	-98.802	-0.184	0.062
-689.368	260.558	-0.136	0.314
-688.354	800.000	-0.054	-0.224
-687.339	-1.875	0.169	-0.157
-686.324	-200.000	-0.031	0.497
-685.310	-27.994	-0.132	-0.101
-684.295	20.751	0.115	-0.123
-683.281	100.160	-0.169	0.260
-682.266	55.718	-0.166	-0.214
-681.251	428.928	-0.207	-0.596
-680.237	70.117	-0.363	0.498
-679.222	202.087	0.031	-0.063
-678.208	-107.245	0.098	-0.028
-677.193	378.650	-0.199	0.542
-676.178	-200.000	-0.039	0.389
-675.164	105.237	-0.275	0.431
-674.149	-200.000	0.022	0.311
-673.135	800.000	0.038	0.159
-672.120	800.000	0.162	0.629
-671.105	-66.069	-0.265	0.139
-670.091	-41.544	-0.127	-0.087
-669.076	-200.000	0.017	0.153
-668.062	-200.000	-0.037	-0.343
-667.047	-13.542	-0.325	-0.279
-666.032	-200.000	-0.024	-0.222
-665.018	-123.885	-0.431	0.089
-664.003	200.189	0.095	0.193
-662.989	-58.700	0.084	-0.048
-661.974	-29.985	0.484	-0.365
-660.959	29.961	0.124	-0.140
-659.945	-161.994	-0.529	0.035
-658.930	98.244	0.256	0.390
-657.916	543.022	0.078	0.249
-656.901	-26.206	0.505	0.392
-655.886	-73.104	0.331	-0.160
-654.872	67.181	0.095	0.129
-653.857	-200.000	-0.019	0.211
-652.843	-181.685	0.358	-0.009
-651.828	-200.000	0.036	0.328
-650.814	-110.283	-0.299	0.082
-649.799	-143.662	-0.499	-0.062
-648.784	231.329	0.109	-0.236
-647.770	-200.000	-0.006	-0.236
-646.755	800.000	-0.112	-0.542
-645.741	-173.492	-0.280	-0.011
-644.726	-200.000	0.006	-0.151
-643.711	-101.432	-0.125	-0.040
-642.697	-106.088	0.492	-0.145
-641.682	-38.487	0.086	0.060
-640.668	12.858	-0.257	0.263
-639.653	285.549	0.166	0.397
-638.638	-200.000	-0.013	0.269
-637.624	-55.979	0.283	0.167
-636.609	32.466	0.184	-0.210
-635.595	-117.057	-0.234	0.056
-634.580	-200.000	-0.049	-0.484
-633.565	2.335	-0.068	0.065
-632.551	-38.310	-0.120	0.084
-631.536	-142.618	-0.591	0.076
-630.522	-85.026	-0.096	0.040
-629.507	-110.284	-0.194	-0.053
-628.492	391.270	-0.010	-0.028
-627.478	75.925	-0.192	0.268
-626.463	800.000	-0.101	-0.482
-625.449	35.105	-0.100	0.116
-624.434	800.000	0.034	-0.182
-623.419	800.000	0.083	-0.389
-622.405	-59.720	-0.540	-0.305
-621.390	-14.324	0.335	0.285
-620.376	42.279	-0.128	-0.154
-619.361	44.643	0.157	-0.191
-618.346	-175.188	0.241	0.009
-617.332	28.175	-0.210	0.234
-616.317	-56.065	-0.405	0.238
-615.303	-101.953	0.113	0.036
-614.288	-121.952	-0.355	-0.077
-613.273	63.414	-0.134	0.178
-612.259	134.908	-0.169	-0.291
-611.244	42.713	0.228	-0.275
-610.230	-200.000	-0.045	0.383
-609.215	800.000	0.042	0.163
-608.201	-200.000	0.018	0.125
-607.186	-116.500	0.518	0.125
-606.171	97.535	0.041	0.062
-605.157	-34.484	-0.228	-0.165
-604.142	-145.503	0.214	0.025
-603.128	147.072	-0.068	-0.122
-602.113	-99.982	0.545	0.178
-601.098	72.035	-0.250	0.344
-600.084	-54.198	0.251	0.150
-599.069	75.709	0.224	0.313
-598.055	800.000	0.055	0.290
-597.040	-126.770	-0.505	-0.098
-596.025	-71.415	0.294	-0.145
-595.011	242.853	-0.258	0.573
-593.996	17.436	0.107	0.113
-592.982	-85.055	-0.407	-0.167
-591.967	66.105	0.126	-0.169
-590.952	-66.948	0.148	0.077
-589.938	36.770	-0.326	-0.380
-588.923	-132.000	-0.548	0.093
-587.909	-106.774	-0.148	0.043
-586.894	-75.047	-0.302	0.142
-585.879	90.174	-0.048	0.071
-584.865	-82.511	0.351	-0.150
-583.850	-118.675	-0.154	0.035
-582.836	134.613	-0.103	-0.176
-581.821	-200.000	0.054	-0.369
-580.806	800.000	0.044	-0.221
-579.792	56.463	0.118	-0.152
-578.777	-122.502	-0.493	0.105
-577.763	-65.101	-0.586	0.311
-576.748	-153.560	-0.280	0.025
-575.733	206.730	0.098	-0.202
-574.719	-167.764	-0.262	-0.013
-573.704	406.322	-0.051	0.142
-572.690	473.022	-0.105	-0.315
-571.675	-142.374	0.237	0.031
-570.661	-137.599	0.131	0.019
-569.646	224.442	-0.159	0.341
-568.631	-200.000	0.025	0.221
-567.617	-200.000	-0.006	0.277
-566.602	-160.564	0.129	0.009
-565.588	-145.017	0.217	-0.026
-564.573	360.528	0.141	-0.374
-563.558	-70.044	0.178	-0.089
-562.544	101.805	0.162	-0.250
-561.529	-134.775	-0.676	-0.107
-560.515	-180.140	-0.430	0.012
-559.500	108.711	-0.094	-0.148
-558.485	53.787	0.380	-0.482
-557.471	-135.094	-0.408	-0.064
-556.456	800.000	0.034	0.158
-555.442	-37.920	-0.507	0.354
-554.427	-51.438	-0.380	0.233
-553.412	-200.000	-0.012	0.102
-552.398	-95.665	0.361	0.127
-551.383	271.934	-0.116	0.270
-550.369	-147.042	0.334	-0.037
-549.354	-69.224	0.511	-0.258
-548.339	-0.003	0.230	0.216
-547.325	727.947	-0.031	-0.108
-546.310	-93.106	0.237	-0.086
-545.296	-163.791	0.353	-0.021
-544.281	546.192	-0.146	0.461
-543.266	-22.827	0.276	-0.219
-542.252	-34.618	-0.423	-0.304
-541.237	-200.000	0.049	-0.288
-540.223	670.505	0.103	-0.354
-539.208	15.084	-0.164	-0.170
-538.193	239.976	-0.075	0.165
-537.179	-73.696	0.158	0.075
-536.164	114.181	-0.099	0.159
-535.150	32.572	0.293	0.334
-534.135	144.610	0.274	0.484
-533.121	-162.560	-0.282	0.018
-532.106	83.364	-0.330	0.474
-531.091	-170.468	0.417	-0.019
-530.077	-6.822	-0.370	-0.331
-529.062	-1.924	-0.244	-0.225
-528.048	47.277	-0.169	-0.208
-527.033	97.677	0.408	0.619
-526.018	-88.020	0.189	0.075
-525.004	-70.018	0.142	0.071
-523.989	-69.416	0.385	0.194
-522.975	-200.000	-0.074	0.605
-521.960	-20.801	0.124	-0.100
-520.945	312.902	0.188	0.467
-519.931	-42.229	0.657	0.441
-518.916	-58.370	-0.374	-0.213
-517.902	40.568	0.224	-0.266
-516.887	-191.005	0.521	0.007
-515.872	160.967	-0.091	0.168
-514.858	-61.800	-0.650	0.357
-513.843	414.135	0.047	0.131
-512.829	137.029	0.112	-0.194
-511.814	-142.397	-0.329	0.042
-510.799	-14.882	-0.571	-0.482
-509.785	-168.864	0.648	-0.032
-508.770	-14.446	0.141	0.120
-507.756	800.000	-0.109	0.599
-506.741	-200.000	-0.007	0.322
-505.726	-126.754	0.336	0.065
-504.712	-64.526	0.122	0.065
-503.697	-105.636	-0.280	-0.083
-502.683	-24.809	-0.119	0.093
-501.668	115.846	-0.122	-0.196
-500.653	-158.214	-0.546	0.041
-499.639	81.805	-0.112	-0.159
-498.624	-48.068	0.400	0.254
-497.610	-60.280	0.164	0.091
-496.595	194.430	-0.219	0.439
-495.581	-127.819	0.352	0.066
-494.566	-200.000	0.065	0.808
-493.551	94.409	0.159	-0.237
-492.537	-113.796	0.082	0.021
-491.522	792.098	-0.105	-0.384
-490.508	-1.796	-0.246	-0.228
-489.493	33.912	0.213	-0.244
-488.478	-69.272	-0.276	0.139
-487.464	-32.624	0.133	-0.097
-486.449	-82.308	-0.112	-0.048
-485.435	346.911	-0.047	-0.123
-484.420	13.200	0.224	0.228
-483.405	-200.000	0.013	-0.181
-482.391	-33.170	0.205	-0.149
-481.376	-44.494	-0.399	0.262
-480.362	-80.861	0.040	0.017
-479.347	-200.000	0.053	-0.544
-478.332	534.903	-0.046	-0.143
-477.318	-110.959	-0.389	-0.104
-476.303	-78.527	-0.181	0.081
-475.289	658.901	-0.092	0.313
-474.274	-133.718	0.189	-0.031
-473.259	800.000	0.046	-0.227
-472.245	-61.448	-0.240	-0.132
-471.230	66.720	0.040	0.054
-470.216	-200.000	-0.018	0.109
-469.201	800.000	0.129	0.506
-468.186	-27.658	0.341	-0.259
-467.172	181.782	-0.060	0.117
-466.157	263.232	-0.084	0.193
-465.143	464.058	-0.177	-0.522
-464.128	71.576	-0.130	0.177
-463.113	607.463	-0.145	-0.479
-462.099	59.657	-0.111	0.144
-461.084	-183.799	-0.073	-0.002
-460.070	-153.393	-0.151	0.014
-459.055	-111.991	-0.520	-0.137
-458.040	5.813	0.323	-0.313
-457.026	-127.462	-0.341	-0.065
-456.011	-13.370	0.083	0.071
-454.997	-109.520	-0.675	0.186
-453.982	-143.510	0.652	-0.081
-452.968	-130.345	0.312	0.055
-451.953	-25.057	-0.434	0.338
-450.938	-114.163	0.296	0.075
-449.924	156.562	0.080	-0.146
-448.909	34.499	-0.239	0.274
-447.895	-24.153	-0.154	0.121
-446.880	-200.000	-0.161	-0.000
-445.865	-125.837	-0.202	-0.040
-444.851	77.341	0.243	0.340
-443.836	57.144	-0.174	0.223
-442.822	759.478	0.035	-0.125
-441.807	-67.390	-0.412	0.212
-440.792	428.133	-0.063	0.178
-439.778	-152.080	-0.163	0.015
-438.763	713.640	0.055	-0.193
-437.749	-74.190	0.151	-0.071
-436.734	208.804	-0.134	-0.276
-435.719	-72.780	0.487	-0.234
-434.705	127.425	0.330	0.552
-433.690	449.411	-0.204	0.592
-432.676	181.484	-0.237	-0.459
-431.661	-66.389	-0.161	-0.084
-430.646	-87.435	-0.350	-0.138
-429.632	-56.025	0.211	0.123
-428.617	180.745	-0.156	0.301
-427.603	42.894	-0.090	-0.107
-426.588	-28.872	0.373	-0.281
-425.573	-162.405	-0.284	-0.018
-424.559	675.091	0.110	0.377
-423.544	123.208	0.126	-0.207
-422.530	800.000	0.091	0.487
-421.515	-88.845	0.661	-0.256
-420.500	128.846	0.076	-0.127
-419.486	800.000	0.075	-0.332
-418.471	800.000	0.042	-0.193
-417.457	-51.353	-0.127	-0.078
-416.442	283.131	0.184	0.436
-415.428	168.044	-0.244	0.457
-414.413	98.542	-0.120	-0.182
-413.398	-9.778	-0.117	0.102
-412.384	-105.962	-0.105	0.031
-411.369	475.837	-0.110	-0.327
-410.355	774.481	-0.048	0.172
-409.340	129.417	-0.161	-0.270
-408.325	117.392	0.389	-0.629
-407.311	227.956	0.160	-0.342
-406.296	68.229	-0.210	0.283
-405.282	193.961	0.034	0.067
-404.267	155.915	0.260	-0.472
-403.252	-129.329	-0.127	-0.023
-402.238	800.000	0.041	0.212
-401.223	-114.424	0.347	0.087
-400.209	-109.639	0.542	-0.149
-399.194	-200.000	0.012	-0.107
-398.179	-185.990	0.194	0.004
-397.165	-200.000	-0.010	0.155
-396.150	767.835	-0.134	0.481
-395.136	-92.633	0.079	-0.029
-394.121	-102.337	-0.310	-0.097
-393.106	-162.823	0.326	-0.021
-392.092	-6.073	-0.086	-0.077
-391.077	13.182	0.443	-0.450
-390.063	104.456	0.094	0.146
-389.048	88.035	0.088	0.128
-388.033	-200.000	-0.001	0.089
-387.019	-146.124	-0.223	0.025
-386.004	292.979	-0.115	-0.275
-384.990	407.086	-0.184	-0.512
-383.975	78.299	-0.225	-0.316
-382.960	-147.322	0.282	0.031
-381.946	-200.000	0.082	-0.476
-380.931	-60.286	-0.160	-0.089
-379.917	-100.469	0.392	-0.126
-378.902	221.906	0.233	-0.492
-377.888	-200.000	0.108	-0.780
-376.873	99.584	0.316	-0.480
-375.858	-160.172	-0.577	0.040
-374.844	24.933	-0.433	0.471
-373.829	78.958	-0.193	-0.270
-372.815	776.631	0.155	-0.557
-371.800	-112.541	0.347	0.090
-370.785	-172.740	-0.186	-0.007
-369.771	-36.270	0.308	0.217
-368.756	176.935	-0.080	-0.152
-367.742	190.660	0.071	-0.141
-366.727	96.372	0.122	0.183
-365.712	-109.374	-0.297	-0.082
-364.698	416.734	-0.120	-0.336
-363.683	308.379	-0.080	-0.197
-362.669	-125.065	-0.424	0.085
-361.654	-165.358	0.261	-0.015
-360.639	659.810	0.045	0.153
-359.625	61.296	0.371	-0.483
-358.610	-102.039	-0.315	-0.099
-357.596	800.000	-0.008	-0.039
-356.581	132.047	0.074	-0.125
-355.566	-147.308	-0.329	-0.036
-354.552	22.775	0.215	0.231
-353.537	-69.014	0.136	-0.068
-352.523	-30.289	-0.393	-0.292
-351.508	-138.877	-0.214	0.030
-350.493	54.974	0.302	0.382
-349.479	-200.000	-0.007	0.184
-348.464	84.163	0.223	-0.320
-347.450	800.000	0.068	-0.333
-346.435	67.134	-0.213	-0.284
-345.420	185.462	0.227	-0.443
-344.406	161.348	0.129	0.236
-343.391	800.000	0.037	0.140
-342.377	11.834	0.194	-0.194
-341.362	112.805	0.270	-0.428
-340.348	295.623	-0.017	-0.040
-339.333	-86.365	0.258	0.103
-338.318	-97.241	-0.208	-0.070
-337.304	800.000	-0.030	-0.144
-336.289	58.449	-0.245	-0.315
-335.275	-97.427	0.211	-0.071
-334.260	24.274	-0.273	0.295
-333.245	-68.367	-0.280	-0.142
-332.231	-200.000	0.034	0.308
-331.216	800.000	0.102	-0.576
-330.202	800.000	0.006	0.023
-329.187	136.186	0.108	0.185
-328.172	-125.789	0.366	0.072
-327.158	152.171	0.136	0.244
-326.143	-84.713	-0.473	0.194
-325.129	-29.821	-0.092	-0.068
-324.114	282.691	0.120	0.283
-323.099	-87.934	-0.280	0.109
-322.085	-200.000	-0.058	-0.419
-321.070	6.544	0.331	-0.321
-320.056	800.000	-0.115	0.618
-319.041	19.831	-0.188	0.198
-318.026	-162.606	0.232	0.015
-317.012	-2.504	-0.148	0.136
-315.997	-90.090	-0.501	0.190
-314.983	-17.777	-0.231	0.189
-313.968	-0.528	0.312	-0.289
-312.953	-95.242	0.544	0.190
-311.939	185.057	0.084	0.163
-310.924	-87.246	0.284	0.112
-309.910	91.683	0.338	0.498
-308.895	-200.000	-0.010	-0.396
-307.880	-33.648	0.049	0.035
-306.866	-108.021	0.127	0.036
-305.851	-147.014	0.416	0.046
-304.837	-200.000	0.007	0.152
-303.822	42.621	-0.167	0.199
-302.807	800.000	-0.087	0.374
-301.793	-185.492	0.536	0.010
-300.778	-113.236	0.929	-0.237
-299.764	525.906	0.105	-0.323
-298.749	-200.000	-0.071	-0.429
-297.735	114.653	0.148	0.237
-296.720	-163.276	0.301	-0.019
-295.705	-125.769	0.164	-0.032
-294.691	-200.000	0.057	-0.456
-293.676	-200.000	-0.016	0.283
-292.662	-200.000	0.031	0.245
-291.647	-59.084	0.326	0.183
-290.632	-191.246	-0.348	-0.005
-289.618	-200.000	0.034	0.290
-288.603	39.241	0.043	0.050
-287.589	-200.000	0.003	0.079
-286.574	-170.092	-0.273	-0.012
-285.559	559.738	0.072	-0.228
-284.545	-57.484	-0.242	0.138
-283.530	-78.664	0.371	0.165
-282.516	3.904	0.216	-0.206
-281.501	-200.000	0.034	0.233
-280.486	-67.721	-0.078	0.040
-279.472	-57.706	0.238	-0.135
-278.457	776.053	-0.102	0.365
-277.443	-37.043	-0.386	-0.269
-276.428	401.537	0.095	0.260
-275.413	1.707	0.292	0.274
-274.399	-64.451	0.546	0.288
-273.384	360.454	0.118	-0.310
-272.370	-181.711	0.029	0.001
-271.355	800.000	-0.035	-0.197
-270.340	-73.798	-0.139	0.065
-269.326	-149.912	0.290	0.029
-268.311	128.230	0.242	0.402
-267.297	79.642	-0.258	0.361
-266.282	-121.977	0.384	-0.082
-265.267	487.199	0.073	0.217
-264.253	-38.435	0.194	-0.133
-263.238	-87.657	0.290	-0.114
-262.224	-13.557	0.259	0.219
-261.209	-200.000	0.008	0.346
-260.195	-175.839	0.170	0.006
-259.180	-28.598	0.520	0.390
-258.165	563.947	0.037	0.116
-257.151	-14.259	-0.336	0.282
-256.136	-200.000	-0.036	-0.356
-255.122	279.428	0.098	0.230
-254.107	86.094	0.357	0.512
-253.092	108.509	-0.295	0.460
-252.078	206.259	-0.293	0.597
-251.063	16.513	-0.029	-0.029
-250.049	-95.219	0.510	-0.178
-249.034	-26.704	0.414	-0.315
-248.019	128.333	-0.131	-0.218
-247.005	15.896	-0.338	-0.346
-245.990	-163.074	-0.102	0.006
-244.976	-122.430	-0.433	0.091
-243.961	559.576	-0.130	-0.412
-242.946	-82.781	0.070	-0.029
-241.932	16.842	0.097	-0.100
-240.917	657.991	0.089	0.300
-239.903	109.390	-0.227	-0.355
-238.888	33.125	-0.147	0.167
-237.873	-71.128	0.106	-0.052
-236.859	-60.793	-0.241	0.133
-235.844	-200.000	-0.038	-0.228
-234.830	-23.977	-0.258	-0.200
-233.815	151.219	-0.069	-0.122
-232.800	283.011	0.120	-0.281
-231.786	583.316	-0.098	-0.316
-230.771	6.431	-0.158	0.152
-229.757	358.737	0.070	0.183
-228.742	41.405	-0.235	-0.277
-227.727	-74.651	-0.394	0.184
-226.713	59.863	-0.176	-0.226
-225.698	-47.675	-0.179	0.113
-224.684	-84.837	0.223	-0.091
-223.669	-200.000	-0.025	0.233
-222.655	314.538	0.086	-0.213
-221.640	-47.626	-0.357	-0.225
-220.625	-33.323	0.285	0.205
-219.611	-74.524	0.578	0.270
-218.596	128.981	0.337	-0.561
-217.582	113.532	0.133	-0.211
-216.567	394.507	-0.074	-0.200
-215.552	-42.807	-0.159	-0.105
-214.538	-200.000	-0.069	-0.741
-213.523	-70.354	-0.119	-0.059
-212.509	684.572	0.087	-0.299
-211.494	-200.000	-0.027	0.565
-210.479	144.406	-0.151	0.263
-209.465	-144.601	-0.515	0.061
-208.450	-146.688	0.378	-0.042
-207.436	-80.287	-0.324	0.140
-206.421	-112.563	-0.451	-0.116
-205.406	-165.171	-0.815	0.046
-204.392	7.242	-0.134	0.130
-203.377	512.464	-0.101	0.308
-202.363	-110.574	-0.306	0.082
-201.348	11.623	-0.373	-0.372
-200.333	-53.737	0.601	0.356
-199.319	-158.301	-0.195	0.015
-198.304	791.033	-0.051	0.183
-197.290	145.121	0.436	0.761
-196.275	153.902	-0.208	0.372
-195.260	103.704	0.193	-0.295
-194.246	-111.119	0.617	0.163
-193.231	-59.104	-0.307	-0.172
-192.217	-103.731	0.155	0.047
-191.202	35.902	0.146	0.167
-190.187	-82.275	0.266	0.112
-189.173	-38.371	0.229	0.157
-188.158	333.272	0.079	0.199
-187.144	-124.079	0.162	-0.033
-186.129	132.237	0.035	0.059
-185.114	79.346	0.255	0.356
-184.100	-50.099	0.360	0.221
-183.085	-133.135	-0.235	-0.038
-182.071	153.980	0.118	-0.211
-181.056	-27.052	0.225	-0.170
-180.042	-127.696	-0.481	-0.090
-179.027	-70.753	0.343	0.168
-178.012	800.000	0.076	-0.341
-176.998	576.491	0.078	0.248
-175.983	107.811	0.100	-0.155
-174.969	234.191	0.115	-0.247
-173.954	-40.979	-0.339	0.227
-172.939	-149.523	0.290	-0.029
-171.925	209.661	-0.048	-0.098
-170.910	-73.686	0.145	-0.068
-169.896	86.409	-0.153	-0.219
-168.881	-107.234	-0.545	-0.155
-167.866	109.415	0.103	0.160
-166.852	-76.600	-0.075	0.034
-165.837	-60.338	-0.666	-0.367
-164.823	-71.259	0.205	0.100
-163.808	49.418	-0.150	-0.184
-162.793	662.281	-0.075	-0.252
-161.779	-67.784	-0.273	-0.138
-160.764	7.031	0.060	-0.058
-159.750	-99.681	-0.368	-0.119
-158.735	31.692	-0.442	0.493
-157.720	229.189	0.240	-0.509
-156.706	-132.742	0.401	-0.066
-155.691	-104.146	0.095	-0.029
-154.677	800.000	0.049	0.212
-153.662	62.461	-0.102	0.132
-152.647	27.001	-0.089	0.096
-151.633	94.771	-0.208	-0.307
-150.618	58.311	-0.383	0.488
-149.604	73.915	0.301	0.411
-148.589	762.673	-0.064	-0.229
-147.574	119.502	-0.091	0.146
-146.560	-106.439	0.295	0.085
-145.545	88.115	-0.012	0.017
-144.531	324.775	-0.139	0.346
-143.516	-173.418	0.638	0.025
-142.502	-124.582	-0.306	-0.061
-141.487	-92.533	-0.695	-0.252
-140.472	-28.130	-0.262	-0.196
-139.458	-86.863	0.095	0.037
-138.443	186.610	-0.240	-0.464
-137.429	84.706	0.182	-0.259
-136.414	800.000	0.067	-0.300
-135.399	6.125	0.305	-0.293
-134.385	-200.000	0.039	0.601
-133.370	-109.291	-0.484	0.132
-132.356	800.000	0.035	-0.155
-131.341	-67.098	-0.214	0.109
-130.326	-112.076	0.253	0.065
-129.312	-21.496	0.274	-0.217
-128.297	-200.000	0.002	-0.340
-127.283	80.720	-0.364	-0.509
-126.268	-195.727	-0.355	-0.003
-125.253	-1.274	-0.359	-0.329
-124.239	-100.793	0.050	-0.016
-123.224	-145.220	-0.326	-0.038
-122.210	-29.021	-0.380	0.282
-121.195	-80.620	0.206	-0.089
-120.180	64.214	0.171	0.223
-119.166	284.674	0.164	-0.385
-118.151	-144.938	-0.472	0.055
-117.137	-10.824	-0.255	-0.218
-116.122	-173.330	0.206	0.008
-115.107	90.851	-0.122	-0.178
-114.093	143.465	-0.220	0.380
-113.078	69.804	0.113	-0.151
-112.064	-200.000	0.041	0.306
-111.049	-142.988	0.455	0.056
-110.034	-200.000	0.043	-0.299
-109.020	23.998	-0.093	0.100
-108.005	-200.000	0.005	0.432
-106.991	375.934	0.107	0.285
-105.976	-200.000	0.012	0.409
-104.962	-29.783	0.480	-0.354
-103.947	-73.884	-0.284	-0.133
-102.932	-64.830	-0.138	0.072
-101.918	98.529	-0.111	0.166
-100.903	800.000	-0.066	-0.243
-99.889	-62.374	-0.176	0.094
-98.874	40.419	0.240	0.280
-97.859	-81.789	0.463	0.196
-96.845	50.412	0.177	0.217
-95.830	-135.422	-0.161	-0.025
-94.816	-9.991	0.236	-0.203
-93.801	-27.356	0.161	-0.121
-92.786	-36.928	0.308	0.213
-91.772	93.016	-0.157	0.229
-90.757	-6.351	-0.059	0.052
-89.743	92.769	-0.267	-0.391
-88.728	-200.000	0.019	-0.541
-87.713	-11.920	-0.261	-0.221
-86.699	520.692	0.118	0.359
-85.684	586.078	0.058	0.185
-84.670	34.030	-0.242	-0.273
-83.655	800.000	-0.117	-0.663
-82.640	-181.110	0.354	0.009
-81.626	35.528	0.097	0.111
-80.611	16.436	-0.427	-0.436
-79.597	-127.322	-0.272	0.051
-78.582	-96.159	-0.238	0.081
-77.567	22.488	0.265	-0.280
-76.553	178.515	-0.146	-0.277
-75.538	141.426	-0.111	0.190
-74.524	-85.291	-0.358	0.144
-73.509	800.000	-0.065	0.332
-72.494	1.238	0.308	0.286
-71.480	-22.818	0.111	-0.086
-70.465	-200.000	0.014	0.204
-69.451	-84.187	-0.146	0.060
-68.436	-72.460	0.245	-0.117
-67.422	352.572	0.083	0.214
-66.407	800.000	0.081	-0.396
-65.392	-15.904	-0.043	-0.035
-64.378	-48.331	0.381	0.237
-63.363	78.522	0.163	0.225
-62.349	-55.238	0.254	0.147
-61.334	26.598	-1.903	-2.060
-60.319	20.961	1.496	1.569
-59.305	197.188	-3.817	-7.555
-58.290	84.170	3.928	5.560
-57.276	413.002	3.756	10.377
-56.261	-200.000	24.863	324.686
-55.246	349.998	1310.359	3363.813
-54.232	52.377	2849.850	3519.058
-53.217	51.037	2660.920	3264.892
-52.203	31.395	2389.940	2655.282
-51.188	27.524	2057.616	2238.271
-50.173	24.279	1944.309	2077.000
-49.159	23.210	1932.122	2051.455
-48.144	22.704	1928.129	2041.252
-47.130	22.700	1925.161	2037.980
-46.115	22.597	1923.695	2035.147
-45.100	22.586	1922.272	2033.437
-44.086	22.524	1920.969	2031.256
-43.071	22.563	1919.012	2029.556
-42.057	22.445	1917.635	2026.663
-41.042	22.629	1916.101	2027.079
-40.027	22.591	1915.427	2025.856
-39.013	22.606	1913.316	2023.713
-37.998	22.477	1913.059	2021.869
-36.984	22.506	1911.607	2020.587
-35.969	22.629	1908.647	2018.793
-34.954	22.530	1907.412	2016.271
-33.940	22.557	1906.773	2015.831
-32.925	22.478	1904.870	2012.825
-31.911	22.506	1904.359	2012.526
-30.896	22.583	1903.004	2011.897
-29.881	22.479	1902.088	2009.659
-28.867	22.343	1901.339	2007.234
-27.852	22.397	1899.987	2006.336
-26.838	22.303	1898.361	2003.469
-25.823	22.424	1895.709	2001.971
-24.809	22.407	1894.737	2000.675
-23.794	22.371	1894.393	1999.816
-22.779	22.482	1891.695	1998.154
-21.765	22.295	1891.165	1995.390
-20.750	22.338	1889.960	1994.521
-19.736	22.293	1889.399	1993.337
-18.721	22.311	1888.560	1992.578
-17.706	22.277	1886.663	1990.119
-16.692	22.423	1884.885	1989.816
-15.677	22.241	1884.938	1987.731
-14.663	22.282	1883.432	1986.533
-13.648	22.244	1882.035	1984.540
-12.633	22.164	1880.726	1982.173
-11.619	22.183	1879.776	1981.310
-10.604	22.400	1876.980	1980.738
-9.590	22.357	1876.738	1979.927
-8.575	22.282	1875.698	1977.902
-7.560	22.225	1874.599	1976.019
-6.546	22.343	1872.474	1975.033
-5.531	22.233	1871.998	1973.211
-4.517	22.207	1871.010	1971.796
-3.502	22.189	1870.878	1971.374
-2.487	22.335	1869.337	1971.314
-1.473	22.409	1865.299	1967.812
-0.458	22.055	1847.311	1944.817
0.556	18.724	1994.002	2047.125
1.571	17.168	2197.168	2234.863
2.586	18.051	2236.075	2286.055
3.600	18.005	2238.668	2287.805
4.615	18.030	2237.735	2286.916
5.629	17.962	2236.231	2284.193
6.644	18.065	2233.302	2282.306
7.659	18.040	2231.482	2279.843
8.673	18.025	2230.178	2278.035
9.688	17.856	2238.920	2284.416
10.702	16.960	2318.983	2353.338
11.717	15.372	2383.377	2395.611
12.731	7.142	2365.392	2259.598
13.746	0.972	2347.389	2154.096
14.761	0.153	2344.918	2139.872
15.775	0.075	2342.597	2136.387
16.790	0.074	2341.042	2134.693
17.804	0.025	2339.587	2132.420
18.819	0.084	2338.765	2132.245
19.834	0.126	2336.274	2130.323
20.848	-0.011	2335.980	2127.849
21.863	0.048	2333.089	2125.803
22.877	0.013	2331.871	2123.935
23.892	0.029	2329.428	2121.690
24.907	0.022	2327.490	2119.568
25.921	0.078	2324.819	2117.678
26.936	-0.043	2323.485	2114.496
27.950	-0.021	2320.853	2112.154
28.965	0.048	2319.050	2111.237
29.980	0.050	2318.044	2110.099
30.994	0.137	2315.116	2108.411
32.009	3.915	2327.397	2172.734
33.023	12.792	2352.081	2321.712
34.038	16.415	2357.935	2378.567
35.053	16.394	2355.470	2375.504
36.067	16.309	2351.368	2369.882
37.082	16.262	2349.810	2367.359
38.096	16.390	2348.161	2367.219
39.111	16.569	2345.636	2366.911
40.126	16.612	2344.285	2365.875
41.140	16.759	2341.769	2365.109
42.155	16.670	2341.146	2362.946
43.169	16.717	2337.672	2359.822
44.184	16.502	2335.670	2354.509
45.199	16.478	2333.405	2351.600
46.213	16.512	2332.940	2351.331
47.228	16.760	2331.115	2352.668
48.242	16.721	2329.240	2349.949
49.257	16.781	2327.541	2348.790
50.271	16.867	2324.732	2346.882
51.286	16.627	2322.379	2340.877
52.301	16.432	2321.154	2336.653
53.315	17.181	2322.918	2348.565
54.330	19.824	2329.973	2392.203
55.344	21.475	2330.725	2415.634
56.359	21.553	2328.566	2414.185
57.374	21.783	2327.220	2415.680
58.388	21.963	2324.494	2415.049
59.403	21.719	2320.577	2407.332
60.417	21.443	2317.018	2399.538
61.432	21.453	2316.391	2398.739
62.447	21.730	2315.862	2401.731
63.461	21.941	2313.748	2402.149
64.476	22.121	2311.352	2401.853
65.490	21.709	2309.372	2393.839
66.505	20.852	2305.354	2377.647
67.520	18.872	2298.694	2343.380
68.534	17.009	2290.163	2308.940
69.549	16.384	2286.109	2296.038
70.563	16.414	2283.032	2293.089
71.578	16.361	2281.898	2290.948
72.593	16.499	2280.272	2290.925
73.607	16.598	2278.613	2290.330
74.622	16.484	2277.726	2287.619
75.636	16.385	2273.629	2281.874
76.651	16.273	2272.066	2278.522
77.666	16.357	2269.546	2276.853
78.680	16.252	2267.478	2273.083
79.695	16.186	2265.272	2269.716
80.709	16.191	2263.151	2267.385
81.724	16.195	2261.327	2265.335
82.739	16.120	2259.035	2261.766
83.753	16.126	2257.470	2260.000
84.768	16.043	2255.658	2256.802
85.782	15.970	2254.558	2254.455
86.797	16.112	2251.759	2253.290
87.812	16.270	2250.250	2253.636
88.826	16.343	2248.294	2252.376
89.841	16.289	2245.955	2249.043
90.855	16.286	2243.605	2246.381
91.870	16.333	2242.948	2246.079
92.884	16.417	2240.078	2244.060
93.899	16.380	2239.331	2242.556
94.914	16.958	2241.435	2252.099
95.928	19.335	2248.245	2290.453
96.943	20.180	2246.382	2299.556
97.957	17.862	2237.532	2259.415
98.972	16.509	2231.623	2235.213
99.987	16.375	2228.899	2230.438
101.001	16.422	2225.092	2226.980
102.016	16.243	2223.589	2222.843
103.030	16.200	2221.486	2219.900
104.045	16.207	2218.792	2217.035
105.060	16.167	2216.647	2214.097
106.074	16.206	2214.920	2212.629
107.089	16.243	2214.265	2212.188
108.103	16.215	2212.961	2210.251
109.118	16.331	2211.475	2210.034
110.133	16.434	2209.975	2209.625
111.147	16.342	2206.578	2204.758
112.162	16.266	2205.742	2202.665
113.176	16.359	2203.306	2201.185
114.191	16.513	2201.768	2201.391
115.206	16.544	2200.694	2200.467
116.220	16.444	2198.261	2196.465
117.235	16.428	2196.212	2193.945
118.249	16.367	2195.366	2192.046
119.264	16.377	2193.695	2190.243
120.279	16.360	2191.087	2187.158
121.293	16.436	2189.162	2185.962
122.308	16.374	2188.350	2184.084
123.322	16.184	2187.643	2180.639
124.337	16.723	2188.498	2188.231
125.352	19.347	2195.390	2229.009
126.366	19.875	2193.910	2234.095
127.381	17.373	2183.319	2190.695
128.395	16.356	2178.662	2172.614
129.410	16.310	2175.769	2168.872
130.424	16.177	2173.545	2164.689
131.439	16.252	2172.173	2164.026
132.454	16.282	2172.161	2164.141
133.468	16.413	2169.173	2162.585
134.483	16.512	2168.641	2163.080
135.497	16.533	2166.819	2161.271
136.512	16.528	2163.484	2157.612
137.527	16.387	2161.150	2153.224
138.541	16.265	2159.674	2149.936
139.556	16.286	2158.950	2149.222
140.570	16.123	2158.406	2146.348
141.585	16.217	2155.816	2144.705
142.600	16.261	2153.953	2143.169
143.614	16.160	2152.814	2140.490
144.629	16.126	2150.753	2137.743
145.643	16.127	2149.072	2135.834
146.658	16.341	2146.840	2136.073
147.673	16.107	2145.621	2131.635
148.687	16.077	2144.914	2130.300
149.702	16.276	2143.624	2131.289
150.716	16.325	2142.288	2130.328
151.731	16.363	2141.533	2129.808
152.746	16.324	2140.549	2128.070
153.760	17.047	2143.615	2140.033
154.775	19.531	2150.064	2177.750
155.789	20.350	2147.139	2184.896
156.804	17.972	2137.276	2144.624
157.819	16.492	2130.429	2118.857
158.833	16.167	2127.561	2111.660
159.848	16.290	2125.560	2110.973
160.862	16.243	2124.420	2108.995
161.877	16.334	2123.783	2109.260
162.892	16.374	2122.906	2108.636
163.906	16.402	2121.529	2107.367
164.921	16.429	2119.119	2105.060
165.935	16.409	2116.906	2102.353
166.950	16.447	2116.546	2102.220
167.964	16.347	2114.352	2098.546
168.979	16.212	2111.365	2093.644
169.994	16.223	2110.212	2092.383
171.008	16.210	2107.451	2089.233
172.023	16.217	2106.096	2087.737
173.037	16.119	2106.377	2086.536
174.052	16.385	2103.858	2087.104
175.067	16.368	2102.714	2085.504
176.081	16.236	2100.747	2081.661
177.096	16.419	2099.022	2081.974
178.110	16.376	2098.174	2080.351
179.125	16.381	2097.319	2079.314
180.140	16.302	2096.066	2076.847
181.154	16.352	2094.877	2076.036
182.169	16.500	2094.617	2077.359
183.183	17.223	2095.427	2086.849
184.198	20.036	2101.551	2127.463
185.213	20.486	2098.898	2130.080
186.227	17.665	2091.080	2087.208
187.242	16.534	2086.679	2068.664
188.256	16.460	2084.375	2065.229
189.271	16.305	2082.681	2061.396
190.286	16.070	2081.995	2057.591
191.300	16.372	2078.423	2057.514
192.315	16.295	2076.625	2054.550
193.329	16.362	2076.848	2055.338
194.344	16.663	2075.602	2057.540
195.359	16.615	2074.066	2055.186
196.373	16.362	2072.056	2049.862
197.388	16.372	2068.625	2046.345
198.402	16.209	2067.784	2043.276
199.417	16.236	2064.600	2040.223
200.432	16.323	2063.117	2039.571
201.446	16.310	2062.516	2038.570
202.461	16.162	2060.666	2034.704
203.475	16.236	2058.614	2033.332
204.490	16.201	2056.379	2030.460
205.504	16.125	2054.935	2027.863
206.519	16.154	2053.374	2026.430
207.534	16.276	2050.991	2025.313
208.548	16.164	2050.374	2023.114
209.563	16.141	2049.459	2021.692
210.577	16.336	2047.960	2022.320
211.592	16.351	2047.170	2021.467
212.607	17.647	2052.280	2041.889
213.621	20.723	2058.969	2085.409
214.636	20.000	2053.063	2070.493
215.650	17.292	2043.677	2028.343
216.665	16.447	2040.136	2014.473
217.680	16.476	2037.512	2011.991
218.694	16.224	2035.891	2007.138
219.709	16.192	2034.709	2005.343
220.723	16.359	2033.718	2006.120
221.738	16.378	2032.685	2005.092
222.753	16.395	2030.508	2002.900
223.767	16.405	2029.286	2001.577
224.782	16.427	2026.680	1999.033
225.796	16.444	2026.057	1998.372
226.811	16.367	2024.797	1995.982
227.826	16.458	2023.040	1995.092
228.840	16.373	2020.887	1991.726
229.855	16.352	2019.200	1989.573
230.869	16.347	2017.937	1988.033
231.884	16.412	2015.319	1985.979
232.899	16.338	2013.932	1983.507
233.913	16.359	2013.903	1983.479
234.928	16.386	2012.559	1982.246
235.942	16.310	2010.727	1979.301
236.957	16.344	2009.259	1978.021
237.972	16.314	2008.342	1976.527
238.986	16.314	2006.606	1974.589
240.001	16.271	2005.380	1972.632
241.015	16.359	2004.806	1972.870
242.030	17.172	2006.456	1983.798
243.045	19.567	2011.402	2016.609
244.059	19.814	2008.596	2016.443
245.074	17.488	1999.370	1979.787
246.088	16.661	1995.490	1966.047
247.103	16.651	1994.580	1964.802
248.117	16.577	1993.098	1962.240
249.132	16.431	1991.552	1958.785
250.147	16.420	1989.441	1956.346
251.161	16.392	1987.623	1954.007
252.176	16.542	1987.819	1955.700
253.190	16.834	1984.650	1955.736
254.205	16.761	1982.943	1952.979
255.220	16.570	1981.517	1949.125
256.234	16.556	1981.384	1948.597
257.249	16.472	1979.121	1945.176
258.263	16.412	1977.142	1942.301
259.278	16.567	1976.126	1942.858
260.293	16.466	1974.791	1940.153
261.307	16.198	1973.314	1935.377
262.322	16.288	1970.309	1933.238
263.336	16.209	1969.373	1931.173
264.351	16.059	1967.748	1927.623
265.366	16.097	1966.269	1926.384
266.380	16.141	1965.924	1926.324
267.395	16.202	1963.397	1924.307
268.409	16.151	1961.999	1922.130
269.424	16.224	1961.240	1921.990
270.439	16.196	1959.865	1920.090
271.453	17.241	1962.521	1934.426
272.468	19.836	1967.686	1969.012
273.482	20.033	1963.382	1966.716
274.497	17.336	1955.133	1927.528
275.512	16.310	1950.968	1911.528
276.526	16.211	1949.300	1908.542
277.541	16.293	1946.536	1906.540
278.555	16.126	1945.629	1903.524
279.570	16.019	1943.569	1900.064
280.585	16.240	1942.262	1901.065
281.599	16.130	1941.230	1898.583
282.614	16.346	1940.005	1899.604
283.628	16.316	1940.205	1899.234
284.643	16.553	1939.610	1901.099
285.657	16.743	1938.479	1901.907
286.672	16.724	1936.383	1899.411
287.687	16.895	1933.582	1898.354
288.701	16.632	1933.272	1894.867
289.716	16.646	1931.655	1893.207
290.730	16.636	1930.307	1891.552
291.745	16.802	1928.337	1891.258
292.760	16.786	1928.068	1890.590
293.774	16.684	1927.063	1888.234
294.789	16.616	1924.786	1885.009
295.803	16.460	1923.556	1881.840
296.818	16.378	1922.310	1879.474
297.833	16.494	1920.373	1878.651
298.847	16.378	1919.182	1875.964
299.862	16.536	1917.315	1875.681
300.876	17.251	1918.489	1884.578
301.891	19.950	1924.566	1920.451
302.906	20.282	1922.661	1922.025
303.920	17.486	1915.153	1883.232
304.935	16.596	1910.377	1868.445
305.949	16.553	1908.000	1865.414
306.964	16.642	1906.517	1864.726
307.979	16.747	1904.377	1863.575
308.993	16.672	1904.158	1862.302
310.008	16.995	1902.133	1863.667
311.022	16.911	1901.268	1861.677
312.037	16.729	1899.408	1857.624
313.052	16.728	1897.900	1855.913
314.066	16.801	1896.662	1855.280
315.081	16.937	1895.802	1855.720
316.095	16.815	1894.211	1852.595
317.110	16.631	1892.833	1849.007
318.125	16.496	1891.497	1846.002
319.139	16.615	1890.334	1845.948
320.154	16.632	1888.602	1844.219
321.168	16.408	1886.719	1839.707
322.183	16.286	1885.511	1836.982
323.197	16.319	1883.750	1835.400
324.212	16.282	1880.928	1832.028
325.227	16.017	1879.521	1827.554
326.241	15.999	1877.863	1825.526
327.256	16.199	1875.914	1825.591
328.270	16.134	1876.076	1824.825
329.285	16.291	1875.178	1825.430
330.300	17.331	1878.935	1840.193
331.314	20.361	1884.351	1878.276
332.329	20.082	1879.949	1870.641
333.343	17.321	1870.706	1831.365
334.358	16.201	1868.031	1816.417
335.373	16.108	1866.819	1814.010
336.387	16.052	1863.586	1810.054
337.402	16.012	1862.270	1808.127
338.416	16.247	1860.829	1809.043
339.431	16.347	1860.070	1809.159
340.446	16.383	1858.009	1807.329
341.460	16.419	1857.933	1807.431
342.475	16.514	1857.313	1807.623
343.489	16.728	1854.818	1807.275
344.504	16.648	1853.525	1804.949
345.519	16.823	1851.974	1805.086
346.533	16.970	1851.093	1805.586
347.548	16.978	1849.838	1804.235
348.562	16.801	1848.314	1800.647
349.577	16.834	1847.456	1799.938
350.592	17.028	1846.121	1800.501
351.606	17.006	1845.339	1799.288
352.621	16.918	1843.522	1796.356
353.635	16.637	1842.682	1792.332
354.650	16.546	1840.906	1789.420
355.665	16.710	1837.841	1787.970
356.679	16.596	1836.082	1784.842
357.694	16.513	1835.692	1783.370
358.708	16.470	1834.673	1781.705
359.723	17.554	1838.528	1796.742
360.738	20.461	1842.755	1831.501
361.752	19.615	1838.151	1817.759
362.767	17.239	1830.527	1784.949
363.781	16.575	1827.513	1774.799
364.796	16.552	1825.495	1772.389
365.810	16.359	1825.081	1769.737
366.825	16.516	1824.204	1770.330
367.840	16.744	1823.308	1771.640
368.854	16.697	1821.554	1769.237
369.869	16.510	1820.423	1765.964
370.883	16.412	1818.527	1762.880
371.898	16.325	1817.620	1760.877
372.913	16.394	1816.366	1760.175
373.927	16.425	1815.902	1759.846
374.942	16.633	1814.269	1760.223
375.956	16.688	1812.039	1758.420
376.971	16.530	1810.611	1755.181
377.986	16.485	1809.107	1753.040
379.000	16.568	1807.668	1752.298
380.015	16.688	1805.678	1751.411
381.029	16.650	1803.663	1748.847
382.044	16.365	1802.058	1744.126
383.059	16.370	1800.768	1742.718
384.073	16.259	1800.027	1740.643
385.088	16.437	1798.919	1741.211
386.102	16.260	1797.956	1738.237
387.117	16.382	1795.817	1737.220
388.132	16.297	1794.760	1735.114
389.146	17.232	1799.193	1748.867
390.161	20.211	1803.037	1783.233
391.175	20.059	1795.951	1774.447
392.190	17.162	1788.227	1736.867
393.205	16.709	1784.758	1728.640
394.219	16.398	1784.447	1724.937
395.234	16.261	1783.345	1722.267
396.248	16.325	1780.805	1720.257
397.263	16.351	1779.133	1718.708
398.278	16.431	1777.253	1717.499
399.292	16.455	1776.145	1716.468
400.307	16.316	1776.120	1714.824
401.321	16.321	1774.931	1713.524
402.336	16.506	1773.290	1713.614
403.350	16.699	1771.372	1713.520
404.365	16.687	1770.389	1712.243
405.380	16.825	1770.418	1713.465
406.394	16.933	1769.407	1713.379
407.409	16.770	1767.361	1709.543
408.423	16.924	1766.046	1709.623
409.438	16.866	1764.184	1707.034
410.453	16.721	1763.663	1704.858
411.467	16.839	1762.433	1704.659
412.482	16.821	1760.732	1702.627
413.496	16.649	1759.557	1699.553
414.511	16.618	1757.630	1697.176
415.526	16.512	1755.514	1693.860
416.540	16.399	1753.983	1691.045
417.555	16.538	1753.760	1692.021
418.569	16.669	1753.274	1692.665
419.584	16.696	1753.294	1692.753
420.599	16.601	1753.221	1691.527
421.613	16.687	1751.698	1690.721
422.628	16.646	1750.012	1688.478
423.642	16.526	1748.178	1685.300
424.657	16.579	1746.561	1684.072
425.672	16.631	1745.173	1683.055
426.686	16.740	1744.357	1683.157
427.701	16.720	1742.610	1681.070
428.715	16.676	1741.496	1679.349
429.730	16.830	1740.333	1679.569
430.745	16.772	1739.177	1677.674
431.759	16.912	1737.707	1677.445
432.774	17.056	1739.015	1679.942
433.788	17.465	1738.979	1683.773
434.803	17.792	1738.377	1686.234
435.818	17.715	1737.451	1684.375
436.832	17.572	1736.715	1682.038
437.847	16.681	1729.645	1666.181
438.861	9.199	1710.463	1574.060
439.876	1.724	1695.920	1487.296
440.890	0.296	1692.752	1470.333
441.905	0.077	1691.484	1466.914
442.920	0.047	1690.718	1465.778
443.934	0.167	1689.094	1465.371
444.949	0.193	1687.724	1464.264
445.963	0.032	1686.907	1461.801
446.978	0.030	1686.832	1461.545
447.993	0.133	1684.539	1460.384
449.007	0.183	1682.546	1458.976
450.022	0.104	1680.703	1456.434
451.036	0.206	1678.673	1455.491
452.051	1.199	1683.072	1468.798
453.066	8.543	1700.013	1555.408
454.080	15.959	1711.221	1638.213
455.095	17.370	1712.024	1652.580
456.109	17.652	1712.869	1655.954
457.124	17.646	1712.791	1655.614
458.139	17.621	1711.313	1653.749
459.153	17.890	1709.209	1654.141
460.168	17.843	1708.097	1652.409
461.182	17.814	1706.515	1650.396
462.197	17.667	1705.441	1647.735
463.212	17.600	1702.713	1644.245
464.226	17.652	1702.143	1644.007
465.241	17.792	1700.613	1643.685
466.255	17.837	1699.851	1643.187
467.270	17.798	1698.273	1641.088
468.285	17.559	1697.235	1637.582
469.299	17.514	1696.124	1635.881
470.314	17.626	1694.394	1635.098
471.328	17.807	1692.920	1635.222
472.343	17.778	1692.140	1633.988
473.358	17.790	1691.391	1633.187
474.372	17.865	1689.030	1631.433
475.387	17.755	1688.000	1629.186
476.401	17.668	1686.665	1626.866
477.416	17.680	1685.277	1625.451
478.430	17.793	1684.343	1625.440
479.445	17.645	1683.242	1622.759
480.460	17.597	1681.105	1620.051
481.474	17.616	1680.841	1619.783
482.489	17.803	1680.053	1620.612
483.503	17.910	1677.761	1619.231
484.518	17.794	1677.154	1617.343
485.533	17.867	1675.099	1615.863
486.547	17.904	1674.274	1615.231
487.562	17.952	1673.649	1614.893
488.576	18.075	1671.755	1614.032
489.591	17.988	1670.283	1611.595
490.606	18.005	1668.275	1609.627
491.620	17.921	1667.381	1607.773
492.635	18.081	1666.077	1607.834
493.649	18.145	1665.622	1607.813
494.664	17.724	1664.219	1602.287
495.679	17.565	1661.601	1598.082
496.693	17.765	1660.585	1598.791
497.708	17.862	1659.976	1598.933
498.722	18.021	1659.112	1599.399
499.737	17.986	1657.348	1597.179
500.752	17.919	1655.753	1594.822
501.766	17.744	1654.399	1591.685
502.781	17.887	1652.820	1591.321
503.795	17.854	1651.404	1589.452
504.810	17.834	1650.349	1588.064
505.825	18.074	1649.766	1589.557
506.839	18.110	1648.184	1588.182
507.854	17.981	1647.421	1586.045
508.868	18.000	1646.231	1584.887
509.883	18.073	1644.596	1583.809
510.898	18.060	1643.049	1582.002
511.912	18.090	1641.422	1580.529
512.927	17.906	1639.808	1577.076
513.941	17.803	1639.479	1575.614
514.956	17.806	1637.407	1573.460
515.971	17.928	1635.859	1572.917
516.985	17.798	1635.445	1571.132
518.000	17.786	1635.654	1571.027
519.014	17.861	1634.446	1570.373
520.029	18.079	1632.595	1570.425
521.043	18.038	1630.880	1568.207
522.058	18.003	1629.776	1566.630
523.073	18.154	1630.082	1568.131
524.087	18.405	1627.658	1567.927
525.102	18.127	1626.698	1564.253
526.116	17.989	1624.924	1561.091
527.131	18.025	1624.312	1560.646
528.146	18.153	1623.208	1560.571
529.160	18.309	1621.520	1560.197
530.175	18.289	1620.195	1558.547
531.189	18.337	1619.684	1558.309
532.204	18.363	1618.190	1556.923
533.219	18.039	1617.015	1552.647
534.233	17.950	1616.259	1550.921
535.248	18.044	1615.543	1550.910
536.262	18.334	1615.006	1552.852
537.277	18.203	1613.979	1550.486
538.292	18.188	1611.720	1547.990
539.306	18.089	1610.295	1545.544
540.321	18.132	1608.578	1544.100
541.335	18.262	1607.214	1543.786
542.350	18.207	1606.487	1542.405
543.365	18.242	1604.577	1540.698
544.379	18.268	1603.253	1539.477
545.394	18.306	1601.915	1538.352
546.408	18.126	1600.499	1535.180
547.423	17.911	1599.471	1532.076
548.438	17.954	1598.330	1531.186
549.452	18.041	1597.591	1531.083
550.467	18.133	1596.445	1530.621
551.481	18.130	1595.294	1529.314
552.496	18.060	1595.034	1528.249
553.511	18.369	1593.785	1529.646
554.525	18.380	1592.118	1527.962
555.540	18.400	1591.753	1527.608
556.554	18.466	1590.056	1526.389
557.569	18.438	1587.434	1523.435
558.583	18.246	1587.365	1521.469
559.598	18.250	1586.362	1520.362
560.613	18.225	1584.971	1518.622
561.627	18.340	1584.176	1518.703
562.642	18.353	1582.697	1517.227
563.656	18.614	1580.879	1517.620
564.671	18.467	1580.728	1515.990
565.686	18.424	1578.343	1513.133
566.700	18.232	1577.430	1510.375
567.715	18.088	1576.660	1508.178
568.729	18.083	1574.218	1505.620
569.744	18.084	1572.121	1503.447
570.759	18.037	1571.401	1502.157
571.773	18.066	1571.537	1502.366
572.788	18.282	1570.603	1503.199
573.802	18.345	1568.500	1501.564
574.817	18.338	1566.664	1499.564
575.832	18.645	1565.671	1501.138
576.846	18.397	1565.239	1498.363
577.861	18.272	1563.868	1495.772
578.875	18.381	1563.296	1496.005
579.890	18.565	1562.462	1496.636
580.905	18.370	1562.117	1494.418
581.919	18.422	1561.661	1494.261
582.934	18.562	1560.125	1493.833
583.948	18.652	1558.136	1492.541
584.963	18.546	1556.359	1489.737
585.978	18.293	1555.827	1486.839
586.992	18.445	1555.042	1487.235
588.007	18.631	1554.762	1488.408
589.021	18.374	1553.028	1484.340
590.036	18.259	1550.677	1480.908
591.051	18.433	1549.588	1481.208
592.065	18.470	1548.329	1480.142
593.080	18.560	1547.070	1479.546
594.094	18.501	1545.727	1477.571
595.109	18.436	1542.874	1474.111
596.123	18.267	1541.556	1471.214
597.138	18.405	1541.985	1472.633
598.153	18.469	1540.393	1471.493
599.167	18.469	1539.529	1470.495
600.182	18.698	1537.751	1470.587
601.196	18.576	1537.632	1469.249
602.211	18.432	1536.220	1466.487
603.226	18.745	1534.482	1467.340
604.240	18.819	1533.385	1466.754
605.255	18.679	1533.473	1465.455
606.269	18.718	1531.662	1463.887
607.284	18.690	1530.480	1462.342
608.299	18.707	1529.110	1461.001
609.313	18.568	1527.980	1458.558
610.328	18.648	1526.227	1457.391
611.342	18.652	1525.535	1456.594
612.357	18.846	1524.731	1457.304
613.372	18.732	1523.778	1455.248
614.386	18.765	1521.931	1453.588
615.401	18.805	1521.985	1453.808
616.415	18.576	1521.482	1451.203
617.430	18.788	1520.442	1451.840
618.445	18.779	1519.452	1450.647
619.459	18.766	1517.481	1448.478
620.474	18.546	1516.292	1445.313
621.488	18.318	1514.981	1441.959
622.503	18.211	1513.730	1439.692
623.518	18.429	1513.258	1440.907
624.532	18.544	1512.244	1440.745
625.547	18.747	1510.757	1440.868
626.561	18.849	1510.456	1441.264
627.576	18.937	1509.424	1440.854
628.591	18.755	1506.944	1436.783
629.605	18.467	1506.118	1433.399
630.620	18.317	1504.193	1430.140
631.634	18.325	1502.734	1428.645
632.649	18.300	1502.516	1428.056
633.663	18.470	1501.617	1428.455
634.678	18.700	1500.418	1429.069
635.693	18.816	1499.537	1429.034
636.707	18.895	1498.063	1428.118
637.722	19.113	1496.681	1428.449
638.736	19.070	1495.809	1427.083
639.751	19.106	1494.348	1425.822
640.766	18.985	1493.367	1423.706
641.780	18.921	1492.565	1422.240
642.795	18.916	1491.131	1420.657
643.809	18.750	1491.087	1419.066
644.824	18.848	1490.491	1419.142
645.839	18.902	1488.673	1417.692
646.853	19.033	1487.188	1417.190
647.868	19.010	1485.121	1414.860
648.882	18.854	1484.440	1412.755
649.897	18.907	1483.038	1411.692
650.912	18.884	1481.944	1410.295
651.926	18.850	1480.980	1408.920
652.941	18.761	1479.881	1406.977
653.955	18.516	1477.725	1402.745
654.970	18.366	1476.726	1400.392
655.985	18.495	1474.931	1399.586
656.999	18.430	1474.222	1398.210
658.014	18.706	1472.663	1398.825
659.028	18.703	1472.587	1398.560
660.043	18.838	1472.292	1399.219
661.058	18.950	1469.859	1397.652
662.072	18.995	1469.227	1397.253
663.087	18.868	1467.749	1394.645
664.101	18.882	1466.918	1393.800
665.116	18.954	1466.398	1393.725
666.131	18.915	1465.451	1392.344
667.145	18.948	1464.361	1391.413
668.160	19.099	1463.068	1391.239
669.174	19.143	1461.743	1390.169
670.189	19.103	1460.550	1388.548
671.204	19.061	1460.075	1387.592
672.218	18.968	1458.957	1385.604
673.233	19.127	1457.542	1385.386
674.247	19.185	1456.764	1384.951
675.262	19.219	1455.883	1384.219
676.276	19.250	1454.244	1382.743
677.291	19.025	1453.465	1380.027
678.306	18.951	1452.107	1377.973
679.320	18.920	1451.181	1376.677
680.335	19.044	1451.128	1377.463
681.349	18.994	1450.464	1376.262
682.364	18.967	1449.302	1374.781
683.379	19.221	1446.856	1374.333
684.393	19.058	1445.631	1371.703
685.408	19.018	1444.938	1370.556
686.422	19.009	1444.228	1369.648
687.437	19.077	1443.637	1369.469
688.452	19.321	1442.839	1370.498
689.466	19.087	1441.300	1367.006
690.481	18.969	1439.418	1364.113
691.495	18.945	1438.298	1362.699
692.510	18.549	1437.043	1358.196
693.525	18.480	1434.444	1355.029
694.539	18.610	1434.674	1356.111
695.554	18.686	1435.048	1356.913
696.568	18.980	1434.558	1358.620
697.583	19.162	1433.236	1358.650
698.598	19.158	1432.505	1357.761
699.612	19.225	1430.546	1356.274
700.627	19.162	1430.137	1355.224
701.641	19.221	1428.147	1353.639
702.656	19.225	1427.708	1353.097
703.671	19.285	1427.125	1352.856
704.685	19.238	1426.470	1351.700
705.700	19.302	1424.970	1350.621
706.714	19.166	1423.324	1347.828
707.729	19.097	1421.651	1345.541
708.744	19.086	1420.641	1344.338
709.758	19.047	1419.364	1342.664
710.773	18.888	1418.338	1340.284
711.787	18.816	1417.205	1338.492
712.802	18.887	1415.459	1337.239
713.816	19.130	1414.698	1338.253
714.831	19.238	1413.870	1338.158
715.846	19.263	1412.860	1337.234
716.860	19.349	1411.675	1336.627
717.875	19.479	1410.334	1336.205
718.889	19.114	1410.043	1332.929
719.904	19.370	1408.765	1333.555
720.919	19.330	1407.745	1332.119
721.933	19.282	1407.114	1330.989
722.948	19.368	1406.102	1330.533
723.962	19.365	1405.063	1329.374
724.977	19.424	1404.077	1328.740
725.992	19.493	1402.490	1327.608
727.006	19.454	1401.379	1326.099
728.021	19.430	1400.197	1324.636
729.035	19.528	1398.482	1323.607
730.050	19.394	1398.053	1322.011
731.065	19.350	1397.133	1320.642
732.079	19.395	1395.858	1319.625
733.094	19.395	1394.748	1318.422
734.108	19.281	1393.429	1316.142
735.123	19.296	1392.088	1314.832
736.138	19.370	1390.890	1314.111
737.152	19.362	1390.536	1313.558
738.167	19.280	1389.720	1312.003
739.181	19.441	1388.506	1311.929
740.196	19.431	1387.759	1310.988
741.211	19.462	1386.688	1310.058
742.225	19.400	1385.865	1308.650
743.240	19.477	1384.374	1307.670
744.254	19.484	1382.937	1306.209
745.269	19.263	1382.328	1303.797
746.284	19.296	1382.194	1303.767
747.298	19.134	1380.579	1300.857
748.313	19.046	1379.130	1298.667
749.327	18.873	1377.710	1295.869
750.342	18.634	1376.473	1292.736
751.356	18.546	1374.208	1289.794
752.371	18.604	1374.299	1290.162
753.386	18.897	1374.453	1292.364
754.400	19.208	1373.845	1293.984
755.415	19.537	1372.168	1294.734
756.429	19.609	1370.791	1293.825
757.444	19.359	1369.995	1291.037
758.459	19.529	1369.238	1291.443
759.473	19.659	1368.302	1291.382
760.488	19.652	1366.852	1289.807
761.502	19.647	1365.823	1288.647
762.517	19.542	1364.684	1286.630
763.532	19.468	1363.273	1284.590
764.546	19.355	1361.447	1281.873
765.561	19.059	1361.144	1279.222
766.575	18.667	1360.380	1275.422
767.590	18.842	1358.782	1275.077
768.605	19.142	1357.411	1275.872
769.619	19.237	1356.393	1275.473
770.634	19.389	1355.259	1275.381
771.648	19.587	1354.566	1276.050
772.663	19.661	1354.280	1276.178
773.678	19.740	1353.633	1275.997
774.692	19.567	1353.049	1274.015
775.707	19.632	1352.675	1273.990
776.721	19.588	1351.975	1272.853
777.736	19.756	1349.933	1272.020
778.751	19.645	1349.118	1270.283
779.765	19.681	1347.568	1268.937
780.780	19.533	1347.473	1267.601
781.794	19.457	1346.823	1266.279
782.809	19.465	1345.382	1264.831
783.824	19.425	1343.908	1263.000
784.838	19.088	1341.984	1258.559
785.853	18.802	1340.987	1255.377
786.867	18.852	1340.656	1255.285
787.882	19.157	1340.050	1256.803
788.897	19.145	1339.733	1256.268
789.911	19.338	1338.610	1256.477
790.926	19.388	1337.511	1255.664
791.940	19.529	1336.085	1255.200
792.955	19.487	1334.882	1253.615
793.969	19.639	1333.804	1253.561
794.984	19.542	1333.436	1252.355
795.999	19.657	1332.135	1251.823
797.013	19.659	1329.969	1249.653
798.028	19.677	1329.208	1248.918
799.042	19.614	1328.862	1247.984
800.057	19.699	1327.897	1247.551
801.072	19.697	1326.423	1246.001
802.086	19.759	1325.317	1245.261
803.101	19.711	1324.253	1243.763
804.115	19.635	1323.368	1242.235
805.130	19.700	1322.392	1241.640
806.145	19.789	1320.810	1240.646
807.159	19.799	1319.191	1239.053
808.174	19.634	1318.302	1236.881
809.188	19.638	1317.016	1235.552
810.203	19.548	1314.964	1232.839
811.218	19.266	1313.669	1229.450
812.232	19.157	1312.341	1227.285
813.247	19.175	1311.280	1226.269
814.261	19.428	1311.405	1228.052
815.276	19.508	1310.478	1227.606
816.291	19.599	1309.324	1227.030
817.305	19.827	1308.168	1227.427
818.320	19.716	1307.658	1226.010
819.334	19.678	1306.709	1224.703
820.349	19.761	1305.183	1223.713
821.364	19.706	1303.671	1221.763
822.378	19.831	1302.111	1221.044
823.393	19.829	1300.573	1219.437
824.407	19.738	1299.620	1217.754
825.422	19.718	1299.684	1217.526
826.437	19.670	1297.877	1215.348
827.451	19.664	1296.064	1213.464
828.466	19.063	1294.900	1207.986
829.480	18.933	1292.994	1205.148
830.495	18.905	1291.977	1203.858
831.509	19.243	1291.410	1205.568
832.524	19.403	1289.952	1205.184
833.539	19.660	1288.910	1205.870
834.553	19.791	1287.626	1205.442
835.568	19.746	1287.121	1204.507
836.582	19.952	1285.511	1204.299
837.597	19.804	1284.576	1202.250
838.612	19.722	1283.665	1200.675
839.626	19.742	1282.068	1199.181
840.641	19.649	1281.126	1197.506
841.655	19.454	1279.674	1194.646
842.670	19.208	1279.061	1192.220
843.685	18.982	1278.163	1189.675
844.699	19.348	1276.616	1190.630
845.714	19.504	1275.765	1190.778
846.728	19.734	1275.260	1191.753
847.743	19.968	1273.963	1192.020
848.758	19.825	1272.897	1189.894
849.772	19.841	1272.014	1189.038
850.787	19.646	1270.473	1186.107
851.801	19.675	1269.732	1185.476
852.816	19.757	1267.869	1184.158
853.831	19.594	1266.512	1181.628
854.845	19.666	1264.616	1180.209
855.860	19.579	1262.852	1177.826
856.874	19.450	1262.392	1176.368
857.889	19.297	1260.848	1173.746
858.904	19.238	1258.880	1171.371
859.918	19.017	1257.032	1168.001
860.933	18.827	1256.228	1165.821
861.947	19.238	1255.217	1167.539
862.962	19.272	1255.076	1167.502
863.977	19.253	1254.126	1166.346
864.991	19.427	1253.857	1167.141
866.006	19.606	1253.458	1167.845
867.020	19.605	1252.428	1166.742
868.035	19.493	1251.097	1164.601
869.049	19.785	1250.260	1165.667
870.064	19.773	1248.863	1164.140
871.079	19.804	1248.498	1163.873
872.093	19.700	1247.922	1162.489
873.108	19.906	1246.614	1162.527
874.122	19.742	1245.205	1159.965
875.137	19.378	1244.755	1156.951
876.152	19.565	1243.520	1156.929
877.166	19.518	1241.840	1154.907
878.181	19.736	1240.596	1155.080
879.195	19.779	1240.002	1154.675
880.210	19.967	1238.987	1154.854
881.225	19.878	1238.303	1153.477
882.239	19.934	1237.474	1152.946
883.254	19.835	1237.140	1151.831
884.268	19.815	1236.550	1151.013
885.283	19.754	1234.885	1148.916
886.298	19.818	1233.140	1147.581
887.312	19.851	1232.044	1146.648
888.327	19.945	1230.553	1145.745
889.341	19.842	1229.399	1143.849
890.356	19.681	1229.486	1142.723
891.371	19.791	1228.845	1142.724
892.385	19.630	1228.346	1141.052
893.400	19.579	1227.460	1139.757
894.414	19.717	1225.192	1138.427
895.429	19.517	1223.032	1134.962
896.444	18.875	1221.081	1128.779
897.458	18.684	1220.068	1126.449
898.473	18.951	1219.833	1127.857
899.487	19.374	1219.608	1130.299
900.502	19.630	1218.928	1131.217
901.517	19.762	1217.677	1130.792
902.531	19.872	1216.743	1130.513
903.546	19.705	1215.993	1128.582
904.560	19.990	1215.572	1129.923
905.575	19.880	1214.768	1128.322
906.589	19.945	1213.871	1127.780
907.604	19.856	1213.438	1126.656
