DTS Sentinel unit serial number:	SN409020Multiplexer serial number:	ORYXHardware model number:	OX4-SRSoftware version number:	ORYX F/W v3.00 Oryx Data Collector v3.7.2.0data status	okinstallation	HaddamTimeLapsedifferential loss correction	single-endedforward channel	channel 3reverse channel	N/Adate	2011/06/22time	09:21:17forward acquisition time	30.00reverse acquisition time	0.00gamma	498.7831k internal	0.1795k external	0.1795temperature offset calibration	1.0074default loss term (dB/km)	0.3790temperature slope calibration	1.3530multiplexer offset coefficient	1.0000multiplexer slope coefficient	1.0000fibre end	0.00T internal ref (°C)	27.84T ext. ref 1 (°C)	23.17T ext. ref 2 (°C)	0.18length (m)	temperature (°C)	Stokes	anti-Stokes-747.200	19.145	0.092	0.095
-746.185	377.859	0.195	0.520
-745.171	-44.689	-0.348	0.225
-744.156	320.848	-0.056	0.140
-743.142	800.000	-0.051	-0.257
-742.127	17.728	0.166	0.172
-741.112	691.975	-0.043	-0.148
-740.098	56.260	0.029	0.037
-739.083	38.217	0.149	0.172
-738.069	198.218	-0.197	0.392
-737.054	92.175	0.165	-0.242
-736.039	140.755	-0.156	0.268
-735.025	-26.843	-0.282	0.213
-734.010	-85.356	-0.233	0.094
-732.996	-135.550	-0.119	0.018
-731.981	-49.890	0.320	0.196
-730.966	800.000	-0.131	-0.501
-729.952	167.792	-0.124	-0.229
-728.937	142.036	0.151	-0.260
-727.923	-80.903	0.081	-0.035
-726.908	71.962	0.204	-0.276
-725.894	117.887	-0.113	-0.181
-724.879	-90.439	-0.238	0.089
-723.864	307.712	-0.209	-0.506
-722.850	-7.333	0.261	-0.229
-721.835	159.719	-0.263	0.476
-720.821	-139.248	-0.792	0.109
-719.806	-200.000	0.035	-0.220
-718.791	131.051	-0.053	-0.088
-717.777	-200.000	-0.037	-0.242
-716.762	-200.000	-0.058	-0.335
-715.748	129.595	-0.319	-0.529
-714.733	113.873	-0.114	-0.179
-713.718	-200.000	-0.003	0.075
-712.704	1.670	0.151	0.141
-711.689	-113.285	-0.121	-0.031
-710.675	67.734	-0.095	0.126
-709.660	-28.636	-0.495	0.368
-708.645	-200.000	0.075	0.540
-707.631	-160.548	0.165	-0.011
-706.616	316.974	0.134	-0.330
-705.602	800.000	0.050	0.220
-704.587	264.796	0.106	-0.239
-703.572	-110.576	0.121	-0.032
-702.558	74.256	-0.235	0.320
-701.543	-200.000	-0.054	0.591
-700.529	504.754	-0.039	0.119
-699.514	321.537	0.090	-0.222
-698.499	-99.239	-0.344	-0.112
-697.485	-97.480	-0.134	-0.045
-696.470	22.531	-0.136	0.144
-695.456	-100.506	-0.221	-0.070
-694.441	-104.378	-0.187	0.056
-693.426	-19.761	-0.204	0.163
-692.412	-73.490	-0.381	0.179
-691.397	-82.102	-0.309	0.130
-690.383	-118.013	-0.223	-0.051
-689.368	800.000	0.062	0.351
-688.354	800.000	0.085	0.462
-687.339	-117.985	0.112	0.026
-686.324	-129.162	-0.199	0.036
-685.310	-118.763	-0.137	-0.031
-684.295	800.000	-0.044	0.189
-683.281	-47.536	-0.033	-0.021
-682.266	-132.197	0.251	0.042
-681.251	188.649	-0.163	-0.316
-680.237	-123.499	0.386	-0.079
-679.222	-14.747	0.172	-0.143
-678.208	376.162	-0.088	-0.234
-677.193	332.468	-0.010	0.026
-676.178	46.109	0.436	-0.522
-675.164	-200.000	0.041	-0.301
-674.149	-30.870	0.064	-0.047
-673.135	-137.155	-0.844	0.123
-672.120	481.793	-0.133	0.392
-671.105	800.000	-0.056	-0.246
-670.091	-100.352	-0.326	0.104
-669.076	-98.693	0.095	-0.031
-668.062	-126.353	-0.340	0.065
-667.047	18.797	0.164	0.170
-666.032	183.214	-0.157	-0.301
-665.018	-54.285	-0.405	-0.237
-664.003	800.000	-0.095	0.380
-662.989	-200.000	0.022	-0.145
-661.974	-200.000	-0.368	0.001
-660.959	-68.543	0.308	-0.154
-659.945	23.395	0.133	-0.141
-658.930	-80.556	-0.279	0.119
-657.916	-39.578	0.360	0.243
-656.901	509.308	0.087	-0.263
-655.886	60.342	0.079	0.101
-654.872	-47.059	-0.295	0.185
-653.857	53.939	-0.264	0.329
-652.843	29.736	0.289	-0.318
-651.828	-54.070	-0.098	-0.058
-650.814	-111.921	-0.536	0.139
-649.799	-200.000	-0.002	-0.089
-648.784	-110.350	0.247	0.066
-647.770	-140.475	-0.417	-0.055
-646.755	-39.990	0.508	-0.341
-645.741	169.400	-0.183	-0.338
-644.726	-29.357	-0.150	0.111
-643.711	-117.539	-0.329	-0.076
-642.697	-180.780	-0.138	0.004
-641.682	-28.779	-0.370	0.274
-640.668	-46.740	0.129	0.081
-639.653	-117.134	-0.229	0.053
-638.638	-61.817	0.229	-0.124
-637.624	389.878	0.170	-0.456
-636.609	800.000	0.158	0.573
-635.595	-180.427	-0.391	-0.010
-634.580	-14.250	0.397	0.330
-633.565	197.186	-0.288	0.568
-632.551	361.157	0.113	-0.293
-631.536	483.582	-0.094	-0.276
-630.522	-156.142	-0.498	0.040
-629.507	284.893	0.129	0.300
-628.492	-76.818	0.115	-0.052
-627.478	438.941	0.066	-0.186
-626.463	-66.320	-0.451	-0.231
-625.449	-73.268	0.177	0.083
-624.434	526.246	0.077	0.236
-623.419	-2.419	-0.438	-0.396
-622.405	-126.169	-0.434	-0.083
-621.390	-200.000	-0.048	-0.341
-620.376	284.502	-0.075	-0.174
-619.361	800.000	0.077	-0.353
-618.346	-13.897	-0.331	-0.275
-617.332	-98.623	-0.470	-0.154
-616.317	-92.333	-0.362	-0.131
-615.303	-29.255	0.237	0.175
-614.288	0.270	0.372	0.342
-613.273	137.378	-0.312	0.527
-612.259	800.000	0.059	0.305
-611.244	218.543	0.098	-0.203
-610.230	-200.000	0.028	-0.298
-609.215	-12.438	0.055	-0.046
-608.201	-59.867	0.553	-0.304
-607.186	23.605	0.286	-0.304
-606.171	41.083	0.164	-0.191
-605.157	555.139	-0.136	-0.423
-604.142	-65.756	0.249	0.128
-603.128	148.494	-0.182	0.318
-602.113	-76.207	-0.203	-0.092
-601.098	-107.940	-0.369	0.103
-600.084	215.867	-0.140	-0.288
-599.069	800.000	-0.034	-0.169
-598.055	-122.727	0.307	0.064
-597.040	-49.377	-0.249	-0.152
-596.025	-4.717	-0.311	0.276
-595.011	122.732	-0.169	0.272
-593.996	-131.655	-0.301	0.051
-592.982	-72.919	0.387	0.182
-591.967	330.498	0.118	0.294
-590.952	-87.986	0.379	0.146
-589.938	-79.967	-0.366	0.158
-588.923	-182.992	-0.326	0.007
-587.909	-200.000	0.058	-0.370
-586.894	-49.534	-0.193	-0.118
-585.879	-200.000	-0.002	-0.064
-584.865	39.121	0.248	0.285
-583.850	-177.126	-0.431	0.014
-582.836	-113.159	0.217	-0.055
-581.821	0.330	0.478	-0.439
-580.806	-63.386	-0.252	-0.133
-579.792	612.612	-0.109	0.354
-578.777	-82.241	0.595	0.248
-577.763	91.537	-0.089	-0.128
-576.748	-149.339	0.259	0.026
-575.733	35.326	0.039	-0.045
-574.719	-200.000	-0.060	-0.734
-573.704	-159.363	0.367	-0.026
-572.690	-55.594	0.215	-0.123
-571.675	92.585	-0.048	-0.070
-570.661	113.470	0.225	0.352
-569.646	-29.327	-0.096	-0.071
-568.631	-69.770	0.098	0.048
-567.617	800.000	-0.108	0.492
-566.602	-200.000	-0.021	0.211
-565.588	-1.492	0.345	-0.313
-564.573	-200.000	-0.040	-0.373
-563.558	35.324	0.268	-0.303
-562.544	39.872	-0.131	-0.151
-561.529	-124.681	-0.210	-0.042
-560.515	83.702	0.355	-0.498
-559.500	-180.220	-0.660	-0.018
-558.485	-2.376	-0.167	-0.151
-557.471	-133.329	-0.240	-0.039
-556.456	-32.863	-0.077	0.055
-555.442	54.851	-0.279	-0.346
-554.427	-49.351	-0.123	-0.075
-553.412	-152.525	0.204	0.019
-552.398	-180.910	-0.164	-0.004
-551.383	-124.152	-0.188	0.038
-550.369	-200.000	0.007	0.236
-549.354	18.445	0.149	-0.153
-548.339	-48.582	-0.103	-0.064
-547.325	98.852	-0.306	0.456
-546.310	-92.715	-0.180	-0.065
-545.296	94.030	-0.162	-0.236
-544.281	800.000	-0.099	-0.405
-543.266	-32.870	-0.126	-0.090
-542.252	8.812	-0.357	-0.346
-541.237	-169.108	-0.188	0.009
-540.223	130.993	-0.260	-0.430
-539.208	-141.907	-0.086	0.011
-538.193	173.725	0.236	0.440
-537.179	-200.000	-0.084	-0.484
-536.164	800.000	0.011	-0.051
-535.150	-32.912	0.317	-0.226
-534.135	-47.897	0.271	-0.168
-533.121	-38.563	0.161	-0.109
-532.106	800.000	-0.088	0.325
-531.091	-60.353	-0.136	0.074
-530.077	21.966	-0.062	0.065
-529.062	-167.706	-0.045	0.002
-528.048	40.647	0.194	-0.225
-527.033	-42.481	0.207	0.135
-526.018	58.736	-0.204	0.257
-525.004	179.462	-0.103	0.194
-523.989	-103.259	-0.412	-0.124
-522.975	-51.119	0.235	-0.141
-521.960	800.000	-0.057	0.263
-520.945	-7.577	-0.087	0.076
-519.931	-80.752	0.505	0.215
-518.916	63.666	-0.115	0.148
-517.902	58.309	-0.280	0.354
-516.887	84.557	0.171	0.241
-515.872	-10.759	0.405	-0.344
-514.858	800.000	-0.051	-0.249
-513.843	294.912	-0.190	0.448
-512.829	-151.488	-0.394	-0.037
-511.814	-182.670	-0.702	0.016
-510.799	-113.242	-0.130	-0.033
-509.785	-92.047	0.417	-0.151
-508.770	30.623	0.125	-0.137
-507.756	-91.924	0.718	-0.260
-506.741	77.892	-0.320	-0.439
-505.726	-59.781	-0.653	-0.358
-504.712	-67.287	-0.174	0.088
-503.697	600.674	-0.073	0.235
-502.683	-36.649	-0.452	-0.311
-501.668	-200.000	-0.014	-0.183
-500.653	-146.535	-0.359	0.040
-499.639	-28.852	-0.245	0.180
-498.624	-125.151	0.408	0.079
-497.610	90.900	-0.157	-0.227
-496.595	-152.954	0.336	-0.030
-495.581	105.801	-0.220	0.335
-494.566	154.991	-0.187	0.331
-493.551	-200.000	-0.055	0.387
-492.537	365.592	0.036	-0.094
-491.522	289.001	-0.294	0.687
-490.508	-48.184	-0.281	0.174
-489.493	50.335	0.164	0.200
-488.478	-82.524	0.281	-0.117
-487.464	-70.952	0.260	0.125
-486.449	-167.664	-0.232	0.012
-485.435	-177.592	-0.373	-0.011
-484.420	36.136	0.337	0.380
-483.405	-121.539	-0.174	0.037
-482.391	-139.774	0.382	-0.051
-481.376	-200.000	-0.027	0.357
-480.362	-41.436	0.403	-0.265
-479.347	31.632	-0.121	-0.133
-478.332	-74.291	-0.658	0.303
-477.318	0.875	-0.323	-0.296
-476.303	80.404	0.220	0.305
-475.289	30.204	-0.352	0.386
-474.274	800.000	-0.045	0.220
-473.259	33.463	0.087	0.097
-472.245	-122.170	0.316	-0.066
-471.230	-200.000	-0.080	0.664
-470.216	-200.000	-0.002	-0.292
-469.201	-45.687	-0.143	-0.090
-468.186	800.000	0.072	0.381
-467.172	67.806	-0.210	-0.275
-466.157	263.043	-0.187	-0.418
-465.143	303.051	0.151	-0.359
-464.128	-200.000	0.027	-0.390
-463.113	53.526	-0.214	0.264
-462.099	329.603	0.122	-0.303
-461.084	-123.640	0.317	-0.064
-460.070	160.887	0.172	-0.308
-459.055	38.061	0.339	0.386
-458.040	-200.000	-0.066	-0.492
-457.026	800.000	0.040	-0.166
-456.011	29.174	0.086	-0.094
-454.997	-29.757	-0.207	0.151
-453.982	-200.000	0.019	0.277
-452.968	-200.000	-0.019	-0.428
-451.953	698.209	-0.041	-0.138
-450.938	-110.917	0.195	-0.051
-449.924	800.000	-0.022	0.124
-448.909	-75.696	0.195	-0.088
-447.895	-81.526	0.184	0.077
-446.880	-111.327	-0.309	-0.080
-445.865	-48.284	0.343	0.212
-444.851	475.397	0.130	0.377
-443.836	-111.215	-0.222	-0.058
-442.822	-82.430	-0.100	-0.042
-441.807	39.362	0.139	-0.159
-440.792	174.206	-0.150	-0.278
-439.778	-73.539	-0.282	-0.131
-438.763	-200.000	-0.016	-0.276
-437.749	-69.422	-0.286	0.140
-436.734	-200.000	-0.044	-0.320
-435.719	362.183	-0.090	-0.231
-434.705	296.805	-0.110	-0.260
-433.690	-70.190	0.497	-0.241
-432.676	364.862	-0.188	-0.486
-431.661	137.930	-0.192	-0.323
-430.646	-111.459	0.233	0.060
-429.632	-92.393	0.061	-0.022
-428.617	800.000	-0.050	0.208
-427.603	215.380	0.085	-0.174
-426.588	-200.000	-0.018	-0.174
-425.573	-63.074	-0.192	-0.101
-424.559	70.167	0.248	0.329
-423.544	4.833	0.301	-0.283
-422.530	0.388	0.179	-0.163
-421.515	-25.546	-0.215	0.163
-420.500	-181.752	0.195	0.005
-419.486	-38.601	-0.287	0.194
-418.471	-101.118	0.202	0.063
-417.457	256.698	0.129	0.284
-416.442	311.981	0.077	-0.186
-415.428	-200.000	-0.011	-0.189
-414.413	-200.000	0.089	-0.543
-413.398	170.011	0.293	0.538
-412.384	-200.000	-0.008	-0.067
-411.369	86.672	-0.270	-0.382
-410.355	-95.727	-0.308	0.105
-409.340	-57.583	-0.213	-0.119
-408.325	-87.569	-0.313	-0.120
-407.311	88.617	-0.175	0.249
-406.296	-83.449	0.172	-0.070
-405.282	-200.000	-0.042	0.344
-404.267	-41.101	0.313	0.206
-403.252	318.817	-0.176	0.427
-402.238	-64.014	-0.435	-0.226
-401.223	-66.999	-0.429	0.216
-400.209	21.229	-0.215	0.223
-399.194	167.214	-0.123	0.224
-398.179	-1.136	0.217	0.196
-397.165	-17.325	0.251	0.202
-396.150	44.262	-0.338	-0.397
-395.136	-138.123	0.275	-0.039
-394.121	-200.000	-0.036	-0.389
-393.106	328.137	0.082	-0.201
-392.092	-180.399	0.160	-0.004
-391.077	-200.000	-0.023	-0.366
-390.063	-136.956	0.255	0.037
-389.048	-200.000	0.040	-0.294
-388.033	190.328	0.109	-0.211
-387.019	-5.719	0.241	-0.211
-386.004	-105.199	0.081	-0.023
-384.990	-129.531	0.271	0.048
-383.975	-175.267	-0.045	-0.002
-382.960	-138.230	0.149	0.021
-381.946	-179.456	-0.225	0.006
-380.931	414.460	-0.123	0.338
-379.917	-104.806	-0.507	0.148
-378.902	-129.635	-0.500	0.087
-377.888	103.391	-0.138	0.207
-376.873	95.777	0.100	0.146
-375.858	-142.104	0.310	-0.039
-374.844	-49.743	-0.105	-0.064
-373.829	-200.000	0.068	0.636
-372.815	227.012	-0.074	0.155
-371.800	-47.868	-0.260	-0.160
-370.785	-29.069	0.072	-0.053
-369.771	-57.424	0.158	-0.088
-368.756	-26.414	-0.268	0.201
-367.742	-74.195	-0.200	-0.092
-366.727	70.005	0.302	0.398
-365.712	238.385	-0.126	0.268
-364.698	-43.880	-0.109	0.070
-363.683	800.000	0.019	-0.075
-362.669	-59.327	0.525	-0.287
-361.654	-141.018	0.589	0.076
-360.639	63.903	-0.231	-0.297
-359.625	3.487	-0.101	0.094
-358.610	44.078	0.140	0.164
-357.596	711.582	-0.058	0.199
-356.581	189.542	-0.195	-0.375
-355.566	-184.157	0.338	0.007
-354.552	800.000	0.066	-0.262
-353.537	-98.534	0.043	-0.014
-352.523	147.963	0.109	0.189
-351.508	-25.522	-0.189	-0.142
-350.493	235.517	0.138	0.292
-349.479	196.416	-0.209	-0.408
-348.464	73.813	0.121	0.163
-347.450	-183.493	0.141	0.003
-346.435	27.608	0.114	-0.122
-345.420	-125.727	-0.491	0.094
-344.406	-131.469	0.589	-0.098
-343.391	110.309	-0.136	-0.210
-342.377	221.389	-0.332	0.683
-341.362	-7.549	-0.401	0.346
-340.348	325.297	-0.211	0.518
-339.333	-105.164	0.613	0.177
-338.318	800.000	0.139	0.511
-337.304	-54.488	0.437	-0.252
-336.289	89.090	0.145	-0.206
-335.275	351.322	-0.155	0.394
-334.260	90.846	-0.337	-0.482
-333.245	800.000	0.016	-0.060
-332.231	8.776	-0.522	0.501
-331.216	-194.633	0.513	0.005
-330.202	-51.624	-0.412	-0.244
-329.187	48.267	-0.147	0.175
-328.172	187.535	0.035	-0.066
-327.158	-200.000	-0.005	0.421
-326.143	287.241	0.117	-0.270
-325.129	-84.135	-0.136	0.055
-324.114	199.874	0.111	0.218
-323.099	17.527	0.179	0.181
-322.085	566.040	-0.038	0.120
-321.070	800.000	0.043	-0.184
-320.056	46.354	-0.113	0.133
-319.041	298.152	0.125	0.295
-318.026	-84.275	-0.333	0.134
-317.012	24.080	0.337	-0.354
-315.997	-153.768	0.350	-0.030
-314.983	136.182	0.270	0.450
-313.968	-200.000	0.027	0.230
-312.953	-147.931	-0.191	-0.020
-311.939	800.000	0.091	-0.464
-310.924	-83.173	0.086	-0.035
-309.910	-96.142	-0.364	-0.123
-308.895	-60.162	0.218	0.118
-307.880	-200.000	0.006	0.293
-306.866	-200.000	-0.038	-0.250
-305.851	-127.063	-0.255	-0.047
-304.837	-200.000	0.606	0.004
-303.822	790.771	-0.070	0.246
-302.807	800.000	-0.100	0.428
-301.793	-150.544	-0.346	-0.033
-300.778	-158.113	-0.204	-0.015
-299.764	269.404	0.093	-0.209
-298.749	265.899	0.125	0.279
-297.735	-14.788	0.178	-0.145
-296.720	-112.634	0.346	-0.087
-295.705	177.754	0.108	-0.201
-294.691	82.492	0.227	0.314
-293.676	7.251	0.102	-0.097
-292.662	-179.330	-0.063	0.002
-291.647	-144.784	0.768	0.089
-290.632	-144.433	0.080	0.009
-289.618	189.386	0.033	-0.063
-288.603	-20.540	-0.268	-0.209
-287.589	-37.406	0.472	0.320
-286.574	-28.600	0.311	0.228
-285.559	30.651	0.298	-0.325
-284.545	-57.591	0.235	0.131
-283.530	800.000	0.033	-0.185
-282.516	-130.913	-0.130	0.022
-281.501	-98.603	0.234	0.076
-280.486	206.390	-0.214	0.425
-279.472	530.057	-0.091	0.275
-278.457	-75.921	0.324	-0.145
-277.443	5.443	0.013	-0.013
-276.428	-72.263	0.210	-0.099
-275.413	800.000	0.028	-0.156
-274.399	-67.708	-0.031	0.015
-273.384	-33.441	0.232	-0.163
-272.370	-45.255	-0.308	0.194
-271.355	-135.305	0.313	-0.047
-270.340	573.927	-0.099	-0.310
-269.326	800.000	0.071	0.288
-268.311	-7.935	-0.283	0.243
-267.297	129.416	-0.251	-0.410
-266.282	1.954	-0.281	-0.258
-265.267	800.000	0.053	0.220
-264.253	-200.000	-0.009	-0.077
-263.238	65.411	0.181	0.233
-262.224	77.589	0.025	0.033
-261.209	-200.000	-0.028	-0.160
-260.195	-96.571	0.145	0.048
-259.180	151.194	-0.137	0.238
-258.165	800.000	0.044	0.230
-257.151	0.300	0.150	0.136
-256.136	-105.098	-0.296	0.086
-255.122	-88.299	-0.413	0.156
-254.107	201.685	0.045	-0.088
-253.092	-200.000	-0.005	-0.095
-252.078	319.342	-0.206	-0.499
-251.063	-26.858	-0.173	-0.128
-250.049	-37.976	0.498	-0.336
-249.034	-145.994	-0.085	-0.009
-248.019	450.936	-0.082	0.232
-247.005	32.945	-0.272	0.299
-245.990	375.780	0.243	0.632
-244.976	-124.059	0.194	0.038
-243.961	-183.974	-0.170	0.004
-242.946	-112.558	0.426	-0.107
-241.932	680.176	0.032	-0.105
-240.917	-200.000	0.021	0.123
-239.903	-74.453	0.263	-0.120
-238.888	-200.000	0.083	-0.570
-237.873	159.428	-0.383	-0.679
-236.859	463.885	-0.079	0.227
-235.844	-200.000	0.053	0.310
-234.830	-200.000	-0.063	-0.372
-233.815	359.769	-0.091	-0.233
-232.800	-110.876	0.558	-0.145
-231.786	143.126	0.192	0.325
-230.771	-162.257	0.156	-0.010
-229.757	6.201	-0.105	-0.099
-228.742	-92.730	-0.174	0.061
-227.727	12.817	0.208	0.204
-226.713	-129.880	0.733	0.127
-225.698	81.170	-0.166	0.228
-224.684	800.000	0.071	0.377
-223.669	-63.184	0.452	-0.236
-222.655	-110.305	-0.332	0.087
-221.640	-200.000	-0.003	-0.065
-220.625	544.584	-0.144	-0.440
-219.611	-19.898	-0.187	0.146
-218.596	121.615	-0.111	-0.177
-217.582	267.611	-0.137	-0.306
-216.567	-59.769	-0.445	-0.241
-215.552	-46.399	0.110	-0.068
-214.538	312.287	-0.062	-0.147
-213.523	722.053	-0.082	-0.280
-212.509	370.371	0.144	-0.373
-211.494	95.809	0.045	-0.065
-210.479	113.836	-0.192	0.298
-209.465	-70.350	0.468	-0.224
-208.450	-106.706	-0.378	0.106
-207.436	1.918	0.339	-0.310
-206.421	-119.666	0.358	-0.078
-205.406	-200.000	-0.039	0.332
-204.392	9.951	0.253	0.244
-203.377	-8.998	-0.236	0.201
-202.363	-200.000	0.035	0.261
-201.348	431.224	-0.195	0.540
-200.333	-85.516	-0.242	0.095
-199.319	-73.825	0.340	0.156
-198.304	-200.000	-0.008	0.265
-197.290	-182.054	0.221	0.005
-196.275	220.684	0.318	0.649
-195.260	29.827	0.406	0.439
-194.246	-147.421	0.181	-0.019
-193.231	800.000	0.106	0.385
-192.217	172.398	-0.151	-0.277
-191.202	101.159	0.292	-0.432
-190.187	-125.463	-0.339	-0.065
-189.173	346.743	-0.254	0.637
-188.158	-74.654	-0.227	0.103
-187.144	-81.710	0.296	0.123
-186.129	800.000	0.096	0.538
-185.114	195.862	0.188	0.363
-184.100	247.969	-0.068	-0.147
-183.085	-200.000	-0.052	-0.614
-182.071	-153.325	-0.374	-0.033
-181.056	429.886	-0.060	-0.166
-180.042	-200.000	0.028	0.358
-179.027	-200.000	0.002	-0.212
-178.012	-24.902	0.346	0.260
-176.998	-160.508	0.516	-0.034
-175.983	22.175	-0.055	-0.057
-174.969	-137.071	0.300	0.043
-173.954	-42.883	0.200	-0.129
-172.939	-200.000	0.060	-0.384
-171.925	-167.271	-0.125	-0.006
-170.910	-133.579	0.069	-0.011
-169.896	-102.627	-0.097	-0.029
-168.881	-30.861	-0.324	-0.232
-167.866	169.098	0.043	-0.077
-166.852	285.527	-0.088	0.203
-165.837	465.468	0.110	0.315
-164.823	41.808	0.304	-0.349
-163.808	-105.443	0.445	0.127
-162.793	800.000	0.090	0.496
-161.779	-85.631	0.150	-0.059
-160.764	-43.133	-0.280	-0.179
-159.750	-186.048	-0.509	-0.009
-158.735	800.000	0.055	-0.230
-157.720	64.951	-0.029	0.037
-156.706	800.000	0.067	0.247
-155.691	227.702	0.089	-0.184
-154.677	63.220	-0.077	0.097
-153.662	140.751	-0.142	0.239
-152.647	54.945	0.230	-0.282
-151.633	-200.000	0.031	-0.362
-150.618	99.985	-0.110	0.161
-149.604	180.967	0.175	-0.326
-148.589	19.663	0.124	0.126
-147.574	-80.756	0.482	0.202
-146.560	788.067	-0.039	-0.137
-145.545	149.325	-0.329	-0.566
-144.531	-169.262	0.142	0.007
-143.516	8.243	0.330	-0.314
-142.502	97.549	0.134	-0.196
-141.487	124.824	-0.220	0.351
-140.472	286.277	-0.143	0.329
-139.458	451.310	-0.075	-0.211
-138.443	13.373	-0.193	-0.189
-137.429	-9.833	0.379	0.319
-136.414	800.000	0.050	0.182
-135.399	-104.170	-0.133	-0.039
-134.385	-21.956	0.136	0.105
-133.370	800.000	0.077	0.416
-132.356	308.593	-0.190	-0.450
-131.341	-50.333	-0.361	-0.215
-130.326	-137.301	0.624	0.089
-129.312	36.441	0.192	-0.215
-128.297	-119.910	0.143	0.031
-127.283	-51.982	-0.071	0.042
-126.268	-105.451	0.219	-0.062
-125.253	-83.716	-0.320	-0.129
-124.239	-200.000	-0.035	-0.470
-123.224	-200.000	0.062	-0.533
-122.210	800.000	0.041	0.184
-121.195	227.583	-0.082	0.170
-120.180	-200.000	0.063	-0.377
-119.166	-200.000	-0.035	0.249
-118.151	413.240	-0.091	-0.246
-117.137	34.757	-0.561	0.621
-116.122	97.309	-0.284	-0.412
-115.107	-108.346	0.352	-0.095
-114.093	-19.962	0.189	0.148
-113.078	-200.000	-0.067	-0.388
-112.064	-74.136	-0.578	-0.263
-111.049	297.786	0.091	0.211
-110.034	-68.219	0.293	-0.144
-109.020	367.178	0.084	-0.215
-108.005	800.000	0.067	-0.366
-106.991	-68.845	0.295	0.143
-105.976	-200.000	-0.119	-0.714
-104.962	-80.915	0.179	-0.075
-103.947	-13.031	0.256	0.210
-102.932	178.567	-0.390	-0.722
-101.918	-57.005	-0.315	-0.175
-100.903	-54.841	0.064	0.036
-99.889	-19.711	-0.323	0.252
-98.874	21.392	0.031	-0.031
-97.859	-168.571	0.562	0.027
-96.845	-200.000	-0.003	0.302
-95.830	-113.344	0.198	-0.049
-94.816	-45.391	-0.588	-0.368
-93.801	-106.081	0.459	-0.129
-92.786	-104.539	0.066	-0.019
-91.772	80.506	0.325	0.443
-90.757	-200.000	-0.048	0.394
-89.743	391.263	-0.108	-0.285
-88.728	58.951	-0.042	0.052
-87.713	261.978	0.112	-0.246
-86.699	-200.000	-0.004	0.527
-85.684	517.415	0.227	-0.674
-84.670	109.701	-0.066	-0.100
-83.655	800.000	-0.117	-0.489
-82.640	-172.385	-0.376	-0.015
-81.626	4.406	0.048	0.045
-80.611	-11.213	-0.125	-0.104
-79.597	-140.942	-0.111	-0.014
-78.582	-104.844	-0.517	-0.149
-77.567	-101.889	0.207	-0.063
-76.553	-71.768	-0.415	0.195
-75.538	-122.955	0.137	0.028
-74.524	8.748	0.359	0.341
-73.509	48.443	-0.179	0.212
-72.494	-129.024	-0.136	-0.024
-71.480	-168.877	0.288	0.013
-70.465	1.401	-0.255	-0.232
-69.451	-120.097	0.288	-0.062
-68.436	800.000	0.172	0.617
-67.422	-4.948	0.341	-0.296
-66.407	82.047	-0.145	0.199
-65.392	118.143	0.222	-0.347
-64.378	192.582	-0.079	0.152
-63.363	3.233	-0.328	0.301
-62.349	-23.470	-0.593	-0.449
-61.334	-3.848	-2.154	-1.885
-60.319	-35.840	1.439	0.981
-59.305	323.712	-2.915	-7.049
-58.290	22.115	3.729	3.840
-57.276	363.937	4.198	10.700
-56.261	-200.000	18.022	277.311
-55.246	418.285	1229.349	3331.861
-54.232	59.614	2830.921	3525.678
-53.217	70.305	2699.859	3522.914
-52.203	45.596	2433.699	2837.392
-51.188	37.653	2094.201	2345.772
-50.173	30.096	1976.115	2126.632
-49.159	28.780	1965.468	2099.985
-48.144	28.347	1961.194	2090.369
-47.130	28.233	1958.991	2086.635
-46.115	28.273	1956.608	2084.471
-45.100	28.268	1955.035	2082.650
-44.086	28.024	1954.163	2078.847
-43.071	28.099	1953.258	2078.665
-42.057	28.019	1951.669	2075.976
-41.042	27.944	1950.108	2073.382
-40.027	28.109	1948.132	2073.079
-39.013	28.015	1946.807	2070.512
-37.998	27.931	1945.926	2068.537
-36.984	28.027	1944.492	2068.026
-35.969	28.098	1942.453	2066.582
-34.954	28.024	1940.922	2064.031
-33.940	27.911	1940.984	2062.735
-32.925	27.958	1939.016	2061.090
-31.911	27.941	1937.375	2059.069
-30.896	28.004	1935.639	2057.857
-29.881	27.954	1934.868	2056.387
-28.867	27.929	1933.451	2054.520
-27.852	27.962	1931.919	2053.180
-26.838	27.756	1931.044	2049.844
-25.823	27.886	1929.647	2049.751
-24.809	27.921	1928.063	2048.375
-23.794	27.709	1928.230	2046.087
-22.779	27.824	1925.676	2044.591
-21.765	27.745	1924.274	2042.124
-20.750	27.754	1922.953	2040.745
-19.736	27.750	1921.998	2039.609
-18.721	27.737	1920.954	2038.271
-17.706	27.787	1919.906	2037.640
-16.692	27.931	1918.104	2037.260
-15.677	27.905	1916.819	2035.528
-14.663	27.837	1915.537	2033.321
-13.648	27.769	1914.247	2031.110
-12.633	27.805	1912.529	2029.605
-11.619	27.790	1911.215	2027.969
-10.604	27.771	1910.347	2026.757
-9.590	27.716	1909.129	2024.769
-8.575	27.736	1908.554	2024.299
-7.560	27.729	1906.686	2022.166
-6.546	27.641	1906.184	2020.568
-5.531	27.652	1904.414	2018.739
-4.517	27.729	1903.297	2018.329
-3.502	27.773	1902.963	2018.377
-2.487	27.864	1901.371	2017.623
-1.473	27.835	1897.232	2012.827
-0.458	27.770	1879.290	1992.997
0.556	24.037	2022.774	2088.681
1.571	22.941	2234.495	2292.745
2.586	24.179	2277.506	2353.045
3.600	24.298	2280.432	2357.355
4.615	24.293	2279.562	2356.108
5.629	24.339	2276.702	2353.481
6.644	24.228	2275.612	2350.608
7.659	24.283	2272.965	2348.319
8.673	24.549	2270.456	2348.958
9.688	23.935	2278.679	2349.043
10.702	21.790	2354.495	2397.451
11.717	19.580	2419.153	2431.742
12.731	10.048	2394.738	2272.766
13.746	1.677	2371.028	2132.470
14.761	0.325	2367.655	2110.155
15.775	0.250	2365.230	2106.691
16.790	0.244	2362.054	2103.530
17.804	0.158	2362.101	2102.115
18.819	0.164	2361.681	2101.568
19.834	0.122	2360.377	2099.567
20.848	0.159	2358.813	2098.445
21.863	0.151	2356.424	2095.956
22.877	0.123	2354.758	2093.830
23.892	0.133	2352.286	2091.516
24.907	0.056	2350.424	2088.547
25.921	0.068	2348.380	2086.649
26.936	0.161	2346.456	2085.979
27.950	0.044	2343.987	2081.905
28.965	0.125	2340.935	2080.079
29.980	0.169	2340.115	2079.705
30.994	0.142	2337.995	2077.199
32.009	4.704	2352.473	2153.378
33.023	16.643	2388.556	2353.960
34.038	22.349	2400.947	2445.837
35.053	23.078	2400.186	2454.949
36.067	23.320	2397.935	2455.717
37.082	23.346	2395.811	2453.621
38.096	23.164	2392.854	2447.758
39.111	23.365	2390.820	2448.183
40.126	23.425	2389.620	2447.487
41.140	23.548	2389.365	2448.649
42.155	23.406	2385.693	2442.621
43.169	23.179	2383.954	2437.407
44.184	23.440	2380.549	2437.237
45.199	23.377	2379.724	2435.236
46.213	23.389	2377.799	2433.140
47.228	23.314	2376.311	2430.296
48.242	23.193	2375.006	2426.996
49.257	23.304	2373.074	2426.263
50.271	23.290	2370.514	2423.163
51.286	23.292	2368.538	2420.872
52.301	23.255	2366.742	2418.240
53.315	23.097	2364.952	2413.956
54.330	23.026	2363.793	2411.508
55.344	23.040	2361.555	2409.139
56.359	23.066	2357.648	2405.212
57.374	22.923	2356.421	2401.718
58.388	23.014	2352.994	2399.176
59.403	23.131	2350.178	2397.614
60.417	23.385	2348.182	2398.751
61.432	23.552	2346.947	2399.477
62.447	23.554	2344.854	2397.071
63.461	23.403	2343.933	2393.789
64.476	23.408	2340.981	2390.558
65.490	23.780	2339.942	2394.248
66.505	23.815	2339.245	2393.733
67.520	23.449	2338.490	2387.717
68.534	22.973	2334.639	2377.058
69.549	23.021	2330.936	2373.657
70.563	23.008	2328.890	2371.107
71.578	22.952	2326.468	2367.607
72.593	23.152	2325.851	2369.384
73.607	23.358	2324.607	2370.606
74.622	23.576	2322.623	2371.231
75.636	23.276	2319.170	2363.393
76.651	23.036	2316.721	2357.400
77.666	23.202	2315.319	2357.920
78.680	23.227	2312.591	2355.188
79.695	23.154	2311.893	2353.217
80.709	23.278	2310.814	2353.495
81.724	23.368	2308.935	2352.500
82.739	23.322	2306.808	2349.444
83.753	23.204	2303.722	2344.443
84.768	23.149	2302.300	2341.988
85.782	23.210	2300.845	2341.036
86.797	23.201	2299.252	2339.019
87.812	23.098	2296.523	2334.603
88.826	22.982	2294.828	2331.062
89.841	23.164	2292.695	2331.025
90.855	23.383	2291.064	2331.983
91.870	23.204	2288.622	2326.849
92.884	23.168	2286.820	2324.270
93.899	23.235	2285.609	2323.633
94.914	23.007	2286.167	2320.917
95.928	23.055	2285.650	2320.748
96.943	23.210	2282.659	2319.477
97.957	23.021	2280.833	2314.856
98.972	23.071	2278.012	2312.368
99.987	22.887	2275.280	2306.905
101.001	22.797	2273.059	2303.200
102.016	22.972	2270.530	2302.650
103.030	23.000	2268.548	2300.734
104.045	23.047	2266.825	2299.326
105.060	23.368	2264.622	2301.009
106.074	23.237	2262.818	2297.188
107.089	23.045	2259.781	2291.328
108.103	23.058	2259.892	2291.341
109.118	23.229	2258.392	2291.775
110.133	23.274	2256.728	2290.386
111.147	23.433	2255.903	2291.348
112.162	23.397	2253.583	2288.251
113.176	23.278	2250.377	2283.179
114.191	23.134	2249.220	2279.861
115.206	23.019	2247.155	2276.006
116.220	22.932	2245.130	2272.558
117.235	22.771	2243.273	2268.326
118.249	22.848	2240.448	2266.202
119.264	23.124	2240.199	2269.232
120.279	23.268	2238.999	2269.599
121.293	23.224	2235.999	2265.716
122.308	23.018	2234.730	2261.513
123.322	23.078	2233.374	2260.644
124.337	22.822	2231.583	2255.279
125.352	23.089	2232.490	2259.348
126.366	23.399	2231.407	2261.956
127.381	22.897	2227.200	2251.000
128.395	22.757	2224.072	2245.769
129.410	22.932	2222.507	2246.160
130.424	23.035	2220.403	2245.084
131.439	22.943	2218.861	2242.082
132.454	23.059	2217.473	2241.885
133.468	23.121	2215.529	2240.449
134.483	23.009	2213.153	2236.354
135.497	22.985	2210.796	2233.393
136.512	23.071	2208.466	2231.863
137.527	23.003	2207.268	2229.519
138.541	23.006	2206.155	2228.172
139.556	23.059	2204.310	2226.716
140.570	22.934	2203.883	2224.435
141.585	22.992	2201.844	2222.841
142.600	23.021	2201.106	2222.199
143.614	23.039	2199.148	2220.182
144.629	23.236	2196.567	2219.790
145.643	22.960	2194.673	2214.141
146.658	22.976	2193.531	2212.920
147.673	22.918	2191.005	2209.381
148.687	23.065	2190.336	2210.291
149.702	23.129	2188.733	2209.214
150.716	23.011	2187.675	2206.401
151.731	23.165	2187.513	2207.904
152.746	23.432	2187.216	2210.681
153.760	23.260	2185.714	2206.747
154.775	23.159	2183.990	2203.483
155.789	22.875	2181.649	2197.299
156.804	22.714	2178.720	2192.079
157.819	22.725	2175.912	2189.130
158.833	22.999	2173.339	2189.685
159.848	23.104	2171.717	2189.096
160.862	23.279	2171.023	2190.318
161.877	23.485	2169.769	2191.344
162.892	23.466	2168.201	2189.264
163.906	23.331	2167.357	2186.470
164.921	23.348	2163.768	2182.803
165.935	23.171	2162.368	2178.943
166.950	23.251	2160.039	2177.314
167.964	23.060	2157.687	2172.331
168.979	23.054	2156.099	2170.397
169.994	23.153	2155.398	2170.655
171.008	23.027	2153.116	2166.545
172.023	22.929	2152.375	2164.330
173.037	23.061	2151.128	2164.447
174.052	23.104	2149.722	2163.297
175.067	22.909	2147.267	2158.176
176.081	22.872	2145.446	2155.626
177.096	23.074	2144.466	2156.865
178.110	22.920	2141.875	2152.114
179.125	22.717	2141.189	2148.680
180.140	22.878	2140.259	2149.461
181.154	22.885	2138.534	2147.562
182.169	22.752	2137.301	2144.431
183.183	22.788	2135.925	2143.235
184.198	22.946	2134.456	2143.439
185.213	22.934	2133.612	2142.190
186.227	23.003	2131.905	2141.061
187.242	22.965	2129.437	2137.858
188.256	23.057	2128.725	2138.003
189.271	23.504	2126.956	2141.393
190.286	23.309	2126.353	2138.167
191.300	22.950	2122.909	2130.106
192.315	23.032	2119.880	2127.794
193.329	23.084	2119.896	2128.192
194.344	23.346	2119.485	2130.694
195.359	23.470	2117.954	2130.396
196.373	23.510	2116.290	2128.952
197.388	23.496	2112.670	2124.880
198.402	23.192	2110.155	2118.437
199.417	23.013	2109.314	2115.188
200.432	23.203	2107.067	2114.964
201.446	23.210	2106.340	2114.072
202.461	23.263	2104.896	2112.996
203.475	23.085	2102.733	2108.450
204.490	23.123	2100.495	2106.406
205.504	23.109	2099.015	2104.496
206.519	23.039	2095.800	2100.187
207.534	22.952	2094.373	2097.472
208.548	23.003	2093.597	2097.043
209.563	22.944	2092.109	2094.600
210.577	22.973	2090.844	2093.438
211.592	23.133	2089.274	2093.512
212.607	23.172	2089.560	2094.008
213.621	22.824	2088.013	2088.080
214.636	22.813	2085.311	2084.994
215.650	22.970	2084.546	2085.843
216.665	23.111	2083.015	2085.730
217.680	23.411	2081.272	2087.289
218.694	23.386	2080.481	2085.951
219.709	23.125	2078.520	2080.645
220.723	23.119	2076.933	2078.742
221.738	23.250	2075.280	2078.387
222.753	23.220	2072.947	2075.441
223.767	23.235	2071.600	2074.018
224.782	23.028	2068.698	2068.435
225.796	22.985	2067.074	2066.056
226.811	23.161	2066.106	2066.914
227.826	23.339	2064.954	2067.601
228.840	23.477	2063.982	2067.994
229.855	23.170	2062.553	2062.718
230.869	23.104	2061.073	2060.219
231.884	23.146	2059.699	2059.093
232.899	23.145	2057.312	2056.452
233.913	22.963	2056.366	2053.125
234.928	23.093	2055.762	2053.793
235.942	23.266	2053.877	2053.683
236.957	23.155	2052.072	2050.341
237.972	23.208	2050.239	2048.880
238.986	23.248	2050.708	2049.574
240.001	23.220	2047.724	2046.016
241.015	22.922	2045.500	2040.094
242.030	23.106	2045.222	2041.704
243.045	23.210	2045.040	2042.490
244.059	23.143	2044.105	2040.526
245.074	23.128	2039.947	2035.968
246.088	23.025	2036.739	2031.334
247.103	23.037	2035.352	2029.836
248.117	23.228	2033.522	2029.974
249.132	23.187	2033.079	2028.812
250.147	23.045	2031.173	2025.033
251.161	22.784	2029.396	2020.020
252.176	22.952	2027.610	2019.930
253.190	22.780	2024.482	2014.597
254.205	22.222	2020.381	2003.884
255.220	22.092	2020.155	2001.935
256.234	22.178	2019.577	2002.109
257.249	22.312	2017.793	2001.626
258.263	22.136	2016.153	1997.759
259.278	21.984	2014.993	1994.630
260.293	21.888	2014.732	1993.033
261.307	22.347	2013.388	1996.702
262.322	22.870	2012.458	2001.506
263.336	22.804	2010.539	1998.607
264.351	22.815	2009.957	1997.915
265.366	22.968	2007.932	1997.399
266.380	23.070	2007.262	1997.648
267.395	22.874	2005.231	1993.162
268.409	22.899	2004.034	1992.027
269.424	23.151	2002.744	1993.356
270.439	23.115	2001.613	1991.587
271.453	23.415	1999.801	1992.933
272.468	23.246	1998.291	1989.282
273.482	23.062	1997.090	1985.776
274.497	23.033	1993.978	1982.111
275.512	23.067	1991.894	1980.190
276.526	23.214	1989.715	1979.441
277.541	23.148	1988.370	1977.115
278.555	22.996	1987.218	1974.027
279.570	22.911	1984.370	1970.011
280.585	22.622	1983.180	1965.362
281.599	22.959	1981.824	1967.548
282.614	23.054	1980.380	1966.946
283.628	22.420	1977.847	1957.113
284.643	22.325	1976.209	1954.195
285.657	22.372	1975.886	1954.170
286.672	22.401	1973.710	1952.100
287.687	22.212	1971.074	1947.159
288.701	22.008	1970.022	1943.618
289.716	22.019	1968.484	1941.991
290.730	21.870	1966.739	1938.379
291.745	22.075	1965.584	1939.289
292.760	22.036	1964.380	1937.438
293.774	22.009	1964.570	1937.086
294.789	22.713	1964.610	1944.703
295.803	23.063	1962.326	1946.075
296.818	23.033	1960.417	1943.626
297.833	23.086	1959.836	1943.403
298.847	22.996	1959.183	1941.528
299.862	23.074	1957.512	1940.500
300.876	22.959	1955.429	1936.927
301.891	22.905	1955.226	1935.906
302.906	23.156	1954.719	1937.937
303.920	23.304	1952.812	1937.438
304.935	23.217	1950.045	1933.502
305.949	23.035	1948.101	1929.348
306.964	23.182	1945.788	1928.437
307.979	23.166	1944.447	1926.702
308.993	22.525	1942.185	1917.228
310.008	22.408	1939.179	1912.749
311.022	22.340	1937.524	1910.152
312.037	22.393	1936.480	1909.471
313.052	22.183	1933.783	1904.293
314.066	21.770	1931.584	1897.406
315.081	21.700	1930.992	1895.835
316.095	21.824	1929.419	1895.411
317.110	21.657	1928.393	1892.366
318.125	21.784	1926.834	1891.987
319.139	22.047	1926.442	1894.226
320.154	22.300	1924.928	1895.250
321.168	22.126	1923.534	1891.766
322.183	22.634	1923.570	1897.077
323.197	22.893	1922.386	1898.476
324.212	22.918	1920.369	1896.529
325.227	22.928	1919.776	1895.821
326.241	23.202	1918.624	1897.410
327.256	23.328	1917.365	1897.295
328.270	23.299	1915.684	1895.094
329.285	23.156	1915.961	1893.598
330.300	23.143	1916.419	1893.691
331.314	23.106	1913.630	1890.309
332.329	23.025	1911.716	1887.325
333.343	23.207	1909.776	1887.135
334.358	23.452	1907.942	1887.718
335.373	23.396	1906.304	1885.267
336.387	23.189	1905.493	1882.033
337.402	23.233	1902.256	1879.076
338.416	23.095	1901.178	1876.313
339.431	23.228	1900.068	1876.412
340.446	23.407	1897.888	1875.945
341.460	23.010	1896.006	1869.634
342.475	22.412	1892.530	1859.641
343.489	22.036	1891.008	1853.927
344.504	22.054	1889.680	1852.595
345.519	22.150	1887.224	1850.986
346.533	22.056	1886.223	1848.782
347.548	22.124	1885.837	1848.905
348.562	22.246	1883.147	1847.335
349.577	22.064	1882.275	1844.334
350.592	22.054	1881.710	1843.459
351.606	22.088	1879.900	1841.822
352.621	21.886	1878.418	1838.017
353.635	22.161	1877.632	1839.932
354.650	22.416	1876.923	1841.695
355.665	22.630	1875.219	1842.047
356.679	22.843	1875.032	1843.879
357.694	22.959	1873.673	1843.536
358.708	23.045	1873.118	1843.673
359.723	23.151	1872.965	1844.415
360.738	23.184	1871.522	1843.115
361.752	22.973	1869.739	1838.931
362.767	23.004	1867.164	1836.504
363.781	23.066	1865.832	1835.624
364.796	23.197	1864.524	1835.482
365.810	23.164	1862.983	1833.398
366.825	23.208	1862.308	1832.971
367.840	23.185	1861.029	1831.255
368.854	23.254	1859.472	1830.229
369.869	22.808	1856.836	1822.780
370.883	22.252	1853.907	1813.927
371.898	21.856	1851.782	1807.531
372.913	21.713	1850.147	1804.234
373.927	21.730	1849.603	1803.668
374.942	21.875	1847.705	1803.103
375.956	21.737	1845.861	1799.657
376.971	21.517	1843.699	1795.066
377.986	21.572	1841.926	1793.688
379.000	21.825	1841.778	1795.934
380.015	22.686	1842.446	1805.233
381.029	23.209	1841.820	1809.789
382.044	23.271	1839.979	1808.393
383.059	23.312	1837.673	1806.336
384.073	23.213	1836.550	1803.993
385.088	22.967	1835.397	1800.134
386.102	23.120	1833.030	1799.154
387.117	22.884	1831.644	1795.170
388.132	22.799	1831.946	1794.380
389.146	22.913	1833.337	1796.692
390.161	23.173	1831.222	1797.063
391.175	22.946	1827.113	1790.503
392.190	22.930	1824.386	1787.454
393.205	23.037	1821.868	1785.860
394.219	23.118	1820.669	1785.291
395.234	23.237	1820.261	1785.889
396.248	23.053	1819.347	1782.909
397.263	23.081	1815.959	1779.664
398.278	22.903	1814.070	1775.799
399.292	22.994	1812.741	1775.207
400.307	23.215	1813.208	1777.679
401.321	23.265	1810.747	1775.559
402.336	22.293	1807.879	1762.748
403.350	21.700	1805.970	1754.711
404.365	21.992	1804.658	1756.158
405.380	22.178	1803.505	1756.700
406.394	22.113	1802.571	1754.918
407.409	22.076	1801.255	1753.060
408.423	21.848	1799.291	1748.654
409.438	21.630	1798.091	1745.100
410.453	22.158	1797.911	1749.995
411.467	22.730	1797.079	1754.699
412.482	22.757	1796.453	1754.144
413.496	22.933	1796.154	1755.404
414.511	22.927	1793.913	1752.942
415.526	22.929	1791.492	1750.389
416.540	22.911	1790.042	1748.579
417.555	22.755	1788.873	1745.685
418.569	22.739	1789.161	1745.597
419.584	22.806	1788.936	1745.827
420.599	22.807	1788.247	1744.957
421.613	22.734	1786.561	1742.376
422.628	22.870	1785.205	1742.198
423.642	23.178	1784.047	1743.908
424.657	23.030	1781.840	1740.079
425.672	22.689	1780.777	1735.465
426.686	22.741	1779.589	1734.611
427.701	22.850	1777.643	1733.587
428.715	22.705	1776.039	1730.376
429.730	22.887	1774.922	1730.882
430.745	23.084	1774.420	1732.124
431.759	22.941	1773.602	1729.712
432.774	22.569	1771.583	1723.876
433.788	22.051	1769.607	1716.654
434.803	21.723	1769.034	1712.671
435.818	21.733	1767.982	1711.547
436.832	21.759	1766.785	1710.443
437.847	20.778	1759.422	1693.521
438.861	12.023	1734.613	1584.694
439.876	2.400	1716.178	1474.778
440.890	0.298	1711.959	1450.647
441.905	0.242	1710.575	1448.755
442.920	0.136	1709.704	1446.821
443.934	0.239	1708.354	1446.499
444.949	0.136	1706.317	1443.609
445.963	0.042	1706.146	1442.393
446.978	0.049	1705.722	1441.925
447.993	0.191	1703.929	1441.599
449.007	0.229	1701.329	1439.593
450.022	0.163	1699.695	1437.408
451.036	0.157	1697.919	1435.673
452.051	0.655	1701.143	1443.012
453.066	8.579	1721.489	1536.859
454.080	18.825	1738.983	1651.782
455.095	21.683	1743.381	1683.414
456.109	22.672	1745.282	1694.605
457.124	22.977	1743.477	1695.591
458.139	22.843	1742.773	1693.409
459.153	22.611	1741.886	1690.109
460.168	22.564	1739.589	1687.226
461.182	22.646	1737.558	1685.846
462.197	22.595	1736.205	1683.840
463.212	22.508	1735.138	1681.773
464.226	22.795	1733.738	1682.961
465.241	22.743	1732.331	1680.898
466.255	22.647	1731.835	1679.299
467.270	22.822	1730.122	1679.103
468.285	22.755	1728.700	1676.883
469.299	22.738	1728.129	1675.965
470.314	22.761	1725.950	1673.878
471.328	22.672	1724.063	1670.995
472.343	22.825	1722.834	1671.059
473.358	22.719	1721.825	1668.876
474.372	22.601	1720.546	1666.315
475.387	22.687	1719.604	1666.017
476.401	22.612	1718.697	1664.229
477.416	22.591	1717.117	1662.296
478.430	22.731	1715.900	1662.251
479.445	22.699	1714.007	1659.918
480.460	22.830	1712.750	1659.736
481.474	22.780	1712.319	1658.650
482.489	22.766	1710.760	1656.804
483.503	22.702	1708.490	1653.809
484.518	22.567	1707.497	1651.379
485.533	22.609	1706.193	1650.309
486.547	22.657	1704.781	1649.200
487.562	22.732	1704.308	1649.248
488.576	22.804	1702.026	1647.524
489.591	22.778	1701.162	1646.241
490.606	22.698	1699.925	1644.103
491.620	22.788	1698.511	1643.378
492.635	22.646	1696.425	1639.834
493.649	22.560	1695.120	1637.573
494.664	22.557	1694.339	1636.592
495.679	22.588	1692.370	1634.789
496.693	22.617	1691.378	1633.900
497.708	22.681	1690.665	1633.615
498.722	22.794	1688.989	1632.853
499.737	22.759	1688.224	1631.586
500.752	22.648	1686.551	1628.744
501.766	22.515	1684.809	1625.638
502.781	22.771	1682.474	1625.559
503.795	22.604	1682.131	1623.484
504.810	22.646	1681.474	1623.048
505.825	22.887	1679.963	1623.624
506.839	22.648	1679.340	1620.615
507.854	22.685	1677.482	1618.969
508.868	22.729	1675.811	1617.571
509.883	22.524	1675.021	1614.727
510.898	22.636	1673.342	1613.945
511.912	22.569	1672.209	1612.043
512.927	22.532	1669.912	1609.297
513.941	22.487	1668.832	1607.649
514.956	22.584	1668.427	1607.961
515.971	22.965	1666.990	1609.869
516.985	22.930	1665.551	1607.963
518.000	22.594	1665.190	1604.348
519.014	22.633	1663.015	1602.426
520.029	22.497	1661.482	1599.507
521.043	22.460	1660.299	1597.840
522.058	22.461	1659.618	1597.011
523.073	22.429	1658.829	1595.763
524.087	22.539	1657.092	1594.903
525.102	22.615	1656.059	1594.407
526.116	22.746	1654.642	1594.048
527.131	22.726	1653.855	1592.916
528.146	22.683	1653.057	1591.563
529.160	22.709	1651.455	1590.065
530.175	22.667	1649.801	1587.906
531.189	22.728	1648.880	1587.380
532.204	22.651	1647.127	1584.806
533.219	22.733	1645.940	1584.217
534.233	22.608	1645.511	1582.483
535.248	22.515	1644.992	1580.953
536.262	22.376	1643.215	1577.804
537.277	22.667	1641.813	1578.888
538.292	22.569	1640.762	1576.814
539.306	22.619	1638.771	1575.154
540.321	22.596	1637.800	1573.831
541.335	22.569	1637.222	1572.843
542.350	22.692	1635.090	1571.706
543.365	22.569	1632.970	1568.381
544.379	22.541	1632.215	1567.222
545.394	22.604	1631.089	1566.515
546.408	22.514	1629.593	1564.086
547.423	22.640	1628.306	1563.788
548.438	22.592	1627.113	1562.022
549.452	22.692	1625.606	1561.280
550.467	22.587	1624.174	1558.784
551.481	22.536	1623.719	1557.705
552.496	22.574	1622.724	1556.904
553.511	22.586	1620.809	1554.992
554.525	22.688	1619.568	1554.512
555.540	22.672	1619.106	1553.747
556.554	22.670	1617.761	1552.248
557.569	22.457	1616.896	1549.351
558.583	22.634	1615.556	1549.449
559.598	22.683	1613.993	1548.192
560.613	22.580	1613.232	1546.367
561.627	22.558	1612.300	1545.095
562.642	22.400	1609.555	1540.887
563.656	22.440	1608.060	1539.630
564.671	22.458	1606.587	1538.187
565.686	22.462	1605.425	1536.927
566.700	22.395	1605.391	1536.128
567.715	22.414	1603.590	1534.388
568.729	22.620	1602.251	1534.722
569.744	22.725	1601.027	1534.282
570.759	22.786	1600.181	1533.825
571.773	22.692	1599.481	1532.147
572.788	22.516	1598.155	1529.162
573.802	22.394	1596.370	1526.203
574.817	22.411	1593.928	1523.834
575.832	22.179	1593.044	1520.789
576.846	22.325	1592.731	1521.575
577.861	22.476	1591.292	1521.329
578.875	22.665	1589.973	1521.525
579.890	22.503	1588.755	1518.773
580.905	22.520	1587.004	1517.070
581.919	22.417	1587.150	1516.137
582.934	22.436	1587.094	1516.066
583.948	22.324	1584.824	1512.742
584.963	22.351	1583.276	1511.317
585.978	22.486	1582.091	1511.174
586.992	22.284	1580.714	1507.938
588.007	22.164	1580.680	1506.686
589.021	22.498	1579.704	1508.456
590.036	22.586	1578.817	1508.180
591.051	22.535	1577.391	1506.204
592.065	22.457	1575.190	1503.255
593.080	22.379	1573.453	1500.747
594.094	22.370	1571.625	1498.742
595.109	22.345	1569.773	1496.585
596.123	22.533	1568.997	1497.273
597.138	22.448	1568.140	1495.553
598.153	22.430	1566.436	1493.590
599.167	22.264	1565.247	1490.862
600.182	22.364	1564.275	1490.612
601.196	22.340	1563.227	1489.236
602.211	22.366	1562.174	1488.269
603.226	22.331	1560.725	1486.418
604.240	22.254	1559.409	1484.328
605.255	22.140	1558.162	1482.001
606.269	22.111	1558.355	1481.756
607.284	22.309	1557.034	1482.005
608.299	22.213	1555.120	1479.190
609.313	22.440	1553.973	1479.844
610.328	22.467	1552.853	1478.830
611.342	22.410	1551.116	1476.515
612.357	22.361	1549.900	1474.770
613.372	22.338	1548.266	1472.844
614.386	22.404	1547.287	1472.292
615.401	22.291	1546.733	1470.637
616.415	22.265	1546.075	1469.615
617.430	22.209	1545.315	1468.252
618.445	21.962	1543.975	1464.725
619.459	21.908	1543.530	1463.676
620.474	22.202	1542.148	1464.652
621.488	22.405	1541.902	1465.946
622.503	22.643	1540.842	1466.749
623.518	22.321	1539.054	1462.182
624.532	22.003	1537.347	1457.737
625.547	22.053	1535.902	1456.606
626.561	21.904	1534.434	1453.799
627.576	21.796	1533.943	1452.264
628.591	22.145	1532.997	1454.094
629.605	22.452	1532.094	1455.613
630.620	22.514	1530.800	1454.729
631.634	22.601	1530.557	1455.040
632.649	22.641	1529.644	1454.330
633.663	22.497	1527.474	1450.900
634.678	22.064	1525.344	1445.123
635.693	21.914	1523.404	1441.878
636.707	21.856	1522.010	1439.904
637.722	21.951	1519.657	1438.293
638.736	21.900	1519.707	1437.747
639.751	22.002	1518.907	1437.660
640.766	22.086	1517.715	1437.050
641.780	22.052	1516.181	1435.140
642.795	22.210	1515.466	1435.594
643.809	22.251	1515.350	1435.646
644.824	22.142	1513.900	1433.204
645.839	22.360	1512.927	1433.902
646.853	22.325	1512.127	1432.684
647.868	22.174	1510.356	1429.599
648.882	22.211	1509.183	1428.621
649.897	22.061	1508.041	1426.142
650.912	21.961	1506.568	1423.766
651.926	22.018	1505.315	1422.872
652.941	22.350	1504.229	1424.377
653.955	22.374	1502.710	1422.969
654.970	22.424	1501.711	1422.255
655.985	22.582	1499.724	1421.483
656.999	22.488	1498.541	1419.428
658.014	22.432	1497.326	1417.655
659.028	22.227	1496.400	1414.952
660.043	22.170	1495.335	1413.315
661.058	22.123	1493.463	1411.002
662.072	22.021	1493.031	1409.595
663.087	22.094	1492.261	1409.290
664.101	22.056	1490.539	1407.194
665.116	22.065	1489.759	1406.359
666.131	22.014	1489.039	1405.096
667.145	22.045	1487.264	1403.508
668.160	21.878	1486.295	1401.081
669.174	21.861	1484.425	1399.016
670.189	21.898	1483.877	1398.625
671.204	22.119	1483.067	1399.464
672.218	22.114	1482.177	1398.423
673.233	22.224	1480.514	1397.565
674.247	21.866	1479.143	1393.240
675.262	21.853	1478.350	1392.226
676.276	21.867	1477.186	1391.077
677.291	21.824	1476.736	1390.144
678.306	22.027	1476.582	1391.450
679.320	22.118	1474.476	1390.022
680.335	22.033	1473.367	1388.133
681.349	21.906	1472.410	1386.055
682.364	21.918	1471.006	1384.665
683.379	21.837	1470.250	1383.147
684.393	21.913	1468.582	1382.009
685.408	21.790	1467.433	1379.795
686.422	21.672	1466.961	1378.246
687.437	21.720	1465.779	1377.355
688.452	21.500	1464.993	1374.709
689.466	21.546	1462.783	1372.833
690.481	21.665	1461.517	1372.422
691.495	21.826	1461.711	1373.707
692.510	22.256	1461.133	1376.379
693.525	22.575	1459.520	1377.203
694.539	22.297	1457.531	1372.980
695.554	21.766	1457.335	1368.470
696.568	21.607	1455.673	1365.497
697.583	21.449	1454.471	1362.970
698.598	21.622	1453.366	1363.126
699.612	21.563	1451.997	1361.215
700.627	21.602	1451.171	1360.579
701.641	21.703	1450.312	1360.405
702.656	21.871	1449.373	1360.670
703.671	21.639	1448.566	1357.943
704.685	21.595	1448.131	1357.028
705.700	21.784	1447.006	1357.280
706.714	21.622	1445.487	1354.434
707.729	21.760	1443.984	1353.933
708.744	21.844	1442.936	1353.441
709.758	21.832	1442.501	1352.781
710.773	21.900	1441.545	1352.250
711.787	22.007	1439.826	1351.301
712.802	22.194	1438.197	1351.058
713.816	21.794	1437.341	1347.000
714.831	21.867	1435.304	1345.497
715.846	21.791	1434.588	1344.077
716.860	21.584	1433.483	1341.285
717.875	21.562	1432.737	1340.259
718.889	21.689	1431.577	1339.986
719.904	21.740	1430.356	1339.078
720.919	21.679	1428.892	1337.078
721.933	21.573	1427.825	1335.107
722.948	21.597	1426.599	1333.985
723.962	21.533	1425.634	1332.436
724.977	21.509	1424.492	1331.024
725.992	21.483	1423.851	1330.068
727.006	21.738	1422.514	1330.604
728.021	21.519	1421.268	1327.612
729.035	21.453	1419.988	1325.754
730.050	21.562	1418.907	1325.411
731.065	21.652	1417.917	1325.019
732.079	21.467	1416.634	1322.250
733.094	21.651	1415.919	1322.827
734.108	21.867	1414.397	1322.881
735.123	21.580	1412.762	1319.023
736.138	21.641	1411.797	1318.422
737.152	21.764	1410.285	1317.781
738.167	21.426	1409.570	1314.407
739.181	21.475	1408.160	1313.303
740.196	21.428	1408.214	1312.841
741.211	21.421	1407.675	1312.129
742.225	21.594	1406.449	1312.128
743.240	21.463	1404.303	1308.990
744.254	21.354	1403.016	1306.809
745.269	21.304	1401.632	1304.990
746.284	21.150	1401.273	1303.344
747.298	21.351	1400.656	1304.121
748.313	21.599	1400.076	1305.288
749.327	21.805	1399.797	1306.414
750.342	22.239	1399.512	1309.238
751.356	22.334	1398.370	1308.719
752.371	22.068	1396.458	1304.788
753.386	21.485	1395.309	1299.213
754.400	21.351	1394.052	1296.886
755.415	21.462	1392.866	1296.456
756.429	21.432	1390.815	1294.170
757.444	21.418	1389.721	1292.887
758.459	21.438	1388.582	1291.822
759.473	21.347	1387.518	1290.005
760.488	21.387	1386.430	1289.134
761.502	21.163	1385.794	1286.732
762.517	21.280	1384.508	1286.247
763.532	21.421	1382.832	1285.577
764.546	21.387	1382.172	1284.558
765.561	21.691	1381.997	1286.489
766.575	21.917	1381.532	1287.570
767.590	22.277	1380.114	1288.747
768.605	21.929	1377.744	1283.815
769.619	21.631	1377.218	1280.985
770.634	21.424	1375.833	1278.019
771.648	21.341	1374.533	1276.052
772.663	21.150	1373.483	1273.520
773.678	21.242	1372.733	1273.348
774.692	21.321	1372.536	1273.595
775.707	21.194	1372.039	1272.047
776.721	21.335	1370.597	1271.594
777.736	21.314	1369.629	1270.390
778.751	21.263	1368.537	1268.851
779.765	21.366	1367.627	1268.606
780.780	21.278	1366.829	1267.073
781.794	21.305	1366.120	1266.459
782.809	21.252	1364.366	1264.298
783.824	21.284	1363.260	1263.355
784.838	21.293	1362.794	1262.836
785.853	21.666	1362.461	1265.084
786.867	21.796	1361.501	1264.987
787.882	21.330	1360.629	1260.644
788.897	21.257	1359.166	1258.611
789.911	21.260	1357.533	1256.971
790.926	20.980	1356.446	1253.788
791.940	21.088	1354.576	1252.692
792.955	21.008	1353.153	1250.649
793.969	21.115	1352.452	1250.619
794.984	21.160	1351.924	1250.304
795.999	21.217	1350.334	1249.093
797.013	21.185	1348.924	1247.410
798.028	21.198	1347.667	1246.194
799.042	21.158	1347.566	1245.662
800.057	21.068	1345.865	1243.297
801.072	21.154	1344.115	1242.152
802.086	21.073	1343.343	1240.708
803.101	21.019	1342.473	1239.368
804.115	20.899	1341.820	1237.764
805.130	21.205	1340.202	1238.306
806.145	21.038	1339.192	1236.029
807.159	21.148	1338.062	1235.623
808.174	21.260	1337.232	1235.505
809.188	21.292	1335.414	1233.905
810.203	21.385	1334.147	1233.245
811.218	21.426	1332.910	1232.246
812.232	21.671	1331.959	1232.953
813.247	21.714	1331.618	1232.790
814.261	21.404	1331.231	1230.095
815.276	21.082	1329.893	1226.434
816.291	21.075	1328.112	1224.597
817.305	21.030	1326.962	1223.077
818.320	21.038	1325.448	1221.590
819.334	21.015	1323.587	1219.566
820.349	21.066	1322.809	1219.065
821.364	20.912	1321.604	1216.723
822.378	20.877	1320.028	1214.883
823.393	21.066	1317.671	1213.887
824.407	20.895	1316.931	1211.867
825.422	20.999	1317.373	1212.859
826.437	21.026	1316.433	1212.033
827.451	20.990	1314.491	1209.852
828.466	21.318	1313.561	1211.133
829.480	21.774	1312.262	1212.963
830.495	21.256	1310.200	1207.316
831.509	20.967	1309.301	1204.334
832.524	20.896	1308.393	1202.867
833.539	20.799	1307.186	1200.936
834.553	20.935	1305.584	1200.264
835.568	20.717	1304.509	1197.626
836.582	20.875	1303.489	1197.636
837.597	21.173	1302.190	1198.357
838.612	21.268	1300.518	1197.330
839.626	21.027	1299.855	1194.917
840.641	21.298	1299.293	1196.118
841.655	21.268	1298.978	1195.478
842.670	21.587	1298.325	1196.932
843.685	21.709	1297.583	1196.942
844.699	21.539	1295.690	1193.883
845.714	21.224	1293.746	1189.792
846.728	21.080	1292.969	1187.955
847.743	21.000	1291.777	1186.169
848.758	20.865	1290.854	1184.256
849.772	21.047	1288.791	1183.461
850.787	20.922	1287.118	1180.937
851.801	20.948	1286.900	1180.772
852.816	20.965	1285.623	1179.569
853.831	20.840	1283.848	1176.952
854.845	21.033	1281.829	1176.272
855.860	20.871	1280.342	1173.665
856.874	20.939	1279.655	1173.361
857.889	21.113	1278.851	1173.659
858.904	21.412	1277.586	1174.374
859.918	21.695	1276.377	1175.032
860.933	21.694	1275.711	1174.268
861.947	21.477	1274.584	1171.630
862.962	21.181	1272.798	1167.858
863.977	21.136	1271.049	1165.809
864.991	20.755	1270.676	1162.770
866.006	20.816	1270.493	1162.878
867.020	20.861	1268.691	1161.392
868.035	20.795	1266.982	1159.242
869.049	20.910	1266.610	1159.534
870.064	20.959	1265.675	1158.867
871.079	20.876	1264.994	1157.552
872.093	20.925	1264.815	1157.572
873.108	20.860	1264.146	1156.391
874.122	21.042	1263.023	1156.439
875.137	21.325	1262.305	1157.528
876.152	21.497	1261.488	1157.784
877.166	21.388	1259.373	1154.979
878.181	21.252	1257.445	1152.168
879.195	20.972	1256.713	1149.506
880.210	21.009	1255.479	1148.485
881.225	20.789	1255.299	1146.729
882.239	20.823	1254.469	1146.056
883.254	20.899	1252.931	1145.019
884.268	20.988	1251.702	1144.344
885.283	20.964	1250.751	1143.180
886.298	21.022	1249.218	1142.023
887.312	20.807	1248.683	1139.985
888.327	20.943	1247.798	1139.935
889.341	20.910	1245.656	1137.621
890.356	20.938	1245.297	1137.343
891.371	20.831	1245.345	1136.550
892.385	20.753	1244.393	1135.030
893.400	20.780	1243.664	1134.411
894.414	20.758	1243.273	1133.774
895.429	21.130	1241.445	1134.398
896.444	21.619	1240.181	1136.298
897.458	22.063	1239.117	1138.079
898.473	21.601	1238.280	1134.166
899.487	21.303	1236.544	1130.504
900.502	21.096	1235.472	1128.045
901.517	20.956	1233.937	1125.600
902.531	20.904	1233.151	1124.411
903.546	20.847	1232.878	1123.657
904.560	20.927	1232.280	1123.494
905.575	20.882	1231.372	1122.243
906.589	20.973	1230.328	1121.748
907.604	20.936	1229.206	1120.349
