DTS Sentinel unit serial number:	SN409020Multiplexer serial number:	ORYXHardware model number:	OX4-SRSoftware version number:	ORYX F/W v3.00 Oryx Data Collector v3.7.2.0data status	okinstallation	HaddamTimeLapsedifferential loss correction	single-endedforward channel	channel 3reverse channel	N/Adate	2011/06/21time	17:46:17forward acquisition time	30.00reverse acquisition time	0.00gamma	498.7831k internal	0.1832k external	0.1832temperature offset calibration	1.0074default loss term (dB/km)	0.3790temperature slope calibration	1.3530multiplexer offset coefficient	1.0000multiplexer slope coefficient	1.0000fibre end	0.00T internal ref (°C)	35.37T ext. ref 1 (°C)	29.52T ext. ref 2 (°C)	0.27length (m)	temperature (°C)	Stokes	anti-Stokes-747.200	-94.566	-0.440	-0.151
-746.185	-200.000	-0.010	0.228
-745.171	-45.083	-0.174	0.110
-744.156	-114.917	0.446	0.107
-743.142	-79.990	0.376	-0.160
-742.127	162.585	0.329	0.587
-741.112	237.722	-0.133	0.281
-740.098	-142.164	-0.133	0.017
-739.083	-140.688	0.197	-0.026
-738.069	-23.429	0.242	0.184
-737.054	-149.734	-0.425	0.042
-736.039	-47.961	-0.193	-0.118
-735.025	-8.329	-0.342	-0.292
-734.010	133.320	-0.249	-0.409
-732.996	15.314	-0.263	-0.262
-731.981	53.787	0.120	-0.146
-730.966	-65.524	0.342	0.174
-729.952	-77.049	0.350	-0.154
-728.937	-200.000	-0.049	0.618
-727.923	-186.050	0.331	-0.006
-726.908	-119.029	-0.264	-0.058
-725.894	19.340	-0.339	0.346
-724.879	-72.938	-0.348	-0.162
-723.864	390.847	-0.102	-0.271
-722.850	-200.000	0.009	0.127
-721.835	800.000	-0.068	0.251
-720.821	-146.116	0.541	-0.060
-719.806	86.585	-0.162	-0.226
-718.791	-143.978	0.218	0.026
-717.777	-78.263	-0.063	0.027
-716.762	-130.962	-0.114	0.019
-715.748	-163.761	-0.164	0.010
-714.733	-33.737	-0.292	0.204
-713.718	-200.000	0.006	0.275
-712.704	-200.000	-0.013	0.226
-711.689	-148.628	-0.099	0.010
-710.675	-93.699	-0.448	0.156
-709.660	114.162	-0.097	-0.150
-708.645	319.736	0.125	-0.302
-707.631	-200.000	0.012	-0.247
-706.616	89.920	-0.169	0.240
-705.602	-200.000	-0.013	-0.455
-704.587	-200.000	0.020	-0.510
-703.572	34.720	-0.113	-0.125
-702.558	-200.000	-0.039	-0.387
-701.543	13.769	-0.233	-0.229
-700.529	-45.892	0.158	0.099
-699.514	46.607	-0.196	0.231
-698.499	619.767	0.033	-0.107
-697.485	-200.000	-0.011	-0.198
-696.470	-200.000	0.007	-0.067
-695.456	-200.000	-0.021	0.218
-694.441	445.741	-0.116	-0.325
-693.426	166.168	0.126	0.227
-692.412	-14.630	0.291	0.237
-691.397	-113.997	0.288	-0.070
-690.383	128.944	0.063	0.103
-689.368	13.905	-0.249	-0.245
-688.354	-200.000	0.023	-0.178
-687.339	296.107	0.112	-0.262
-686.324	-85.588	-0.327	0.128
-685.310	800.000	0.045	0.182
-684.295	754.525	-0.081	-0.278
-683.281	800.000	-0.092	-0.366
-682.266	115.129	-0.046	0.072
-681.251	-167.601	-0.314	-0.016
-680.237	76.456	-0.350	0.470
-679.222	-134.033	0.070	0.011
-678.208	421.201	0.158	-0.431
-677.193	19.116	0.113	-0.115
-676.178	-186.972	0.266	-0.005
-675.164	521.886	0.179	0.535
-674.149	-200.000	-0.025	0.354
-673.135	-165.076	0.676	0.037
-672.120	333.552	-0.218	-0.536
-671.105	530.644	-0.183	-0.551
-670.091	-129.902	0.269	0.046
-669.076	-89.513	0.408	-0.151
-668.062	-200.000	-0.078	-0.450
-667.047	-200.000	0.055	0.333
-666.032	231.489	0.040	-0.084
-665.018	-158.005	-0.203	-0.015
-664.003	-124.057	-0.307	-0.061
-662.989	5.855	-0.315	-0.295
-661.974	231.662	0.042	-0.088
-660.959	509.510	0.133	0.394
-659.945	-38.326	0.313	0.209
-658.930	-163.165	-0.308	0.018
-657.916	-192.760	0.200	-0.002
-656.901	784.627	-0.075	-0.261
-655.886	-171.514	-0.208	0.009
-654.872	-26.557	-0.211	0.156
-653.857	181.201	0.164	-0.306
-652.843	40.527	0.339	-0.387
-651.828	800.000	0.038	0.210
-650.814	-158.495	-0.222	0.016
-649.799	41.408	0.084	-0.096
-648.784	-200.000	0.000	-0.274
-647.770	-69.940	-0.149	0.072
-646.755	-1.337	-0.209	0.187
-645.741	-131.004	-0.445	0.074
-644.726	-200.000	-0.037	-0.354
-643.711	-45.725	-0.031	-0.019
-642.697	-54.213	-0.242	0.138
-641.682	414.450	0.124	0.335
-640.668	2.073	0.201	0.183
-639.653	-124.367	-0.191	-0.037
-638.638	-118.644	0.372	0.082
-637.624	348.314	-0.081	-0.202
-636.609	26.090	0.090	0.095
-635.595	800.000	-0.133	0.547
-634.580	95.679	0.098	-0.142
-633.565	60.961	-0.138	0.173
-632.551	-102.963	-0.450	-0.134
-631.536	-100.771	0.520	-0.161
-630.522	97.469	0.242	-0.353
-629.507	800.000	-0.027	0.130
-628.492	-15.185	0.246	0.199
-627.478	-130.064	0.079	0.014
-626.463	370.111	-0.150	0.386
-625.449	-164.323	0.361	0.021
-624.434	-54.417	-0.562	0.321
-623.419	-200.000	0.001	-0.272
-622.405	-106.189	-0.188	-0.053
-621.390	-143.125	-0.111	0.013
-620.376	-31.868	-0.272	-0.192
-619.361	-61.931	0.245	-0.129
-618.346	-62.348	0.362	0.190
-617.332	-200.000	0.006	-0.373
-616.317	-200.000	0.027	-0.542
-615.303	-111.370	0.171	0.044
-614.288	-200.000	0.019	0.418
-613.273	557.744	-0.056	0.173
-612.259	-102.509	0.320	0.096
-611.244	-70.669	0.288	-0.137
-610.230	-10.166	-0.471	-0.395
-609.215	-13.005	-0.259	-0.213
-608.201	-200.000	0.017	0.295
-607.186	359.554	0.092	0.232
-606.171	-121.658	0.394	-0.082
-605.157	-25.197	-0.020	0.015
-604.142	41.479	-0.082	0.093
-603.128	-200.000	0.006	-0.114
-602.113	263.165	0.104	-0.230
-601.098	-92.908	-0.392	0.138
-600.084	114.582	0.172	0.265
-599.069	275.844	0.183	0.411
-598.055	800.000	-0.049	0.174
-597.040	-200.000	0.036	-0.533
-596.025	-200.000	-0.024	-0.367
-595.011	282.471	0.075	-0.171
-593.996	-84.549	-0.070	0.028
-592.982	-15.552	-0.067	0.054
-591.967	12.180	-0.245	0.238
-590.952	-121.121	-0.451	0.095
-589.938	738.782	-0.074	-0.251
-588.923	77.799	-0.133	0.179
-587.909	413.011	-0.059	-0.159
-586.894	-44.015	-0.151	-0.096
-585.879	-144.983	0.070	0.008
-584.865	-164.992	-0.109	-0.006
-583.850	96.617	-0.067	0.097
-582.836	-126.478	-0.248	-0.046
-581.821	166.549	-0.095	-0.171
-580.806	-35.969	-0.316	0.215
-579.792	97.120	-0.256	0.372
-578.777	-89.847	-0.230	0.084
-577.763	113.736	-0.017	0.026
-576.748	-34.904	-0.115	-0.079
-575.733	-43.952	0.164	0.104
-574.719	-75.030	-0.317	0.142
-573.704	20.271	-0.278	0.283
-572.690	-110.004	-0.409	0.107
-571.675	-47.912	0.241	-0.147
-570.661	-200.000	0.037	0.390
-569.646	-30.098	0.102	0.073
-568.631	-100.030	-0.232	-0.072
-567.617	-200.000	0.022	-0.418
-566.602	-200.000	0.070	-0.407
-565.588	-35.948	-0.302	-0.205
-564.573	41.443	-0.095	-0.108
-563.558	-155.606	0.421	-0.034
-562.544	-67.503	-0.213	-0.105
-561.529	-95.871	0.170	0.057
-560.515	-37.517	0.430	0.288
-559.500	800.000	0.065	-0.299
-558.485	800.000	0.070	-0.259
-557.471	16.380	-0.249	0.248
-556.456	268.965	-0.135	-0.300
-555.442	297.592	-0.090	-0.209
-554.427	-200.000	-0.013	-0.180
-553.412	90.351	0.099	0.140
-552.398	-31.198	0.420	-0.298
-551.383	800.000	0.082	0.367
-550.369	-103.970	0.233	0.068
-549.354	-184.884	-0.461	-0.009
-548.339	337.186	-0.089	-0.218
-547.325	-144.757	0.458	0.052
-546.310	-38.420	-0.094	0.062
-545.296	800.000	-0.042	0.202
-544.281	670.489	0.140	0.460
-543.266	13.780	-0.197	-0.193
-542.252	410.075	0.127	0.340
-541.237	-144.534	0.210	-0.024
-540.223	-118.681	-0.612	-0.135
-539.208	-200.000	-0.004	0.068
-538.193	223.852	0.204	-0.416
-537.179	-136.837	0.225	0.032
-536.164	365.784	0.166	-0.423
-535.150	331.817	-0.117	0.287
-534.135	-91.482	-0.364	0.130
-533.121	-5.740	-0.360	0.310
-532.106	12.264	0.307	-0.298
-531.091	305.153	-0.184	-0.432
-530.077	-82.576	0.138	-0.056
-529.062	-17.864	0.061	-0.048
-528.048	87.653	-0.111	-0.155
-527.033	1.360	0.446	-0.403
-526.018	800.000	-0.017	0.092
-525.004	-200.000	-0.008	-0.298
-523.989	-99.577	-0.593	0.186
-522.975	46.224	0.174	0.203
-521.960	259.575	-0.058	0.127
-520.945	227.480	-0.130	-0.267
-519.931	111.911	0.051	0.077
-518.916	-39.884	0.236	-0.155
-517.902	-21.836	-0.073	0.056
-516.887	9.073	-0.166	-0.157
-515.872	28.969	0.189	-0.202
-514.858	29.882	-0.235	0.252
-513.843	-41.963	-0.057	0.037
-512.829	83.729	-0.157	-0.216
-511.814	-70.672	-0.244	-0.116
-510.799	463.757	-0.104	0.294
-509.785	-5.285	-0.143	0.123
-508.770	-101.309	0.184	-0.056
-507.756	30.905	-0.265	-0.286
-506.741	141.039	0.216	0.360
-505.726	494.864	0.041	0.120
-504.712	-138.783	-0.143	-0.019
-503.697	14.195	0.322	0.316
-502.683	290.071	0.249	-0.570
-501.668	270.448	0.045	-0.100
-500.653	800.000	-0.028	-0.101
-499.639	18.730	0.243	0.244
-498.624	213.171	0.223	0.445
-497.610	-200.000	-0.033	0.460
-496.595	-200.000	0.038	-0.232
-495.581	-72.470	-0.168	-0.078
-494.566	-94.476	0.209	-0.071
-493.551	-65.773	0.315	-0.158
-492.537	-0.394	-0.338	0.302
-491.522	-93.595	-0.306	0.106
-490.508	-78.914	-0.236	0.101
-489.493	-200.000	-0.009	0.098
-488.478	-75.584	-0.705	-0.314
-487.464	-27.451	0.229	0.167
-486.449	-68.629	-0.263	0.128
-485.435	-46.207	-0.223	-0.137
-484.420	-20.313	0.380	-0.294
-483.405	800.000	0.050	0.221
-482.391	-200.000	0.079	0.494
-481.376	203.755	-0.081	-0.158
-480.362	-76.056	-0.150	0.066
-479.347	426.860	0.124	0.338
-478.332	-37.907	0.231	0.154
-477.318	-200.000	0.048	0.313
-476.303	72.964	0.146	0.192
-475.289	-101.568	0.237	0.072
-474.274	-68.745	0.299	0.144
-473.259	-22.636	-0.127	-0.096
-472.245	-165.175	0.037	0.002
-471.230	-8.352	0.244	0.206
-470.216	-192.563	-0.430	-0.005
-469.201	-81.936	0.502	0.205
-468.186	800.000	-0.102	0.485
-467.172	-20.777	0.368	-0.283
-466.157	-33.187	0.208	-0.145
-465.143	800.000	-0.121	0.466
-464.128	66.275	-0.111	0.142
-463.113	-34.296	0.366	0.252
-462.099	-200.000	0.044	0.272
-461.084	-4.954	-0.396	-0.342
-460.070	548.189	0.035	-0.106
-459.055	-171.731	0.348	-0.014
-458.040	-200.000	0.028	0.242
-457.026	-88.938	-0.274	0.102
-456.011	766.199	0.118	-0.405
-454.997	-200.000	-0.048	0.300
-453.982	173.724	-0.122	-0.222
-452.968	129.127	-0.084	0.135
-451.953	22.575	0.218	-0.223
-450.938	-14.088	0.290	0.235
-449.924	-144.355	-0.193	0.022
-448.909	-148.697	-0.352	0.035
-447.895	-18.587	-0.077	-0.060
-446.880	-91.089	0.419	-0.150
-445.865	-200.000	0.413	0.002
-444.851	-180.483	0.102	-0.003
-443.836	-98.430	0.136	-0.043
-442.822	113.208	-0.173	-0.264
-441.807	800.000	-0.099	-0.437
-440.792	-1.297	-0.134	-0.119
-439.778	800.000	0.024	0.093
-438.763	-192.124	0.228	0.003
-437.749	-49.471	0.089	-0.053
-436.734	-106.328	0.364	-0.102
-435.719	787.157	-0.059	0.205
-434.705	39.015	0.218	-0.244
-433.690	-54.368	0.300	-0.170
-432.676	-27.011	-0.055	-0.040
-431.661	275.881	-0.029	-0.065
-430.646	-114.926	0.274	-0.065
-429.632	-178.378	-0.199	-0.006
-428.617	108.266	-0.255	-0.382
-427.603	98.382	-0.168	-0.243
-426.588	17.995	0.440	-0.440
-425.573	-154.049	0.474	0.040
-424.559	-200.000	0.053	0.436
-423.544	92.294	-0.247	0.350
-422.530	194.300	-0.139	0.266
-421.515	-42.861	-0.269	-0.171
-420.500	28.384	-0.092	-0.098
-419.486	-94.211	-0.378	-0.129
-418.471	143.266	0.103	0.172
-417.457	113.230	-0.157	-0.239
-416.442	-87.855	-0.182	0.068
-415.428	-140.095	0.046	0.006
-414.413	-75.046	-0.233	-0.104
-413.398	-200.000	0.287	0.001
-412.384	-46.730	0.272	0.166
-411.369	-200.000	-0.034	-0.361
-410.355	-110.039	0.395	0.103
-409.340	221.805	0.026	0.052
-408.325	96.199	0.161	0.231
-407.311	-139.758	0.412	0.054
-406.296	-57.708	-0.290	0.159
-405.282	45.943	0.140	0.163
-404.267	155.001	-0.315	-0.544
-403.252	-54.992	-0.109	-0.062
-402.238	142.448	-0.147	-0.245
-401.223	-200.000	0.021	0.199
-400.209	-200.000	-0.041	-0.280
-399.194	345.473	0.077	0.190
-398.179	312.053	-0.086	-0.202
-397.165	-120.665	-0.140	0.029
-396.150	45.415	-0.066	-0.076
-395.136	5.781	-0.143	-0.132
-394.121	-200.000	0.019	0.310
-393.106	800.000	0.055	0.196
-392.092	-169.911	-0.221	0.010
-391.077	-57.781	0.219	-0.120
-390.063	-124.444	-0.266	-0.051
-389.048	6.387	0.147	-0.137
-388.033	-5.472	0.196	0.169
-387.019	115.460	0.277	0.425
-386.004	368.314	-0.084	-0.212
-384.990	-60.048	0.425	0.226
-383.975	-178.444	-0.627	-0.018
-382.960	-200.000	0.019	-0.128
-381.946	508.782	0.031	-0.092
-380.931	-63.738	-0.352	0.180
-379.917	-110.544	0.315	-0.081
-378.902	88.718	0.315	0.439
-377.888	156.367	-0.047	0.081
-376.873	-35.617	0.436	0.296
-375.858	81.324	-0.294	-0.398
-374.844	-36.180	0.163	0.110
-373.829	-129.520	0.230	-0.039
-372.815	-125.937	-0.186	0.035
-371.800	0.798	0.106	0.095
-370.785	702.055	0.019	-0.062
-369.771	-200.000	0.064	-0.546
-368.756	-114.723	0.127	-0.030
-367.742	680.097	-0.163	-0.534
-366.727	66.054	0.265	-0.336
-365.712	800.000	0.025	-0.100
-364.698	-84.242	-0.486	-0.192
-363.683	-55.338	-0.516	0.289
-362.669	-200.000	-0.003	-0.101
-361.654	800.000	-0.063	0.292
-360.639	-40.482	-0.400	0.259
-359.625	-51.934	0.304	-0.176
-358.610	52.480	0.394	-0.471
-357.596	39.985	-0.235	-0.264
-356.581	18.608	-0.296	0.296
-355.566	32.349	-0.226	-0.244
-354.552	-126.719	-0.488	-0.089
-353.537	1.305	0.297	-0.266
-352.523	167.331	-0.294	-0.524
-351.508	-83.972	-0.342	-0.136
-350.493	81.718	-0.251	0.340
-349.479	81.674	-0.283	0.384
-348.464	98.613	-0.146	-0.211
-347.450	253.753	-0.119	-0.256
-346.435	-97.051	0.130	0.042
-345.420	-200.000	0.005	0.534
-344.406	297.650	-0.133	0.306
-343.391	-11.381	-0.063	-0.052
-342.377	229.437	0.110	-0.226
-341.362	-120.882	-0.179	-0.037
-340.348	-200.000	-0.079	-0.602
-339.333	-107.719	0.375	-0.102
-338.318	-95.879	0.289	-0.096
-337.304	-97.583	-0.208	0.067
-336.289	-5.191	0.124	0.107
-335.275	-75.418	0.492	0.218
-334.260	41.357	-0.133	-0.151
-333.245	-78.180	-0.173	0.074
-332.231	52.141	-0.156	0.186
-331.216	-11.992	0.214	0.175
-330.202	23.957	-0.275	-0.284
-329.187	800.000	-0.129	0.463
-328.172	206.095	0.193	0.376
-327.158	64.327	-0.274	0.346
-326.143	32.292	-0.241	-0.260
-325.129	-20.482	-0.291	-0.223
-324.114	-66.764	-0.203	0.100
-323.099	-136.992	0.213	-0.030
-322.085	496.668	0.074	0.214
-321.070	-39.977	0.323	-0.210
-320.056	-143.077	0.021	0.003
-319.041	126.663	0.169	-0.269
-318.026	-135.692	0.242	0.035
-317.012	-24.488	0.375	-0.278
-315.997	-154.015	-0.130	0.011
-314.983	124.116	-0.039	0.061
-313.968	-103.189	0.343	0.101
-312.953	800.000	0.163	-0.646
-311.939	-81.171	0.333	-0.137
-310.924	12.396	0.134	-0.129
-309.910	135.676	0.347	-0.564
-308.895	-200.000	-0.002	0.256
-307.880	271.186	0.038	-0.084
-306.866	633.008	-0.115	0.366
-305.851	800.000	0.112	0.482
-304.837	800.000	-0.080	0.422
-303.822	-167.815	-0.458	-0.022
-302.807	671.473	-0.116	0.376
-301.793	-151.710	0.552	0.050
-300.778	294.942	0.154	0.354
-299.764	-70.764	-0.033	0.016
-298.749	77.102	-0.363	0.481
-297.735	757.482	-0.073	-0.249
-296.720	-33.094	0.420	-0.290
-295.705	65.373	0.184	-0.233
-294.691	-141.444	-0.096	-0.012
-293.676	800.000	-0.083	-0.353
-292.662	800.000	-0.055	-0.256
-291.647	231.301	0.154	-0.317
-290.632	-84.047	-0.406	-0.160
-289.618	140.039	0.156	-0.257
-288.603	-105.568	-0.221	-0.062
-287.589	156.958	0.176	0.304
-286.574	-200.000	0.016	0.264
-285.559	-103.789	-0.660	0.191
-284.545	-200.000	0.056	-0.886
-283.530	-40.170	0.306	-0.198
-282.516	-106.651	-0.465	0.128
-281.501	-63.483	-0.073	-0.037
-280.486	-115.961	0.320	-0.074
-279.472	-180.751	0.616	0.015
-278.457	-200.000	0.009	0.140
-277.443	800.000	0.032	-0.161
-276.428	161.244	-0.082	0.143
-275.413	-7.460	-0.134	0.113
-274.399	-63.955	0.360	-0.183
-273.384	-79.603	0.364	0.152
-272.370	-74.309	0.119	-0.053
-271.355	-113.407	-0.242	0.059
-270.340	445.862	0.067	0.184
-269.326	-200.000	-0.071	0.534
-268.311	-111.550	-0.213	-0.054
-267.297	487.813	0.078	0.223
-266.282	257.040	-0.147	0.316
-265.267	-45.447	-0.234	0.144
-264.253	75.389	-0.157	0.207
-263.238	-194.239	-0.545	-0.005
-262.224	338.325	0.045	-0.111
-261.209	800.000	-0.081	0.414
-260.195	-200.000	0.017	0.222
-259.180	-26.933	-0.180	0.131
-258.165	31.827	-0.083	-0.089
-257.151	800.000	-0.079	0.376
-256.136	-44.415	0.121	0.075
-255.122	800.000	0.042	0.160
-254.107	-44.787	0.385	-0.239
-253.092	248.183	-0.255	-0.540
-252.078	-37.561	0.342	-0.226
-251.063	19.031	-0.247	-0.247
-250.049	800.000	0.058	-0.297
-249.034	468.110	0.047	-0.133
-248.019	136.716	0.225	-0.366
-247.005	532.991	0.118	0.349
-245.990	82.477	-0.174	-0.235
-244.976	-89.620	-0.366	-0.133
-243.961	48.687	0.323	0.377
-242.946	-200.000	0.038	-0.336
-241.932	800.000	-0.109	-0.417
-240.917	-200.000	0.017	0.436
-239.903	800.000	-0.027	-0.106
-238.888	75.042	0.195	0.256
-237.873	800.000	-0.067	0.250
-236.859	-36.812	0.408	0.272
-235.844	-70.072	-0.075	0.035
-234.830	-117.252	-0.424	-0.095
-233.815	429.864	-0.027	-0.074
-232.800	96.541	0.149	0.213
-231.786	-200.000	0.010	0.363
-230.771	-73.287	-0.358	-0.163
-229.757	636.366	0.037	-0.119
-228.742	-198.674	0.176	0.001
-227.727	36.686	0.239	0.263
-226.713	83.221	0.059	0.080
-225.698	17.834	-0.164	-0.162
-224.684	-200.000	-0.002	0.034
-223.669	-90.501	-0.165	-0.059
-222.655	-79.730	0.182	-0.076
-221.640	-200.000	0.006	0.126
-220.625	-121.927	-0.451	-0.092
-219.611	33.950	0.244	0.264
-218.596	71.324	-0.348	-0.450
-217.582	-3.272	-0.144	-0.125
-216.567	-88.984	0.636	-0.233
-215.552	-128.949	0.283	0.049
-214.538	350.235	0.154	0.380
-213.523	146.117	-0.056	-0.094
-212.509	603.665	0.091	-0.284
-211.494	430.763	-0.078	-0.210
-210.479	503.725	-0.061	0.176
-209.465	-99.908	0.192	0.059
-208.450	410.380	0.073	0.193
-207.436	-126.394	0.205	-0.038
-206.421	-29.830	0.102	0.072
-205.406	-200.000	0.018	0.299
-204.392	209.467	-0.220	-0.429
-203.377	-125.631	-0.374	-0.070
-202.363	-200.000	-0.063	-0.362
-201.348	69.890	0.030	-0.038
-200.333	150.808	-0.103	0.175
-199.319	-200.000	-0.004	-0.526
-198.304	-200.000	-0.059	-0.532
-197.290	800.000	0.027	0.144
-196.275	-173.676	0.665	0.024
-195.260	-148.604	0.391	-0.039
-194.246	-200.000	-0.023	-0.417
-193.231	-29.267	-0.231	-0.164
-192.217	14.771	0.337	0.327
-191.202	135.846	0.174	0.282
-190.187	-60.471	-0.507	0.267
-189.173	-125.657	-0.315	0.059
-188.158	-31.166	0.255	0.178
-187.144	-94.402	0.568	0.192
-186.129	800.000	-0.071	0.336
-185.114	310.675	0.200	0.466
-184.100	-200.000	0.024	-0.155
-183.085	-56.724	0.110	-0.060
-182.071	800.000	-0.032	0.123
-181.056	-40.737	-0.342	-0.220
-180.042	-200.000	-0.021	0.186
-179.027	-200.000	-0.071	0.407
-178.012	31.517	-0.223	-0.238
-176.998	-92.913	0.107	-0.037
-175.983	6.686	0.275	-0.254
-174.969	691.918	-0.081	0.264
-173.954	800.000	-0.049	0.239
-172.939	599.670	-0.103	-0.321
-171.925	553.725	-0.177	0.531
-170.910	-200.000	0.009	-0.080
-169.896	-105.666	0.220	-0.061
-168.881	100.322	0.184	-0.265
-167.866	-200.000	0.017	-0.207
-166.852	800.000	0.102	0.509
-165.837	800.000	-0.074	0.338
-164.823	-165.837	0.193	-0.010
-163.808	572.803	-0.131	-0.399
-162.793	153.454	0.091	-0.154
-161.779	-199.238	0.467	0.003
-160.764	217.414	0.061	-0.121
-159.750	650.257	-0.055	0.175
-158.735	-128.189	0.381	-0.067
-157.720	-75.268	-0.269	-0.119
-156.706	-94.369	0.170	0.057
-155.691	-37.131	-0.744	0.493
-154.677	83.988	-0.261	0.354
-153.662	800.000	0.159	-0.618
-152.647	-91.859	-0.043	-0.015
-151.633	-79.293	0.130	0.054
-150.618	-63.590	-0.227	-0.115
-149.604	-106.762	-0.277	-0.076
-148.589	-70.041	0.073	-0.034
-147.574	-165.295	0.208	-0.011
-146.560	-119.838	-0.356	0.075
-145.545	800.000	0.021	-0.092
-144.531	-97.464	-0.516	-0.165
-143.516	-200.000	0.109	-0.673
-142.502	370.745	-0.045	-0.115
-141.487	76.231	-0.189	-0.249
-140.472	114.124	-0.104	-0.157
-139.458	16.359	0.355	-0.347
-138.443	-200.000	0.036	-0.200
-137.429	-118.338	-0.246	-0.054
-136.414	-89.866	0.415	0.149
-135.399	-34.647	-0.294	0.199
-134.385	705.676	-0.125	0.410
-133.370	-200.000	0.002	0.233
-132.356	10.193	-0.098	-0.093
-131.341	800.000	-0.131	0.531
-130.326	-132.738	0.191	0.030
-129.312	270.885	0.149	0.327
-128.297	-126.606	0.074	-0.013
-127.283	-84.109	-0.271	0.106
-126.268	590.558	0.041	-0.125
-125.253	-114.590	-0.387	-0.091
-124.239	-83.328	-0.555	0.220
-123.224	-98.390	-0.460	0.145
-122.210	-200.000	-0.018	-0.144
-121.195	147.809	-0.330	-0.552
-120.180	-60.399	-0.429	0.226
-119.166	229.058	-0.163	0.331
-118.151	-73.006	0.469	0.212
-117.137	52.936	-0.395	0.468
-116.122	-54.707	-0.228	-0.127
-115.107	789.506	0.091	0.312
-114.093	-71.042	0.113	0.052
-113.078	-143.050	0.277	0.033
-112.064	370.341	0.153	-0.386
-111.049	-133.636	-0.347	0.053
-110.034	-200.000	0.012	0.234
-109.020	516.544	-0.127	0.370
-108.005	215.821	0.011	-0.022
-106.991	-118.146	-0.262	0.057
-105.976	-37.110	-0.156	0.103
-104.962	-153.845	0.537	-0.045
-103.947	-13.934	-0.167	-0.133
-102.932	-168.387	-0.193	-0.009
-101.918	-153.836	-0.108	-0.009
-100.903	63.496	0.139	0.173
-99.889	160.159	-0.219	-0.379
-98.874	-181.577	-0.222	-0.005
-97.859	800.000	-0.017	0.066
-96.845	-64.304	-0.428	-0.215
-95.830	-41.441	-0.147	-0.094
-94.816	-177.411	0.291	-0.009
-93.801	-30.273	0.379	-0.266
-92.786	-31.017	0.131	0.091
-91.772	129.876	0.052	0.083
-90.757	800.000	0.071	0.272
-89.743	71.812	0.534	0.689
-88.728	92.255	0.258	0.360
-87.713	-41.871	-0.117	-0.074
-86.699	-33.892	-0.134	0.091
-85.684	-78.049	0.239	-0.102
-84.670	-62.421	-0.177	-0.091
-83.655	-200.000	-0.048	0.582
-82.640	-102.415	0.100	-0.029
-81.626	24.805	0.284	0.291
-80.611	167.892	-0.164	-0.290
-79.597	2.474	-0.129	-0.116
-78.582	269.784	0.267	-0.583
-77.567	-200.000	0.032	0.241
-76.553	-167.018	-0.512	-0.025
-75.538	-68.355	-0.296	-0.141
-74.524	-137.018	0.083	-0.012
-73.509	-146.748	-0.346	0.037
-72.494	177.232	-0.329	0.595
-71.480	484.262	-0.219	-0.619
-70.465	72.313	-0.191	0.246
-69.451	-89.534	0.318	0.115
-68.436	-200.000	0.027	0.345
-67.422	-200.000	0.002	0.100
-66.407	373.680	-0.063	-0.160
-65.392	-40.740	0.093	0.059
-64.378	-80.432	-0.344	-0.141
-63.363	-200.000	0.067	-0.456
-62.349	-200.000	-0.030	0.571
-61.334	-83.736	-1.491	-0.585
-60.319	-95.184	0.528	0.175
-59.305	251.389	-2.894	-6.108
-58.290	-32.827	2.982	2.045
-57.276	328.850	4.434	10.577
-56.261	-200.000	12.734	208.728
-55.246	508.068	1131.278	3263.369
-54.232	68.970	2778.253	3531.579
-53.217	76.553	2691.659	3531.263
-52.203	90.319	2425.972	3359.220
-51.188	35.326	2082.440	2257.669
-50.173	38.018	1953.530	2147.665
-49.159	36.555	1942.290	2119.116
-48.144	35.956	1938.227	2108.014
-47.130	35.867	1935.423	2103.905
-46.115	35.659	1934.853	2100.915
-45.100	35.750	1932.743	2099.534
-44.086	35.733	1930.693	2097.036
-43.071	35.661	1928.968	2094.296
-42.057	35.604	1927.803	2092.318
-41.042	35.557	1926.805	2090.643
-40.027	35.596	1925.412	2089.470
-39.013	35.562	1923.657	2087.115
-37.998	35.646	1921.373	2085.469
-36.984	35.618	1920.635	2084.283
-35.969	35.562	1919.941	2082.833
-34.954	35.428	1919.407	2080.713
-33.940	35.502	1918.106	2080.028
-32.925	35.484	1916.771	2078.295
-31.911	35.481	1915.240	2076.526
-30.896	35.511	1913.722	2075.126
-29.881	35.486	1912.062	2072.972
-28.867	35.445	1911.447	2071.775
-27.852	35.357	1910.506	2069.720
-26.838	35.442	1908.094	2067.940
-25.823	35.492	1906.964	2067.180
-24.809	35.358	1906.153	2064.768
-23.794	35.310	1904.646	2062.529
-22.779	35.319	1902.735	2060.481
-21.765	35.437	1901.970	2060.848
-20.750	35.432	1900.719	2059.349
-19.736	35.272	1900.224	2057.012
-18.721	35.345	1898.452	2055.791
-17.706	35.231	1898.394	2054.417
-16.692	35.172	1897.024	2052.218
-15.677	35.307	1895.168	2051.588
-14.663	35.322	1893.027	2049.343
-13.648	35.370	1891.631	2048.267
-12.633	35.319	1890.815	2046.755
-11.619	35.342	1888.911	2044.867
-10.604	35.311	1888.426	2043.921
-9.590	35.230	1887.352	2041.814
-8.575	35.273	1886.175	2040.923
-7.560	35.269	1884.516	2038.996
-6.546	35.201	1883.786	2037.407
-5.531	35.152	1882.897	2035.837
-4.517	35.286	1881.456	2035.625
-3.502	35.189	1881.154	2034.184
-2.487	35.355	1879.101	2033.657
-1.473	35.408	1876.544	2031.372
-0.458	36.044	1858.457	2018.414
0.556	32.953	1991.734	2115.766
1.571	31.949	2207.661	2332.320
2.586	33.595	2256.576	2404.715
3.600	33.604	2258.933	2407.047
4.615	33.711	2259.269	2408.493
5.629	33.650	2256.707	2404.685
6.644	33.791	2254.833	2404.196
7.659	33.929	2253.771	2404.532
8.673	34.021	2251.542	2403.032
9.688	33.176	2255.423	2396.139
10.702	29.804	2323.911	2424.268
11.717	25.797	2385.246	2433.642
12.731	13.069	2352.113	2227.960
13.746	2.139	2321.568	2051.782
14.761	0.393	2315.913	2023.007
15.775	0.289	2314.667	2020.275
16.790	0.167	2313.150	2017.067
17.804	0.196	2310.701	2015.079
18.819	0.225	2309.767	2014.403
19.834	0.093	2309.291	2011.977
20.848	0.192	2307.307	2011.343
21.863	0.134	2305.976	2009.161
22.877	0.092	2302.914	2005.685
23.892	0.172	2301.197	2005.019
24.907	0.131	2298.693	2002.051
25.921	0.116	2297.410	2000.493
26.936	0.083	2295.467	1998.119
27.950	0.127	2293.056	1996.375
28.965	0.083	2290.641	1993.446
29.980	0.212	2289.088	1993.569
30.994	0.353	2287.008	1993.402
32.009	6.781	2310.339	2099.599
33.023	22.995	2360.118	2364.345
34.038	31.619	2378.668	2498.938
35.053	32.866	2379.046	2515.762
36.067	32.780	2375.454	2510.511
37.082	32.269	2372.716	2500.483
38.096	32.407	2371.648	2500.905
39.111	33.090	2371.555	2509.622
40.126	33.161	2369.130	2507.711
41.140	33.337	2368.909	2509.519
42.155	33.162	2363.779	2501.453
43.169	32.617	2361.319	2491.312
44.184	32.792	2359.019	2490.914
45.199	32.613	2357.171	2486.283
46.213	32.484	2354.287	2481.242
47.228	32.386	2353.851	2479.187
48.242	32.734	2352.449	2482.014
49.257	33.038	2352.163	2485.433
50.271	33.386	2350.149	2487.609
51.286	33.368	2348.982	2485.839
52.301	32.834	2345.109	2474.402
53.315	31.846	2341.610	2457.408
54.330	29.966	2333.283	2423.673
55.344	28.651	2326.989	2399.568
56.359	28.747	2323.541	2396.992
57.374	28.347	2321.763	2389.624
58.388	28.198	2318.904	2384.449
59.403	28.252	2315.045	2380.900
60.417	28.331	2312.162	2378.683
61.432	28.792	2311.873	2384.112
62.447	28.550	2309.252	2377.970
63.461	28.390	2307.666	2373.967
64.476	28.360	2304.728	2370.275
65.490	28.826	2304.601	2375.915
66.505	29.142	2304.346	2379.475
67.520	30.215	2308.611	2397.544
68.534	31.948	2311.260	2422.525
69.549	32.422	2309.008	2426.024
70.563	32.526	2306.545	2424.484
71.578	32.669	2305.063	2424.490
72.593	33.246	2305.770	2432.400
73.607	33.503	2304.199	2433.775
74.622	33.175	2301.325	2426.219
75.636	32.894	2297.993	2418.794
76.651	32.983	2295.304	2416.819
77.666	33.415	2294.474	2421.205
78.680	33.557	2292.586	2420.745
79.695	33.070	2289.787	2411.257
80.709	32.156	2285.469	2394.713
81.724	32.179	2283.644	2392.817
82.739	33.223	2285.716	2408.059
83.753	34.041	2285.256	2417.747
84.768	33.749	2282.416	2410.723
85.782	33.564	2280.764	2406.335
86.797	33.667	2278.066	2404.513
87.812	33.159	2275.348	2394.889
88.826	33.039	2274.353	2392.032
89.841	33.487	2272.703	2395.709
90.855	33.769	2270.576	2396.750
91.870	32.908	2266.799	2381.570
92.884	32.712	2264.825	2376.721
93.899	32.996	2264.911	2380.124
94.914	31.908	2259.551	2360.456
95.928	29.511	2251.935	2321.961
96.943	28.966	2249.599	2312.381
97.957	31.354	2255.431	2348.308
98.972	33.305	2256.643	2373.920
99.987	32.950	2252.653	2364.965
101.001	32.806	2250.923	2361.058
102.016	32.965	2248.149	2359.861
103.030	32.807	2245.920	2355.259
104.045	32.945	2243.542	2354.217
105.060	33.637	2243.495	2362.553
106.074	33.827	2242.551	2363.648
107.089	33.127	2238.797	2350.666
108.103	32.769	2237.742	2344.798
109.118	33.337	2236.961	2350.790
110.133	33.561	2236.271	2352.578
111.147	33.491	2234.376	2349.437
112.162	33.501	2232.476	2347.286
113.176	33.375	2229.448	2342.249
114.191	32.948	2227.122	2334.223
115.206	32.801	2225.643	2330.565
116.220	33.170	2223.918	2333.064
117.235	32.823	2220.827	2325.237
118.249	32.612	2218.386	2319.792
119.264	32.901	2216.993	2321.627
120.279	32.912	2214.884	2319.281
121.293	32.781	2212.376	2314.760
122.308	32.769	2212.081	2314.034
123.322	32.592	2211.029	2310.470
124.337	31.488	2204.161	2289.447
125.352	29.618	2198.894	2260.715
126.366	29.879	2199.902	2264.698
127.381	32.125	2203.543	2295.813
128.395	33.480	2203.981	2312.629
129.410	33.491	2201.363	2309.739
130.424	33.187	2199.088	2303.354
131.439	33.015	2198.026	2299.859
132.454	32.728	2194.208	2292.082
133.468	33.028	2193.054	2294.270
134.483	32.984	2190.267	2290.541
135.497	32.842	2189.487	2287.723
136.512	33.431	2189.844	2294.988
137.527	33.444	2188.112	2293.060
138.541	33.343	2186.914	2290.301
139.556	33.504	2185.880	2290.906
140.570	33.685	2185.027	2291.929
141.585	33.505	2182.063	2286.363
142.600	33.299	2180.055	2281.499
143.614	33.212	2178.544	2278.587
144.629	33.594	2177.182	2281.509
145.643	33.260	2175.355	2275.285
146.658	33.082	2172.231	2269.601
147.673	32.371	2168.057	2256.392
148.687	32.524	2167.830	2257.737
149.702	32.633	2167.619	2258.553
150.716	32.668	2166.881	2257.939
151.731	33.595	2168.381	2270.389
152.746	33.861	2166.922	2271.789
153.760	32.349	2160.820	2246.980
154.775	29.518	2152.422	2204.069
155.789	28.387	2149.959	2187.720
156.804	30.672	2153.722	2218.709
157.819	32.402	2154.507	2239.985
158.833	32.782	2151.418	2241.035
159.848	33.423	2151.342	2248.346
160.862	33.571	2150.307	2248.759
161.877	33.868	2149.961	2251.670
162.892	33.995	2149.984	2252.928
163.906	34.298	2149.028	2255.265
164.921	34.278	2146.426	2252.025
165.935	33.983	2143.990	2245.701
166.950	33.665	2140.739	2238.263
167.964	33.406	2138.343	2232.416
168.979	33.251	2136.316	2228.194
169.994	33.309	2135.648	2227.916
171.008	32.942	2132.210	2219.736
172.023	32.713	2130.207	2214.672
173.037	33.137	2130.551	2219.770
174.052	33.046	2127.813	2215.587
175.067	32.749	2126.381	2210.324
176.081	32.949	2124.268	2210.221
177.096	33.073	2125.354	2212.547
178.110	33.140	2122.874	2210.493
179.125	32.894	2121.627	2206.040
180.140	33.222	2121.368	2209.355
181.154	33.551	2120.997	2212.564
182.169	33.562	2119.553	2210.922
183.183	32.825	2114.023	2196.265
184.198	30.128	2105.836	2156.015
185.213	29.441	2104.593	2146.461
186.227	32.361	2110.721	2186.632
187.242	33.265	2109.909	2196.079
188.256	33.181	2107.708	2192.541
189.271	33.589	2106.954	2196.247
190.286	33.495	2106.018	2193.916
191.300	32.939	2101.686	2182.688
192.315	32.887	2100.614	2180.704
193.329	33.444	2100.637	2186.933
194.344	33.827	2099.743	2190.189
195.359	33.409	2098.727	2184.021
196.373	33.640	2097.015	2184.647
197.388	33.596	2093.058	2179.761
198.402	33.183	2091.009	2172.596
199.417	33.415	2089.365	2173.308
200.432	33.730	2088.087	2175.341
201.446	33.749	2087.397	2174.583
202.461	33.381	2084.537	2167.113
203.475	32.949	2082.001	2159.255
204.490	33.114	2080.231	2159.048
205.504	33.188	2078.346	2157.688
206.519	32.902	2075.291	2150.975
207.534	33.416	2074.579	2155.870
208.548	33.917	2075.137	2161.917
209.563	33.039	2071.282	2147.614
210.577	33.033	2070.624	2146.606
211.592	33.837	2071.434	2156.374
212.607	32.495	2065.088	2134.234
213.621	28.679	2056.135	2081.330
214.636	28.683	2056.721	2081.727
215.650	32.254	2063.443	2129.015
216.665	33.829	2064.728	2148.020
217.680	34.025	2063.130	2148.315
218.694	33.815	2061.919	2144.417
219.709	33.165	2058.336	2133.065
220.723	33.325	2057.827	2134.098
221.738	34.203	2057.245	2143.176
222.753	34.396	2055.948	2143.754
223.767	34.193	2053.332	2138.476
224.782	33.560	2050.550	2128.190
225.796	33.620	2049.022	2127.019
226.811	34.222	2049.330	2133.874
227.826	34.075	2046.435	2128.948
228.840	33.808	2044.243	2123.407
229.855	33.373	2042.481	2116.447
230.869	32.871	2040.300	2108.298
231.884	32.954	2039.542	2108.186
232.899	33.323	2039.440	2111.972
233.913	33.814	2038.523	2116.266
234.928	34.026	2037.618	2117.454
235.942	33.762	2035.655	2112.199
236.957	33.326	2032.348	2103.652
237.972	33.391	2031.611	2103.358
238.986	33.493	2030.693	2103.300
240.001	33.287	2028.483	2098.459
241.015	33.054	2026.179	2093.235
242.030	32.937	2024.592	2090.038
243.045	30.652	2016.869	2056.461
244.059	29.919	2016.085	2047.270
245.074	32.583	2020.231	2080.864
246.088	33.284	2017.465	2085.536
247.103	33.324	2016.328	2084.546
248.117	33.702	2016.840	2089.010
249.132	33.818	2014.343	2087.457
250.147	33.220	2011.650	2077.821
251.161	32.880	2009.265	2071.355
252.176	33.309	2009.190	2075.756
253.190	33.139	2005.382	2069.711
254.205	32.987	2003.615	2065.968
255.220	33.012	2002.938	2065.298
256.234	32.860	2001.116	2061.499
257.249	32.738	2000.187	2058.952
258.263	32.892	1999.668	2059.862
259.278	33.142	1999.952	2062.654
260.293	33.522	1997.676	2064.222
261.307	33.382	1995.665	2060.367
262.322	33.251	1994.805	2057.796
263.336	32.755	1991.995	2049.233
264.351	32.862	1989.707	2047.803
265.366	33.351	1990.218	2053.419
266.380	33.683	1989.692	2056.245
267.395	33.322	1987.456	2049.756
268.409	33.166	1986.294	2046.619
269.424	33.510	1984.681	2048.453
270.439	33.569	1984.126	2048.276
271.453	33.146	1979.068	2038.221
272.468	29.983	1969.356	1993.812
273.482	28.989	1968.920	1982.376
274.497	31.694	1972.803	2015.348
275.512	33.298	1973.745	2033.407
276.526	33.608	1971.799	2034.509
277.541	33.396	1969.368	2029.470
278.555	32.864	1968.269	2022.369
279.570	32.946	1966.261	2020.940
280.585	32.630	1963.730	2014.703
281.599	32.886	1963.315	2016.785
282.614	32.368	1957.781	2005.315
283.628	29.259	1950.010	1963.876
284.643	27.822	1945.798	1944.032
285.657	27.687	1944.307	1940.862
286.672	27.693	1941.672	1938.063
287.687	27.174	1940.545	1931.162
288.701	27.573	1939.193	1933.847
289.716	27.849	1937.578	1934.942
290.730	27.378	1936.071	1928.199
291.745	28.144	1937.051	1937.094
292.760	28.612	1937.909	1942.702
293.774	30.366	1943.218	1966.481
294.789	32.859	1947.066	1996.694
295.803	33.523	1945.721	2002.135
296.818	33.330	1944.126	1998.203
297.833	33.670	1942.817	2000.228
298.847	33.558	1941.183	1997.116
299.862	33.492	1939.130	1994.064
300.876	32.805	1934.467	1981.777
301.891	30.430	1928.363	1950.258
302.906	29.562	1927.199	1939.688
303.920	31.960	1932.066	1969.702
304.935	33.572	1932.551	1986.958
305.949	33.679	1930.428	1985.664
306.964	33.555	1929.892	1983.566
307.979	33.011	1924.501	1972.084
308.993	29.815	1913.663	1927.327
310.008	26.969	1906.654	1890.302
311.022	26.666	1904.885	1885.154
312.037	27.282	1904.476	1890.955
313.052	27.110	1902.513	1886.984
314.066	26.545	1899.763	1878.141
315.081	26.759	1899.091	1879.482
316.095	26.893	1898.368	1879.937
317.110	26.870	1897.270	1878.391
318.125	26.907	1895.948	1877.240
319.139	26.866	1895.631	1876.278
320.154	27.417	1893.327	1879.490
321.168	27.244	1892.120	1876.267
322.183	28.588	1895.963	1893.811
323.197	31.674	1902.033	1931.707
324.212	33.286	1903.350	1949.521
325.227	33.233	1901.327	1946.665
326.241	33.222	1900.670	1945.650
327.256	33.540	1900.232	1948.255
328.270	33.323	1897.653	1943.136
329.285	33.356	1898.434	1944.043
330.300	32.700	1894.675	1933.206
331.314	29.591	1885.650	1891.811
332.329	28.959	1885.192	1884.617
333.343	31.810	1889.563	1918.138
334.358	33.064	1890.088	1931.341
335.373	33.480	1890.075	1935.367
336.387	34.261	1888.827	1941.864
337.402	34.116	1886.133	1937.378
338.416	33.657	1885.171	1931.460
339.431	33.762	1883.388	1930.483
340.446	33.036	1877.718	1917.033
341.460	29.539	1867.220	1870.553
342.475	27.719	1861.971	1846.570
343.489	27.007	1859.650	1836.808
344.504	26.588	1859.163	1831.844
345.519	26.727	1857.165	1831.077
346.533	26.717	1853.533	1827.173
347.548	26.536	1853.223	1824.816
348.562	26.711	1852.926	1826.075
349.577	26.667	1852.100	1824.595
350.592	26.927	1851.254	1826.170
351.606	27.150	1849.262	1826.246
352.621	26.911	1845.759	1820.157
353.635	26.560	1846.177	1816.810
354.650	28.066	1849.681	1835.246
355.665	31.185	1854.837	1871.636
356.679	32.356	1856.923	1885.327
357.694	32.736	1856.158	1888.149
358.708	33.231	1855.811	1892.546
359.723	32.331	1852.249	1879.657
360.738	29.613	1844.295	1844.127
361.752	29.531	1844.671	1843.456
362.767	32.180	1848.475	1873.640
363.781	33.132	1847.910	1882.378
364.796	33.479	1847.600	1885.301
365.810	33.294	1845.550	1881.135
366.825	32.437	1840.073	1866.788
367.840	29.254	1831.467	1826.192
368.854	26.947	1825.741	1797.333
369.869	26.744	1823.660	1793.043
370.883	26.945	1823.414	1794.587
371.898	26.986	1822.901	1794.276
372.913	26.925	1820.244	1790.841
373.927	26.886	1818.274	1788.301
374.942	26.961	1818.071	1788.631
375.956	27.255	1817.974	1791.228
376.971	27.004	1815.257	1785.861
377.986	26.683	1813.064	1780.319
379.000	26.723	1813.101	1780.537
380.015	27.043	1811.873	1782.276
381.029	29.214	1817.135	1808.684
382.044	32.664	1823.115	1848.499
383.059	33.634	1822.607	1857.325
384.073	33.399	1820.684	1852.829
385.088	33.620	1820.404	1854.492
386.102	33.595	1818.780	1852.370
387.117	33.316	1816.676	1847.270
388.132	33.422	1816.578	1847.987
389.146	32.783	1813.301	1838.175
390.161	29.872	1804.857	1800.972
391.175	29.151	1802.620	1791.476
392.190	31.287	1803.662	1813.164
393.205	32.652	1804.519	1827.118
394.219	33.136	1803.804	1830.891
395.234	33.148	1803.195	1830.169
396.248	33.121	1801.707	1828.183
397.263	33.094	1799.449	1825.409
398.278	32.941	1797.557	1821.789
399.292	32.439	1794.450	1813.553
400.307	30.896	1788.578	1792.492
401.321	28.161	1782.275	1759.572
402.336	27.134	1778.845	1746.058
403.350	27.152	1777.195	1744.406
404.365	27.669	1777.058	1749.048
405.380	27.596	1775.589	1746.686
406.394	26.778	1773.589	1736.642
407.409	26.564	1771.596	1732.424
408.423	26.766	1769.489	1732.091
409.438	26.470	1767.783	1727.378
410.453	26.385	1766.818	1725.416
411.467	26.551	1766.509	1726.493
412.482	26.973	1767.861	1731.659
413.496	30.357	1775.187	1771.139
414.511	33.083	1777.481	1799.350
415.526	33.199	1775.047	1797.774
416.540	33.153	1774.455	1796.522
417.555	33.222	1773.605	1796.111
418.569	32.645	1771.252	1788.012
419.584	32.272	1770.335	1783.310
420.599	32.526	1770.419	1785.602
421.613	32.774	1769.896	1787.225
422.628	32.797	1768.805	1786.127
423.642	33.218	1767.570	1788.674
424.657	32.224	1763.232	1774.642
425.672	31.773	1761.623	1768.524
426.686	32.503	1760.711	1774.317
427.701	32.297	1759.605	1771.042
428.715	32.272	1758.534	1769.514
429.730	32.633	1758.054	1772.235
430.745	33.529	1757.350	1779.771
431.759	33.656	1758.320	1781.738
432.774	33.849	1757.053	1782.062
433.788	31.304	1748.496	1749.257
434.803	28.227	1742.577	1714.213
435.818	27.623	1741.048	1706.823
436.832	27.596	1740.552	1705.871
437.847	26.810	1733.656	1691.548
438.861	17.209	1705.125	1574.513
439.876	3.936	1679.899	1428.514
440.890	0.505	1673.522	1391.162
441.905	0.201	1671.415	1386.432
442.920	0.064	1670.310	1384.089
443.934	0.202	1669.427	1384.464
444.949	0.200	1668.197	1383.256
445.963	0.162	1667.404	1382.081
446.978	0.137	1667.167	1381.493
447.993	0.122	1665.499	1379.806
449.007	0.082	1662.996	1377.201
450.022	0.149	1661.323	1376.269
451.036	0.257	1660.191	1376.156
452.051	1.500	1667.380	1393.408
453.066	13.428	1695.516	1527.990
454.080	26.730	1717.656	1671.986
455.095	29.989	1722.243	1706.490
456.109	30.652	1724.243	1714.409
457.124	31.154	1723.580	1718.194
458.139	30.506	1721.452	1709.881
459.153	29.951	1719.755	1702.855
460.168	30.065	1717.290	1701.269
461.182	30.439	1717.071	1704.292
462.197	30.780	1716.791	1706.956
463.212	31.545	1716.556	1713.569
464.226	32.362	1717.688	1722.013
465.241	32.553	1716.097	1721.970
466.255	32.434	1714.618	1719.187
467.270	32.386	1713.612	1717.524
468.285	33.210	1714.630	1725.907
469.299	34.107	1714.390	1733.674
470.314	34.133	1712.384	1731.679
471.328	33.916	1710.987	1728.076
472.343	33.754	1710.844	1726.240
473.358	33.806	1708.660	1724.309
474.372	33.799	1707.913	1723.283
475.387	34.513	1707.795	1729.469
476.401	34.424	1705.736	1726.361
477.416	33.741	1701.784	1715.952
478.430	33.356	1701.372	1711.837
479.445	33.786	1701.788	1715.955
480.460	34.119	1700.524	1717.495
481.474	34.247	1699.486	1717.405
482.489	34.158	1697.922	1714.818
483.503	33.423	1694.846	1704.856
484.518	32.887	1692.961	1697.912
485.533	33.349	1692.735	1701.657
486.547	33.360	1689.546	1698.348
487.562	32.153	1686.436	1684.150
488.576	32.700	1687.154	1689.590
489.591	33.707	1687.513	1698.816
490.606	33.917	1686.595	1699.579
491.620	33.952	1685.018	1698.101
492.635	33.679	1681.644	1692.050
493.649	32.744	1678.881	1680.695
494.664	32.667	1679.229	1680.149
495.679	33.617	1679.401	1688.631
496.693	33.939	1677.817	1689.715
497.708	33.847	1676.259	1687.119
498.722	33.393	1675.691	1682.295
499.737	33.397	1673.718	1680.148
500.752	33.548	1672.748	1680.315
501.766	33.823	1671.650	1681.461
502.781	33.917	1669.490	1679.925
503.795	33.965	1668.771	1679.421
504.810	33.891	1667.673	1677.457
505.825	33.554	1665.777	1672.369
506.839	32.904	1663.016	1663.637
507.854	32.648	1661.403	1659.556
508.868	32.141	1659.206	1652.687
509.883	31.178	1655.896	1640.687
510.898	30.487	1653.128	1631.645
511.912	30.208	1650.732	1626.629
512.927	30.108	1648.765	1623.619
513.941	30.048	1647.240	1621.390
514.956	30.310	1647.761	1624.012
515.971	30.995	1647.308	1629.396
516.985	30.662	1644.774	1623.775
518.000	30.229	1643.501	1618.527
519.014	30.039	1642.140	1615.328
520.029	29.901	1640.491	1612.300
521.043	30.034	1639.372	1612.176
522.058	30.203	1638.588	1612.682
523.073	30.163	1637.917	1611.484
524.087	30.252	1636.999	1611.166
525.102	30.700	1636.800	1614.679
526.116	31.803	1638.660	1625.953
527.131	32.901	1638.821	1635.486
528.146	32.730	1637.664	1632.643
529.160	32.600	1636.852	1630.512
530.175	32.992	1635.840	1632.713
531.189	33.005	1633.948	1630.740
532.204	32.895	1632.181	1627.831
533.219	33.228	1631.124	1629.468
534.233	33.479	1630.938	1631.258
535.248	32.894	1627.936	1623.006
536.262	32.148	1627.004	1615.437
537.277	32.634	1627.356	1619.791
538.292	33.178	1627.271	1624.208
539.306	33.326	1624.845	1622.869
540.321	32.705	1621.697	1614.193
541.335	31.993	1619.624	1605.815
542.350	32.558	1619.164	1610.020
543.365	33.049	1618.334	1613.217
544.379	33.388	1617.373	1614.968
545.394	33.068	1615.488	1610.154
546.408	32.638	1614.149	1604.949
547.423	33.173	1614.871	1610.053
548.438	34.006	1615.504	1617.617
549.452	33.860	1613.186	1613.855
550.467	32.777	1610.852	1602.093
551.481	32.800	1609.228	1600.483
552.496	32.599	1608.018	1597.374
553.511	32.708	1605.988	1596.088
554.525	32.795	1605.769	1596.426
555.540	32.701	1605.097	1594.767
556.554	32.842	1603.630	1594.313
557.569	32.556	1601.650	1589.732
558.583	32.002	1598.891	1582.107
559.598	31.881	1597.569	1579.583
560.613	31.791	1596.738	1577.812
561.627	31.436	1593.637	1571.560
562.642	30.978	1590.440	1564.353
563.656	30.130	1588.570	1555.185
564.671	29.921	1586.884	1551.582
565.686	29.763	1585.726	1548.935
566.700	29.840	1584.742	1548.443
567.715	29.746	1583.665	1546.409
568.729	29.890	1582.814	1546.607
569.744	30.447	1581.458	1549.766
570.759	30.751	1579.910	1550.606
571.773	30.200	1579.114	1545.028
572.788	29.861	1577.375	1540.306
573.802	29.923	1575.423	1538.736
574.817	29.726	1573.660	1535.182
575.832	29.781	1572.594	1534.421
576.846	30.422	1573.446	1540.416
577.861	31.311	1573.715	1547.905
578.875	31.805	1573.923	1552.039
579.890	32.164	1573.046	1553.968
580.905	32.285	1572.122	1553.874
581.919	32.065	1572.705	1552.434
582.934	32.274	1571.433	1552.733
583.948	32.155	1568.941	1549.097
584.963	32.144	1567.276	1547.177
585.978	32.308	1566.121	1547.206
586.992	31.649	1564.947	1540.413
588.007	31.550	1564.703	1539.169
589.021	31.466	1562.334	1535.964
590.036	30.548	1559.555	1525.481
591.051	30.915	1559.315	1528.091
592.065	31.622	1558.697	1533.121
593.080	31.559	1557.585	1531.325
594.094	31.841	1556.326	1532.224
595.109	32.124	1555.909	1533.953
596.123	33.078	1555.686	1541.370
597.138	33.183	1553.859	1540.237
598.153	32.314	1551.567	1530.679
599.167	31.862	1549.511	1524.771
600.182	31.711	1548.150	1522.019
601.196	31.759	1548.332	1522.405
602.211	32.288	1547.049	1525.274
603.226	32.070	1545.610	1521.900
604.240	32.260	1544.533	1522.202
605.255	32.214	1542.897	1520.032
606.269	31.895	1541.610	1515.994
607.284	31.887	1539.929	1514.098
608.299	31.698	1539.064	1511.529
609.313	31.478	1537.075	1507.614
610.328	31.082	1535.211	1502.396
611.342	31.329	1534.248	1503.271
612.357	31.100	1533.627	1500.632
613.372	30.798	1531.694	1496.120
614.386	30.589	1529.580	1492.190
615.401	30.595	1528.891	1491.389
616.415	30.272	1528.187	1487.925
617.430	29.896	1526.229	1482.810
618.445	29.661	1523.621	1478.213
619.459	29.633	1523.146	1477.352
620.474	29.684	1522.809	1477.253
621.488	30.085	1522.604	1480.095
622.503	30.898	1522.176	1486.028
623.518	30.300	1519.804	1478.746
624.532	29.500	1517.305	1469.736
625.547	29.581	1515.845	1468.795
626.561	29.455	1515.644	1467.420
627.576	29.472	1514.389	1466.160
628.591	29.800	1513.095	1467.352
629.605	30.012	1512.307	1468.096
630.620	30.475	1511.854	1471.166
631.634	31.247	1512.715	1477.976
632.649	31.161	1511.499	1475.931
633.663	30.562	1508.526	1468.094
634.678	29.888	1505.792	1459.915
635.693	29.482	1504.008	1454.796
636.707	29.570	1502.144	1453.517
637.722	29.531	1501.866	1452.763
638.736	30.004	1502.250	1456.699
639.751	30.728	1501.598	1461.616
640.766	30.804	1500.434	1460.906
641.780	30.750	1499.576	1459.469
642.795	31.116	1499.697	1462.299
643.809	31.338	1498.835	1463.024
644.824	31.378	1498.672	1463.006
645.839	31.771	1497.675	1464.948
646.853	31.685	1496.255	1462.710
647.868	31.458	1494.947	1459.478
648.882	31.211	1493.570	1456.017
649.897	31.313	1491.152	1454.289
650.912	31.033	1490.121	1450.920
651.926	31.014	1489.385	1449.877
652.941	31.264	1487.630	1449.946
653.955	31.071	1485.614	1446.304
654.970	30.184	1483.040	1436.722
655.985	29.821	1480.591	1431.358
656.999	29.854	1479.539	1430.427
658.014	29.823	1478.997	1429.484
659.028	30.348	1478.177	1432.595
660.043	30.624	1479.232	1435.593
661.058	30.819	1478.473	1436.191
662.072	31.171	1477.002	1437.316
663.087	31.030	1475.929	1435.011
664.101	31.019	1474.606	1433.466
665.116	30.911	1473.878	1431.755
666.131	31.090	1472.837	1431.951
667.145	31.202	1472.009	1431.840
668.160	31.033	1470.521	1428.922
669.174	30.849	1468.289	1425.162
670.189	31.012	1467.653	1425.630
671.204	31.405	1467.850	1428.669
672.218	31.188	1466.639	1425.654
673.233	31.283	1465.271	1424.884
674.247	31.235	1463.269	1422.401
675.262	31.059	1461.922	1419.571
676.276	30.753	1461.066	1416.234
677.291	30.885	1460.571	1416.589
678.306	31.543	1459.818	1420.713
679.320	31.393	1457.798	1417.434
680.335	30.731	1456.578	1411.038
681.349	30.665	1456.757	1410.538
682.364	30.784	1455.283	1409.847
683.379	30.502	1453.024	1405.350
684.393	30.177	1451.593	1401.325
685.408	30.172	1450.343	1399.917
686.422	29.951	1449.221	1396.988
687.437	29.813	1448.070	1394.669
688.452	29.427	1446.978	1390.521
689.466	29.534	1444.356	1388.646
690.481	29.468	1443.086	1386.760
691.495	29.497	1443.756	1387.456
692.510	30.315	1444.179	1393.878
693.525	31.177	1443.724	1399.770
694.539	30.645	1441.091	1393.049
695.554	29.609	1438.963	1383.033
696.568	29.394	1437.615	1379.953
697.583	29.396	1436.460	1378.696
698.598	29.518	1436.151	1379.152
699.612	29.906	1435.478	1381.250
700.627	30.022	1434.595	1381.100
701.641	30.297	1434.447	1382.858
702.656	30.567	1433.188	1383.497
703.671	30.504	1432.481	1382.178
704.685	30.764	1431.718	1383.216
705.700	30.795	1430.227	1381.845
706.714	30.581	1428.561	1378.478
707.729	30.414	1428.024	1376.547
708.744	30.423	1426.516	1374.995
709.758	30.120	1424.405	1370.542
710.773	29.410	1422.241	1363.028
711.787	29.387	1421.326	1361.816
712.802	29.986	1420.742	1365.537
713.816	30.074	1420.930	1366.203
714.831	30.399	1419.871	1367.428
715.846	30.257	1417.955	1364.372
716.860	30.195	1416.872	1362.710
717.875	30.374	1415.905	1362.936
718.889	30.332	1414.797	1361.398
719.904	30.225	1414.223	1359.891
720.919	30.154	1412.359	1357.418
721.933	29.934	1411.541	1354.848
722.948	29.805	1410.590	1352.825
723.962	30.061	1409.264	1353.272
724.977	30.113	1408.297	1352.561
725.992	30.281	1407.712	1353.068
727.006	30.625	1406.859	1354.607
728.021	30.570	1404.753	1352.019
729.035	30.393	1403.797	1349.640
730.050	30.502	1403.060	1349.564
731.065	30.400	1401.725	1347.373
732.079	30.251	1400.389	1344.847
733.094	30.213	1400.099	1344.132
734.108	30.631	1399.262	1346.204
735.123	30.449	1397.200	1342.740
736.138	30.323	1395.850	1340.369
737.152	30.295	1394.633	1338.835
738.167	30.100	1393.564	1336.232
739.181	30.288	1392.955	1336.855
740.196	30.177	1392.267	1335.230
741.211	29.990	1391.119	1332.612
742.225	29.847	1390.003	1330.356
743.240	29.966	1388.275	1329.399
744.254	29.640	1386.725	1325.409
745.269	29.586	1385.568	1323.750
746.284	29.229	1384.650	1320.148
747.298	29.305	1383.207	1319.159
748.313	29.366	1382.451	1318.718
749.327	29.555	1382.434	1319.906
750.342	30.321	1383.332	1326.103
751.356	31.066	1383.292	1331.254
752.371	30.969	1380.954	1328.150
753.386	29.823	1378.414	1317.353
754.400	29.765	1377.138	1315.559
755.415	30.023	1376.748	1316.873
756.429	30.231	1376.039	1317.521
757.444	30.283	1374.832	1316.580
758.459	30.231	1373.167	1314.459
759.473	30.120	1372.094	1312.483
760.488	29.813	1370.026	1308.165
761.502	29.411	1369.449	1304.601
762.517	29.740	1368.071	1305.472
763.532	29.927	1366.998	1305.616
764.546	29.694	1365.441	1302.326
765.561	29.170	1364.346	1297.414
766.575	28.951	1362.804	1294.245
767.590	28.965	1361.494	1292.944
768.605	29.352	1361.086	1295.131
769.619	29.612	1360.238	1296.007
770.634	29.727	1359.163	1295.636
771.648	29.719	1357.731	1294.059
772.663	29.528	1357.220	1292.072
773.678	29.635	1357.315	1292.765
774.692	29.899	1356.648	1293.829
775.707	29.842	1356.333	1292.972
776.721	30.020	1355.130	1292.920
777.736	29.795	1353.755	1289.875
778.751	29.922	1352.929	1289.822
779.765	30.035	1351.891	1289.472
780.780	29.977	1350.647	1287.727
781.794	29.888	1350.495	1286.804
782.809	29.749	1348.940	1284.198
783.824	29.325	1347.182	1279.416
784.838	29.437	1346.446	1279.343
785.853	30.012	1346.031	1282.797
786.867	29.841	1344.736	1280.222
787.882	29.347	1343.081	1275.061
788.897	29.246	1342.572	1273.719
789.911	29.145	1340.942	1271.320
790.926	29.116	1339.797	1269.884
791.940	29.392	1338.863	1270.761
792.955	29.386	1337.431	1269.206
793.969	29.480	1336.048	1268.390
794.984	29.442	1335.343	1267.305
795.999	29.584	1335.236	1268.038
797.013	29.727	1334.235	1267.920
798.028	29.751	1332.701	1266.470
799.042	29.673	1332.159	1265.269
800.057	29.533	1330.953	1263.013
801.072	29.593	1329.346	1261.745
802.086	29.735	1327.690	1260.995
803.101	29.664	1327.170	1259.869
804.115	29.516	1326.300	1257.878
805.130	29.687	1325.289	1257.938
806.145	29.666	1323.434	1255.879
807.159	29.367	1322.257	1252.575
808.174	29.419	1321.617	1252.171
809.188	29.549	1320.752	1252.091
810.203	29.485	1318.296	1249.176
811.218	29.182	1316.967	1245.708
812.232	28.760	1315.521	1241.327
813.247	28.515	1315.069	1239.086
814.261	28.832	1314.853	1240.886
815.276	29.229	1314.031	1242.651
816.291	29.245	1312.694	1241.352
817.305	29.249	1311.511	1240.109
818.320	29.203	1310.453	1238.652
819.334	29.475	1309.708	1239.630
820.349	29.519	1308.264	1238.412
821.364	29.511	1306.725	1236.752
822.378	29.545	1305.449	1235.632
823.393	29.608	1303.707	1234.255
824.407	29.369	1303.156	1231.981
825.422	29.387	1302.530	1231.364
826.437	29.489	1301.531	1230.956
827.451	29.198	1299.529	1226.969
828.466	29.440	1299.329	1228.252
829.480	29.844	1297.511	1229.085
830.495	29.325	1295.427	1223.500
831.509	29.045	1294.720	1220.823
832.524	29.089	1293.917	1220.210
833.539	29.404	1292.943	1221.245
834.553	29.272	1292.538	1219.831
835.568	29.277	1290.814	1218.094
836.582	29.483	1289.809	1218.369
837.597	29.626	1288.162	1217.617
838.612	29.395	1286.301	1214.179
839.626	29.230	1285.040	1211.752
840.641	29.067	1284.387	1209.917
841.655	28.786	1283.915	1207.471
842.670	28.624	1282.063	1204.516
843.685	28.491	1280.654	1202.175
844.699	28.682	1279.784	1202.468
845.714	28.983	1278.818	1203.399
846.728	28.826	1278.156	1201.597
847.743	29.021	1277.352	1201.979
848.758	29.240	1276.385	1202.363
849.772	29.308	1275.325	1201.666
850.787	29.437	1273.706	1200.838
851.801	29.381	1272.701	1199.384
852.816	29.362	1271.537	1198.021
853.831	29.245	1270.460	1196.095
854.845	29.094	1269.117	1193.707
855.860	28.959	1267.659	1191.309
856.874	29.017	1266.516	1190.470
857.889	29.096	1265.617	1190.000
858.904	29.416	1264.456	1190.840
859.918	29.787	1263.921	1192.602
860.933	30.114	1262.615	1193.344
861.947	29.775	1260.609	1189.112
862.962	29.081	1259.845	1183.763
863.977	29.120	1258.442	1182.558
864.991	29.327	1256.816	1182.220
866.006	29.069	1256.676	1180.284
867.020	29.142	1256.002	1179.983
868.035	29.261	1254.323	1179.031
869.049	29.334	1253.659	1178.729
870.064	29.417	1253.123	1178.623
871.079	29.189	1251.705	1175.686
872.093	29.068	1251.250	1174.336
873.108	28.964	1249.869	1172.238
874.122	29.053	1247.775	1170.701
875.137	28.736	1247.046	1167.851
876.152	28.620	1246.513	1166.469
877.166	28.585	1244.956	1164.653
878.181	28.789	1243.831	1164.758
879.195	28.831	1243.279	1164.372
880.210	29.031	1243.529	1165.742
881.225	29.060	1242.456	1164.777
882.239	29.124	1241.486	1164.135
883.254	29.225	1240.277	1163.501
884.268	29.370	1239.189	1163.261
885.283	29.251	1237.972	1161.231
886.298	29.200	1236.743	1159.613
887.312	29.124	1236.107	1158.396
888.327	29.155	1234.812	1157.242
889.341	29.187	1233.366	1155.952
890.356	29.186	1233.036	1155.498
891.371	29.208	1232.610	1155.094
892.385	29.110	1231.433	1153.237
893.400	29.092	1230.222	1151.851
894.414	29.159	1229.463	1151.426
895.429	29.274	1228.682	1151.277
896.444	30.036	1228.647	1155.890
897.458	30.799	1228.005	1159.928
898.473	30.192	1225.928	1154.029
899.487	29.545	1224.165	1148.191
900.502	29.208	1223.112	1144.960
901.517	29.189	1222.233	1143.882
902.531	29.076	1220.579	1141.495
903.546	29.125	1219.806	1140.938
904.560	29.295	1218.917	1141.032
905.575	29.219	1218.307	1139.848
906.589	28.994	1217.344	1137.414
907.604	28.953	1216.093	1135.852
