DTS Sentinel unit serial number:	SN409020Multiplexer serial number:	ORYXHardware model number:	OX4-SRSoftware version number:	ORYX F/W v3.00 Oryx Data Collector v3.7.2.0data status	okinstallation	HaddamTimeLapsedifferential loss correction	single-endedforward channel	channel 3reverse channel	N/Adate	2011/06/22time	06:31:18forward acquisition time	30.00reverse acquisition time	0.00gamma	498.7831k internal	0.1752k external	0.1752temperature offset calibration	1.0074default loss term (dB/km)	0.3790temperature slope calibration	1.3530multiplexer offset coefficient	1.0000multiplexer slope coefficient	1.0000fibre end	0.00T internal ref (°C)	22.62T ext. ref 1 (°C)	18.49T ext. ref 2 (°C)	0.20length (m)	temperature (°C)	Stokes	anti-Stokes-747.200	-45.099	0.154	-0.101
-746.185	-56.284	0.386	0.227
-745.171	-52.597	0.451	0.275
-744.156	10.728	-0.387	0.392
-743.142	-89.499	-0.167	0.065
-742.127	-200.000	-0.011	0.132
-741.112	578.925	-0.173	-0.566
-740.098	12.053	-0.243	0.248
-739.083	86.013	-0.215	-0.314
-738.069	-8.598	0.053	0.047
-737.054	6.593	0.073	0.072
-736.039	53.178	-0.274	-0.349
-735.025	137.042	0.247	-0.430
-734.010	-200.000	0.024	-0.454
-732.996	-146.370	0.245	-0.028
-731.981	-4.665	0.241	-0.221
-730.966	-76.367	-0.609	-0.283
-729.952	527.775	-0.027	0.086
-728.937	-41.570	0.221	0.150
-727.923	800.000	-0.069	-0.341
-726.908	302.568	-0.208	-0.513
-725.894	-16.973	-0.429	-0.359
-724.879	31.327	-0.287	-0.327
-723.864	-200.000	-0.034	0.253
-722.850	133.389	0.160	0.275
-721.835	-19.503	-0.094	0.077
-720.821	-16.498	0.230	-0.193
-719.806	-32.986	0.215	0.158
-718.791	-64.889	-0.421	0.225
-717.777	734.048	0.067	0.238
-716.762	-20.389	0.220	0.180
-715.748	-200.000	-0.021	0.144
-714.733	-103.607	0.191	-0.059
-713.718	-73.891	-0.171	-0.082
-712.704	-80.315	-0.315	0.139
-711.689	-112.853	-0.081	0.021
-710.675	-83.669	-0.100	-0.042
-709.660	110.203	0.232	0.371
-708.645	334.874	0.047	0.122
-707.631	-69.271	0.309	-0.157
-706.616	88.392	-0.352	-0.519
-705.602	800.000	0.135	0.604
-704.587	-17.624	0.452	0.376
-703.572	-111.858	-0.505	0.134
-702.558	800.000	0.070	-0.321
-701.543	176.444	-0.068	-0.131
-700.529	13.025	-0.072	-0.074
-699.514	-200.000	0.011	-0.413
-698.499	-200.000	0.244	0.001
-697.485	-200.000	0.015	-0.128
-696.470	22.536	0.174	0.189
-695.456	-121.525	-0.220	0.048
-694.441	96.865	0.322	0.490
-693.426	-161.832	0.053	-0.004
-692.412	50.320	0.100	0.126
-691.397	47.858	0.187	-0.232
-690.383	-200.000	0.066	-0.586
-689.368	-87.218	-0.393	0.157
-688.354	-3.288	-0.355	0.327
-687.339	-94.982	-0.353	-0.126
-686.324	-200.000	-0.105	-0.631
-685.310	-200.000	-0.014	0.175
-684.295	-107.635	-0.369	-0.106
-683.281	-200.000	0.063	0.491
-682.266	130.214	0.127	-0.215
-681.251	-172.866	-0.396	-0.016
-680.237	87.497	0.151	-0.221
-679.222	-48.460	0.227	-0.144
-678.208	-65.189	-0.229	-0.122
-677.193	-200.000	0.057	-0.335
-676.178	-1.827	0.418	0.389
-675.164	-110.143	0.144	-0.040
-674.149	800.000	0.172	-0.813
-673.135	-156.885	-0.482	0.039
-672.120	-24.180	-0.109	-0.086
-671.105	-179.830	-0.321	-0.009
-670.091	-200.000	-0.006	-0.112
-669.076	104.849	-0.064	0.101
-668.062	30.881	0.234	0.266
-667.047	800.000	-0.109	0.409
-666.032	4.589	-0.204	-0.198
-665.018	-45.850	0.235	-0.153
-664.003	738.491	0.149	-0.534
-662.989	-200.000	0.054	-0.353
-661.974	-34.950	-0.111	-0.080
-660.959	-174.294	-0.229	-0.009
-659.945	-91.977	0.085	-0.032
-658.930	-154.852	-0.438	-0.038
-657.916	-88.364	-0.218	0.086
-656.901	800.000	0.126	0.475
-655.886	69.466	0.251	0.343
-654.872	-17.489	-0.287	0.239
-653.857	-128.796	-0.197	-0.036
-652.843	-149.716	0.040	0.004
-651.828	-73.784	-0.173	0.083
-650.814	272.121	-0.215	-0.504
-649.799	-149.485	0.101	0.010
-648.784	-56.381	-0.211	-0.124
-647.770	92.452	0.156	-0.233
-646.755	52.253	-0.180	-0.228
-645.741	-104.618	0.400	0.121
-644.726	-57.623	0.082	-0.048
-643.711	173.966	0.148	-0.284
-642.697	-56.680	-0.526	-0.307
-641.682	-115.658	0.200	-0.049
-640.668	-85.126	-0.227	0.093
-639.653	-186.703	0.554	-0.010
-638.638	-172.637	-0.420	-0.017
-637.624	800.000	0.024	-0.095
-636.609	206.062	-0.197	-0.406
-635.595	-101.214	0.410	0.132
-634.580	800.000	0.035	-0.145
-633.565	88.791	0.069	0.101
-632.551	-130.363	-0.406	-0.072
-631.536	-117.655	0.424	0.100
-630.522	-89.708	-0.635	0.245
-629.507	256.430	0.063	0.144
-628.492	-138.240	0.305	-0.044
-627.478	-110.995	0.162	-0.044
-626.463	87.717	-0.148	-0.218
-625.449	-41.900	-0.313	-0.212
-624.434	800.000	-0.083	0.370
-623.419	-144.515	0.163	0.020
-622.405	800.000	0.122	0.457
-621.390	13.516	-0.219	0.225
-620.376	79.552	-0.160	0.228
-619.361	64.164	0.322	-0.429
-618.346	-23.762	0.402	-0.318
-617.332	-170.518	0.308	0.014
-616.317	52.279	-0.032	-0.041
-615.303	800.000	-0.033	0.172
-614.288	73.063	0.214	-0.296
-613.273	800.000	-0.031	-0.143
-612.259	-60.440	0.131	0.073
-611.244	766.737	-0.114	-0.411
-610.230	99.998	-0.169	0.259
-609.215	-57.307	0.476	0.275
-608.201	-158.753	-0.198	0.015
-607.186	-72.958	-0.199	-0.096
-606.171	-149.406	-0.722	-0.075
-605.157	-89.128	-0.112	0.043
-604.142	-40.938	-0.309	-0.211
-603.128	-38.551	-0.488	-0.340
-602.113	-4.176	-0.340	0.311
-601.098	19.685	0.142	0.151
-600.084	-200.000	-0.062	-0.460
-599.069	-174.235	-0.388	0.015
-598.055	-141.649	-0.183	0.024
-597.040	69.209	-0.142	-0.193
-596.025	-143.788	-0.276	0.034
-595.011	-7.155	0.263	-0.235
-593.996	-200.000	-0.018	-0.404
-592.982	18.416	-0.355	-0.374
-591.967	-144.548	-0.122	0.015
-590.952	-45.389	0.129	0.084
-589.938	-200.000	-0.010	0.334
-588.923	-108.844	0.259	0.073
-587.909	-9.723	0.199	0.175
-586.894	800.000	0.117	-0.608
-585.879	-23.430	0.288	0.228
-584.865	-82.069	-0.166	0.071
-583.850	274.831	-0.209	0.490
-582.836	-160.405	0.471	0.033
-581.821	-106.270	-0.472	-0.139
-580.806	117.093	0.243	-0.395
-579.792	28.327	0.237	0.264
-578.777	-47.486	0.405	0.259
-577.763	704.468	-0.132	0.461
-576.748	-17.198	-0.129	0.107
-575.733	26.337	0.226	-0.249
-574.719	239.949	0.205	0.452
-573.704	800.000	-0.060	0.300
-572.690	8.636	0.280	-0.278
-571.675	-199.652	-0.785	-0.005
-570.661	-169.401	0.345	0.016
-569.646	-113.099	0.243	0.063
-568.631	-20.317	-0.341	-0.277
-567.617	-23.705	-0.297	-0.234
-566.602	-71.016	-0.292	0.144
-565.588	-91.459	-0.327	0.122
-564.573	25.085	-0.249	0.272
-563.558	-200.000	-0.035	-0.359
-562.544	-200.000	-0.009	0.207
-561.529	466.485	-0.203	-0.604
-560.515	197.324	-0.134	-0.271
-559.500	-200.000	0.013	-0.142
-558.485	-179.391	-0.154	0.004
-557.471	-200.000	-0.145	1.131
-556.456	-93.089	-0.364	-0.133
-555.442	287.928	-0.114	-0.273
-554.427	7.944	-0.214	-0.211
-553.412	-82.137	0.088	-0.038
-552.398	75.535	0.234	-0.327
-551.383	469.549	0.093	0.275
-550.369	-149.888	0.444	0.045
-549.354	59.636	-0.275	-0.358
-548.339	42.567	0.123	-0.148
-547.325	-35.562	-0.553	-0.395
-546.310	-78.898	0.456	0.204
-545.296	-67.162	-0.419	-0.217
-544.281	-31.360	0.216	-0.159
-543.266	-6.360	-0.093	-0.084
-542.252	-106.887	-0.459	-0.133
-541.237	7.269	-0.208	0.205
-540.223	373.529	0.128	-0.343
-539.208	1.748	0.564	-0.535
-538.193	-48.652	-0.172	0.109
-537.179	482.122	-0.134	-0.404
-536.164	-34.439	0.296	0.213
-535.150	160.233	0.195	0.359
-534.135	113.558	-0.041	0.065
-533.121	-129.729	0.119	-0.021
-532.106	479.192	-0.082	-0.245
-531.091	2.474	0.251	0.239
-530.077	-22.146	0.264	0.210
-529.062	-200.000	-0.009	0.324
-528.048	289.716	-0.103	0.248
-527.033	329.452	-0.046	-0.117
-526.018	72.357	-0.102	-0.141
-525.004	-110.200	-0.492	-0.134
-523.989	-98.130	-0.029	-0.010
-522.975	85.851	-0.188	0.272
-521.960	203.503	-0.088	0.181
-520.945	-146.681	0.198	0.022
-519.931	138.124	0.139	-0.240
-518.916	800.000	0.137	0.599
-517.902	12.631	0.060	-0.061
-516.887	-12.130	-0.180	-0.155
-515.872	-68.513	0.247	0.125
-514.858	171.459	-0.065	0.123
-513.843	-105.760	-0.295	-0.087
-512.829	326.173	0.044	0.112
-511.814	154.106	-0.167	0.302
-510.799	-59.272	-0.130	0.074
-509.785	316.299	0.140	0.350
-508.770	-106.591	0.380	-0.111
-507.756	542.589	0.021	-0.065
-506.741	-32.754	0.114	-0.083
-505.726	-108.047	-0.683	0.194
-504.712	362.392	-0.054	0.143
-503.697	511.102	0.099	0.305
-502.683	-110.867	-0.330	-0.089
-501.668	-196.416	-0.578	0.005
-500.653	-200.000	0.004	-0.305
-499.639	766.244	-0.060	-0.216
-498.624	362.679	-0.204	-0.540
-497.610	800.000	0.063	0.232
-496.595	107.074	0.122	0.191
-495.581	-6.633	-0.208	0.186
-494.566	414.995	0.146	0.410
-493.551	-96.437	0.074	0.025
-492.537	146.196	-0.053	-0.094
-491.522	-200.000	-0.012	-0.142
-490.508	-200.000	0.005	-0.521
-489.493	-176.749	0.492	-0.016
-488.478	-48.418	-0.083	0.052
-487.464	-127.186	-0.233	-0.044
-486.449	366.744	-0.009	0.025
-485.435	132.713	-0.230	-0.392
-484.420	-117.296	-0.188	-0.045
-483.405	-104.278	-0.246	-0.075
-482.391	-200.000	-0.070	0.567
-481.376	-140.558	0.242	0.033
-480.362	153.868	0.172	-0.310
-479.347	-200.000	-0.029	-0.302
-478.332	-65.675	0.353	-0.185
-477.318	-200.000	-0.016	0.150
-476.303	-73.001	0.301	0.145
-475.289	-200.000	0.450	-0.002
-474.274	800.000	-0.147	0.700
-473.259	-94.195	-0.382	-0.136
-472.245	800.000	0.055	-0.257
-471.230	101.887	-0.187	-0.288
-470.216	-200.000	-0.003	0.184
-469.201	23.419	-0.583	-0.630
-468.186	-123.322	0.374	0.078
-467.172	-6.896	-0.123	-0.110
-466.157	-200.000	0.031	0.244
-465.143	-45.085	0.204	-0.133
-464.128	-45.946	0.165	0.107
-463.113	-77.428	0.218	-0.099
-462.099	-43.185	0.176	0.117
-461.084	-137.906	0.387	-0.056
-460.070	126.688	0.298	0.497
-459.055	-86.345	0.071	0.028
-458.040	-99.479	-0.507	-0.167
-457.026	178.669	0.119	-0.229
-456.011	-156.423	1.003	-0.081
-454.997	-200.000	-0.019	0.269
-453.982	-29.028	-0.147	0.111
-452.968	-133.544	0.259	-0.042
-451.953	-145.123	-0.242	-0.029
-450.938	-30.030	-0.124	0.093
-449.924	105.881	0.073	0.114
-448.909	-1.743	0.144	0.133
-447.895	-74.313	0.276	0.130
-446.880	-11.401	-0.127	0.109
-445.865	178.864	-0.219	-0.421
-444.851	800.000	-0.037	-0.202
-443.836	-57.194	-0.398	-0.229
-442.822	-20.865	-0.272	0.219
-441.807	189.396	-0.150	-0.296
-440.792	91.861	-0.303	0.448
-439.778	-9.678	-0.193	-0.169
-438.763	312.510	0.114	-0.282
-437.749	-38.550	-0.339	-0.235
-436.734	-36.328	-0.412	0.291
-435.719	-1.324	-0.203	-0.188
-434.705	-91.280	0.235	-0.088
-433.690	-7.990	-0.096	0.084
-432.676	-75.043	-0.205	0.096
-431.661	-22.892	0.192	-0.151
-430.646	800.000	-0.050	0.209
-429.632	474.879	-0.140	0.416
-428.617	20.025	-0.261	-0.276
-427.603	193.937	0.197	-0.393
-426.588	-39.972	-0.154	0.105
-425.573	32.948	0.386	0.439
-424.559	475.451	-0.116	-0.344
-423.544	711.881	0.103	0.359
-422.530	68.813	-0.161	0.217
-421.515	-81.030	-0.493	-0.213
-420.500	-163.472	-0.316	0.019
-419.486	254.889	0.114	-0.258
-418.471	367.759	-0.093	0.247
-417.457	800.000	0.149	0.666
-416.442	29.454	0.164	0.183
-415.428	-200.000	0.062	-0.452
-414.413	-151.747	-0.400	-0.038
-413.398	-83.365	0.142	0.059
-412.384	-106.509	0.528	0.153
-411.369	96.404	0.409	0.614
-410.355	31.006	-0.287	0.322
-409.340	-53.904	0.523	-0.312
-408.325	419.070	-0.057	0.161
-407.311	-184.489	0.518	0.011
-406.296	395.631	-0.062	0.170
-405.282	-44.384	0.289	-0.189
-404.267	280.524	-0.297	0.699
-403.252	-71.077	0.237	-0.116
-402.238	-200.000	-0.022	-0.208
-401.223	27.002	0.173	0.190
-400.209	538.008	-0.070	-0.219
-399.194	-36.348	0.162	0.114
-398.179	-85.514	-0.571	0.232
-397.165	252.723	-0.141	0.316
-396.150	-67.978	0.623	0.317
-395.136	-91.623	0.256	0.095
-394.121	-138.881	-0.198	0.028
-393.106	146.600	-0.099	-0.175
-392.092	-63.781	-0.383	0.205
-391.077	611.917	-0.089	0.294
-390.063	-106.954	0.287	0.082
-389.048	-45.458	0.321	-0.208
-388.033	800.000	0.054	-0.258
-387.019	1.630	0.020	0.019
-386.004	-200.000	0.021	-0.198
-384.990	368.104	-0.073	0.194
-383.975	-200.000	-0.021	0.156
-382.960	-172.574	0.246	0.010
-381.946	447.629	0.101	-0.292
-380.931	-67.652	0.306	-0.156
-379.917	34.222	-0.117	0.133
-378.902	-73.432	-0.220	0.105
-377.888	800.000	-0.059	0.297
-376.873	-119.211	0.519	0.118
-375.858	-29.212	0.181	0.136
-374.844	-92.982	0.173	-0.063
-373.829	121.631	-0.212	0.346
-372.815	800.000	0.089	-0.411
-371.800	76.522	-0.265	-0.368
-370.785	-177.197	0.409	-0.013
-369.771	120.705	0.109	0.178
-368.756	-99.673	-0.429	-0.140
-367.742	-185.074	0.274	-0.005
-366.727	-200.000	-0.021	-0.189
-365.712	87.232	0.269	-0.389
-364.698	49.516	0.175	0.216
-363.683	800.000	0.055	-0.308
-362.669	800.000	0.031	-0.129
-361.654	-86.777	-0.232	0.092
-360.639	-16.496	0.301	-0.249
-359.625	427.706	-0.124	0.351
-358.610	82.406	-0.192	0.273
-357.596	420.439	-0.075	0.212
-356.581	178.372	0.130	-0.249
-355.566	663.889	-0.079	-0.267
-354.552	-111.739	-0.199	0.052
-353.537	69.559	-0.014	0.019
-352.523	-143.511	-0.478	0.059
-351.508	198.260	0.121	0.242
-350.493	15.454	-0.337	0.345
-349.479	398.659	0.096	0.263
-348.464	800.000	-0.086	-0.327
-347.450	-141.470	0.405	0.053
-346.435	800.000	-0.115	0.503
-345.420	-89.781	-0.279	-0.106
-344.406	0.107	0.502	0.467
-343.391	390.385	0.122	0.332
-342.377	-38.425	-0.058	-0.040
-341.362	-60.399	-0.208	-0.115
-340.348	-71.155	-0.226	-0.111
-339.333	-173.276	0.533	0.021
-338.318	177.224	-0.100	0.191
-337.304	82.093	0.081	0.116
-336.289	315.794	-0.117	-0.290
-335.275	-83.092	-0.169	-0.071
-334.260	-33.027	0.415	0.300
-333.245	-132.273	-0.166	0.028
-332.231	-29.339	0.441	0.329
-331.216	519.623	0.082	0.252
-330.202	-106.450	-0.241	-0.070
-329.187	-134.820	0.145	0.023
-328.172	77.071	0.045	-0.062
-327.158	-65.884	0.377	-0.196
-326.143	-200.000	0.043	0.492
-325.129	424.867	0.082	0.233
-324.114	-163.120	-0.456	0.028
-323.099	11.371	0.112	0.112
-322.085	-99.130	0.609	-0.200
-321.070	-57.080	0.148	0.085
-320.056	-139.115	0.233	-0.033
-319.041	81.943	-0.206	0.291
-318.026	-39.601	-0.240	-0.164
-317.012	800.000	0.138	-0.501
-315.997	800.000	-0.037	0.166
-314.983	-6.998	-0.216	-0.191
-313.968	-154.561	-0.342	0.029
-312.953	194.973	0.165	-0.329
-311.939	13.369	-0.198	-0.200
-310.924	800.000	-0.037	-0.136
-309.910	-96.766	0.239	-0.082
-308.895	-2.766	-0.147	0.134
-307.880	-100.681	0.532	-0.170
-306.866	-200.000	-0.066	-0.433
-305.851	65.226	-0.347	-0.458
-304.837	-3.842	0.292	-0.264
-303.822	-132.219	-0.235	-0.039
-302.807	-61.336	-0.537	0.294
-301.793	171.884	0.017	-0.032
-300.778	-144.056	-0.224	0.027
-299.764	459.244	0.155	0.453
-298.749	-67.923	0.482	0.244
-297.735	-8.876	-0.239	-0.209
-296.720	-114.465	-0.356	0.089
-295.705	49.078	-0.192	0.235
-294.691	5.286	-0.259	-0.249
-293.676	123.099	-0.191	0.313
-292.662	-113.553	-0.514	0.130
-291.647	-140.686	-0.160	0.021
-290.632	-200.000	0.046	-0.541
-289.618	119.602	0.141	-0.229
-288.603	183.477	-0.173	0.335
-287.589	-200.000	-0.081	0.634
-286.574	-22.172	-0.264	-0.209
-285.559	-200.000	0.006	0.276
-284.545	-15.467	-0.101	0.084
-283.530	800.000	-0.041	-0.161
-282.516	214.248	-0.071	-0.147
-281.501	-26.384	-0.284	-0.217
-280.486	-110.338	0.211	-0.057
-279.472	105.229	0.106	-0.164
-278.457	54.239	-0.094	0.118
-277.443	379.523	-0.072	0.192
-276.428	800.000	0.076	0.401
-275.413	-74.336	-0.332	0.156
-274.399	159.212	0.109	0.198
-273.384	-31.666	0.258	0.188
-272.370	-44.786	0.264	0.171
-271.355	800.000	0.054	-0.288
-270.340	-134.201	-0.306	0.049
-269.326	23.571	0.274	-0.294
-268.311	198.208	0.131	0.262
-267.297	-200.000	0.006	-0.507
-266.282	-200.000	0.021	0.187
-265.267	-58.887	0.400	-0.225
-264.253	-155.114	0.253	-0.021
-263.238	198.677	0.143	-0.286
-262.224	800.000	0.057	0.226
-261.209	68.342	-0.131	-0.175
-260.195	60.282	-0.147	0.190
-259.180	-102.657	0.228	0.070
-258.165	-17.397	0.277	-0.227
-257.151	-46.967	-0.345	0.219
-256.136	4.645	0.306	0.293
-255.122	18.831	0.344	0.359
-254.107	-10.824	0.331	-0.284
-253.092	-180.479	-0.726	0.019
-252.078	-60.655	0.338	-0.186
-251.063	-131.087	0.493	0.085
-250.049	800.000	-0.066	-0.266
-249.034	-75.214	0.020	-0.009
-248.019	-122.558	0.098	-0.021
-247.005	416.046	-0.075	0.211
-245.990	-200.000	-0.021	0.258
-244.976	-9.018	-0.108	-0.094
-243.961	800.000	0.040	-0.181
-242.946	81.392	0.037	0.053
-241.932	800.000	-0.091	0.360
-240.917	180.865	-0.214	-0.411
-239.903	597.002	-0.104	0.338
-238.888	-86.576	0.123	-0.049
-237.873	800.000	0.091	-0.451
-236.859	116.388	0.099	-0.159
-235.844	387.372	-0.092	0.249
-234.830	-200.000	0.001	-0.008
-233.815	158.276	-0.122	0.221
-232.800	8.233	0.160	0.156
-231.786	3.600	0.413	0.392
-230.771	-120.224	-0.331	0.073
-229.757	800.000	-0.023	0.112
-228.742	-56.746	0.255	0.146
-227.727	-104.122	0.238	-0.072
-226.713	101.324	0.186	-0.282
-225.698	-200.000	0.016	0.113
-224.684	-121.279	-0.150	0.032
-223.669	-71.106	0.101	-0.049
-222.655	720.392	0.034	-0.117
-221.640	291.299	-0.111	-0.263
-220.625	-161.136	-0.260	0.017
-219.611	342.148	0.126	-0.322
-218.596	130.673	0.300	-0.502
-217.582	-35.423	-0.392	-0.277
-216.567	165.544	0.159	-0.292
-215.552	800.000	0.018	-0.087
-214.538	83.867	0.194	0.276
-213.523	366.537	0.190	-0.501
-212.509	-165.176	-0.359	-0.020
-211.494	230.607	0.121	0.258
-210.479	32.289	0.212	0.238
-209.465	358.878	0.133	-0.346
-208.450	800.000	-0.073	-0.305
-207.436	-79.454	-0.419	0.183
-206.421	-102.045	0.130	0.040
-205.406	-200.000	-0.005	-0.197
-204.392	-146.174	-0.102	-0.012
-203.377	313.627	0.138	-0.339
-202.363	-148.437	0.477	0.050
-201.348	-150.342	0.467	0.046
-200.333	-80.588	-0.228	-0.098
-199.319	-22.886	0.487	-0.381
-198.304	307.641	-0.165	0.402
-197.290	-86.272	0.108	0.043
-196.275	800.000	0.054	-0.200
-195.260	148.982	-0.221	-0.389
-194.246	-105.424	0.386	0.113
-193.231	25.469	0.243	0.262
-192.217	80.522	0.198	0.278
-191.202	-200.000	0.022	0.293
-190.187	-120.743	0.250	-0.054
-189.173	27.430	0.201	0.220
-188.158	-163.299	0.060	-0.004
-187.144	400.320	0.107	-0.293
-186.129	-200.000	-0.072	0.430
-185.114	-46.701	0.137	0.087
-184.100	-135.104	-0.266	-0.041
-183.085	-103.199	-0.257	-0.078
-182.071	45.253	0.210	-0.252
-181.056	246.727	-0.177	0.389
-180.042	800.000	-0.069	0.369
-179.027	-60.642	-0.445	-0.244
-178.012	-200.000	-0.033	-0.535
-176.998	68.398	-0.235	0.313
-175.983	-121.061	0.662	0.143
-174.969	555.139	0.071	-0.222
-173.954	-200.000	0.010	-0.098
-172.939	150.265	0.145	0.255
-171.925	-200.000	-0.023	0.229
-170.910	301.886	-0.167	-0.401
-169.896	267.987	0.214	-0.488
-168.881	-142.596	-0.234	-0.029
-167.866	-109.822	0.247	0.067
-166.852	-38.876	0.198	-0.135
-165.837	-119.449	0.361	-0.081
-164.823	81.732	-0.172	-0.242
-163.808	750.888	-0.035	-0.125
-162.793	-77.293	-0.278	0.125
-161.779	-161.655	0.221	0.014
-160.764	144.788	-0.062	-0.108
-159.750	800.000	-0.026	-0.130
-158.735	-44.735	-0.340	0.220
-157.720	74.530	0.144	-0.196
-156.706	31.418	-0.393	0.438
-155.691	-70.099	0.199	-0.098
-154.677	-88.886	-0.332	0.127
-153.662	-74.526	-0.171	0.080
-152.647	-42.476	-0.107	-0.071
-151.633	-200.000	-0.047	-0.319
-150.618	800.000	0.069	-0.326
-149.604	4.082	-0.276	0.262
-148.589	268.350	0.016	0.036
-147.574	-136.809	-0.299	-0.044
-146.560	70.361	-0.191	-0.256
-145.545	-187.678	-0.449	0.008
-144.531	409.162	-0.092	-0.254
-143.516	-200.000	0.006	0.080
-142.502	800.000	-0.099	0.515
-141.487	-83.631	-0.557	-0.229
-140.472	-111.361	0.078	0.021
-139.458	-200.000	0.013	0.173
-138.443	-99.611	-0.226	0.073
-137.429	274.222	-0.123	-0.282
-136.414	101.086	-0.292	-0.442
-135.399	170.380	-0.063	-0.117
-134.385	633.327	0.050	0.165
-133.370	-45.889	0.329	0.210
-132.356	-175.828	-0.224	-0.008
-131.341	43.654	0.094	-0.112
-130.326	-95.776	0.037	-0.013
-129.312	-200.000	-0.043	0.342
-128.297	63.049	0.143	0.186
-127.283	127.592	0.230	0.379
-126.268	-100.226	0.115	-0.037
-125.253	-20.382	0.319	-0.254
-124.239	800.000	0.051	0.209
-123.224	8.889	-0.178	-0.173
-122.210	-155.118	0.091	-0.008
-121.195	800.000	-0.034	-0.157
-120.180	-46.742	0.088	-0.055
-119.166	13.273	-0.190	-0.191
-118.151	-200.000	0.059	-0.470
-117.137	-200.000	-0.014	-0.245
-116.122	370.905	0.027	0.072
-115.107	-200.000	0.030	0.224
-114.093	96.102	-0.167	0.248
-113.078	-182.159	0.544	0.013
-112.064	75.570	-0.323	-0.443
-111.049	26.476	-0.068	-0.073
-110.034	-152.631	0.232	0.021
-109.020	10.799	0.321	0.317
-108.005	-108.748	0.286	0.079
-106.991	-100.634	0.435	0.138
-105.976	-107.891	0.350	-0.098
-104.962	52.087	-0.361	-0.445
-103.947	183.753	0.069	-0.132
-102.932	-63.932	0.224	-0.118
-101.918	-146.137	-0.446	-0.050
-100.903	438.323	-0.123	0.350
-99.889	-144.952	-0.277	0.032
-98.874	532.653	-0.061	0.189
-97.859	288.835	0.093	0.219
-96.845	258.333	-0.071	-0.158
-95.830	-34.564	-0.246	-0.174
-94.816	325.613	-0.058	-0.144
-93.801	-69.548	0.355	-0.175
-92.786	-200.000	0.014	-0.143
-91.772	-172.627	-0.549	-0.022
-90.757	6.845	-0.298	0.287
-89.743	-7.689	0.343	-0.300
-88.728	-24.675	0.110	-0.084
-87.713	118.167	-0.078	0.125
-86.699	-94.822	-0.290	0.101
-85.684	-193.740	-0.375	-0.004
-84.670	800.000	-0.007	-0.028
-83.655	-111.884	-0.467	-0.121
-82.640	474.154	-0.114	-0.335
-81.626	800.000	-0.044	-0.168
-80.611	-55.117	-0.295	-0.171
-79.597	-200.000	0.052	0.299
-78.582	800.000	0.069	-0.255
-77.567	-166.913	0.279	0.015
-76.553	-10.803	0.210	0.179
-75.538	-99.188	-0.108	0.035
-74.524	65.200	-0.255	-0.333
-73.509	184.258	-0.094	-0.181
-72.494	1.604	-0.364	-0.339
-71.480	-10.776	-0.423	0.361
-70.465	385.733	0.254	0.680
-69.451	-183.267	-0.523	0.012
-68.436	-139.946	0.110	0.015
-67.422	144.563	0.267	-0.462
-66.407	-64.251	-0.463	-0.243
-65.392	-116.491	0.199	-0.047
-64.378	-99.981	0.627	0.201
-63.363	21.862	-0.281	0.296
-62.349	36.819	0.285	0.326
-61.334	19.699	-2.368	-2.463
-60.319	85.543	1.052	1.496
-59.305	203.195	-3.700	-7.418
-58.290	54.237	4.059	5.053
-57.276	372.250	3.922	10.345
-56.261	-200.000	24.385	318.512
-55.246	357.919	1299.573	3367.563
-54.232	53.544	2840.309	3524.167
-53.217	51.789	2659.327	3272.388
-52.203	32.003	2388.597	2660.682
-51.188	27.764	2054.646	2236.510
-50.173	24.530	1940.909	2074.924
-49.159	23.486	1929.282	2050.286
-48.144	22.948	1925.142	2039.558
-47.130	23.014	1922.487	2037.427
-46.115	22.987	1919.612	2033.995
-45.100	22.780	1919.710	2031.622
-44.086	22.884	1917.749	2030.665
-43.071	22.891	1916.064	2028.875
-42.057	22.848	1914.442	2026.589
-41.042	22.772	1913.714	2024.864
-40.027	22.773	1911.519	2022.472
-39.013	22.690	1910.874	2020.746
-37.998	22.828	1908.778	2020.037
-36.984	22.726	1908.442	2018.436
-35.969	22.848	1906.445	2017.640
-34.954	22.835	1905.358	2016.261
-33.940	22.846	1904.001	2014.874
-32.925	22.688	1903.232	2012.162
-31.911	22.686	1901.988	2010.748
-30.896	22.749	1900.094	2009.388
-29.881	22.639	1899.377	2007.291
-28.867	22.696	1898.393	2006.827
-27.852	22.631	1896.118	2003.591
-26.838	22.666	1894.866	2002.594
-25.823	22.678	1893.832	2001.558
-24.809	22.678	1892.449	2000.012
-23.794	22.743	1890.935	1999.076
-22.779	22.555	1889.584	1995.425
-21.765	22.630	1888.006	1994.539
-20.750	22.547	1887.658	1993.143
-19.736	22.565	1886.309	1991.843
-18.721	22.614	1884.864	1990.798
-17.706	22.528	1884.627	1989.487
-16.692	22.615	1882.291	1987.934
-15.677	22.512	1881.423	1985.766
-14.663	22.627	1879.459	1984.916
-13.648	22.541	1879.070	1983.454
-12.633	22.598	1877.260	1982.116
-11.619	22.513	1876.387	1980.153
-10.604	22.567	1874.853	1979.061
-9.590	22.421	1874.505	1976.969
-8.575	22.484	1872.586	1975.583
-7.560	22.545	1871.171	1974.695
-6.546	22.490	1869.990	1972.755
-5.531	22.492	1869.774	1972.465
-4.517	22.498	1867.625	1970.194
-3.502	22.718	1865.833	1970.687
-2.487	22.553	1865.870	1968.803
-1.473	22.617	1862.309	1965.678
-0.458	22.557	1843.772	1945.372
0.556	19.317	1990.654	2049.410
1.571	17.947	2194.356	2240.807
2.586	18.839	2233.274	2292.239
3.600	18.941	2235.530	2295.650
4.615	18.826	2235.548	2293.842
5.629	18.897	2233.807	2292.741
6.644	19.021	2230.253	2290.470
7.659	18.918	2228.615	2287.138
8.673	18.886	2227.033	2284.821
9.688	18.644	2236.036	2290.527
10.702	17.782	2315.566	2359.737
11.717	16.144	2380.099	2401.774
12.731	7.814	2359.863	2262.412
13.746	1.027	2342.100	2148.592
14.761	0.266	2338.401	2134.110
15.775	0.176	2335.789	2130.198
16.790	0.031	2335.200	2127.339
17.804	0.083	2332.484	2125.353
18.819	0.015	2332.326	2123.988
19.834	-0.050	2331.504	2122.063
20.848	0.100	2329.597	2122.194
21.863	0.061	2327.250	2119.248
22.877	0.056	2325.187	2117.050
23.892	-0.003	2324.216	2115.076
24.907	0.098	2320.769	2113.117
25.921	-0.039	2319.938	2110.167
26.936	0.013	2316.710	2107.720
27.950	0.091	2314.441	2106.492
28.965	0.113	2311.957	2104.298
29.980	0.017	2311.684	2102.445
30.994	0.113	2308.558	2100.690
32.009	4.264	2321.985	2171.151
33.023	14.023	2349.860	2335.372
34.038	18.152	2356.894	2400.457
35.053	18.398	2354.423	2401.124
36.067	18.377	2352.338	2398.412
37.082	18.426	2350.625	2397.072
38.096	18.427	2349.409	2395.558
39.111	18.669	2346.616	2395.827
40.126	18.717	2345.287	2394.853
41.140	18.859	2343.468	2394.692
42.155	18.657	2341.415	2389.478
43.169	18.697	2339.041	2387.332
44.184	18.678	2335.790	2383.460
45.199	18.624	2333.723	2380.323
46.213	18.558	2333.825	2379.223
47.228	18.613	2333.150	2379.007
48.242	18.637	2330.676	2376.537
49.257	18.648	2328.093	2373.775
50.271	18.763	2324.860	2371.795
51.286	18.648	2323.398	2368.422
52.301	18.519	2321.748	2364.660
53.315	18.782	2322.122	2368.407
54.330	20.217	2324.768	2390.715
55.344	20.969	2323.823	2399.868
56.359	21.124	2320.570	2398.359
57.374	21.147	2319.851	2397.649
58.388	21.340	2316.727	2396.798
59.403	21.258	2313.560	2392.101
60.417	21.207	2310.922	2388.398
61.432	21.214	2309.836	2387.078
62.447	21.480	2308.086	2388.635
63.461	21.515	2307.340	2388.064
64.476	21.645	2304.781	2386.898
65.490	21.529	2303.147	2383.342
66.505	21.133	2300.708	2375.111
67.520	19.901	2297.192	2354.358
68.534	18.769	2291.235	2332.536
69.549	18.654	2285.940	2325.302
70.563	18.695	2284.771	2324.384
71.578	18.695	2283.326	2322.644
72.593	18.687	2282.414	2321.330
73.607	18.888	2280.548	2321.879
74.622	18.881	2278.990	2319.914
75.636	18.766	2273.901	2312.905
76.651	18.574	2273.395	2309.515
77.666	18.647	2272.128	2308.938
78.680	18.699	2269.361	2306.558
79.695	18.568	2267.768	2302.894
80.709	18.559	2266.531	2301.230
81.724	18.698	2264.266	2300.530
82.739	18.573	2261.921	2296.195
83.753	18.593	2259.648	2293.880
84.768	18.631	2257.613	2292.053
85.782	18.563	2257.322	2290.569
86.797	18.554	2255.830	2288.657
87.812	18.633	2252.775	2286.343
88.826	18.587	2250.738	2283.382
89.841	18.755	2248.519	2283.112
90.855	18.674	2246.291	2279.485
91.870	18.473	2245.772	2276.012
92.884	18.644	2241.950	2274.144
93.899	18.595	2241.746	2273.009
94.914	18.800	2242.836	2276.577
95.928	19.981	2245.948	2295.197
96.943	20.410	2244.069	2298.721
97.957	19.182	2238.653	2276.588
98.972	18.611	2234.120	2264.132
99.987	18.516	2230.140	2258.575
101.001	18.497	2227.364	2255.240
102.016	18.493	2226.412	2253.952
103.030	18.469	2224.571	2251.500
104.045	18.517	2222.455	2249.727
105.060	18.646	2219.967	2248.630
106.074	18.671	2218.379	2247.090
107.089	18.513	2216.393	2242.733
108.103	18.602	2215.637	2242.861
109.118	18.629	2213.381	2240.662
110.133	18.645	2213.015	2240.236
111.147	18.685	2211.530	2238.996
112.162	18.782	2208.633	2237.057
113.176	18.806	2205.776	2234.206
114.191	18.683	2204.339	2230.884
115.206	18.666	2203.285	2229.325
116.220	18.630	2200.906	2226.176
117.235	18.564	2198.882	2223.003
118.249	18.614	2196.138	2220.614
119.264	18.652	2195.856	2220.566
120.279	18.741	2195.072	2220.656
121.293	18.714	2192.394	2217.330
122.308	18.710	2191.373	2215.984
123.322	18.648	2189.721	2213.245
124.337	18.899	2189.256	2215.769
125.352	20.199	2193.341	2236.490
126.366	20.610	2191.089	2239.249
127.381	19.147	2183.688	2212.537
128.395	18.556	2180.177	2201.099
129.410	18.641	2177.733	2199.461
130.424	18.717	2176.676	2199.100
131.439	18.551	2175.441	2195.460
132.454	18.557	2173.358	2193.165
133.468	18.657	2170.577	2191.383
134.483	18.631	2169.504	2189.700
135.497	18.596	2167.742	2187.220
136.512	18.548	2165.352	2183.930
137.527	18.539	2163.647	2181.829
138.541	18.646	2162.642	2181.930
139.556	18.509	2161.906	2179.172
140.570	18.448	2160.495	2176.713
141.585	18.611	2157.755	2175.771
142.600	18.632	2157.198	2175.206
143.614	18.573	2155.446	2172.435
144.629	18.396	2153.825	2168.288
145.643	18.456	2152.167	2167.124
146.658	18.409	2149.920	2163.998
147.673	18.582	2147.854	2163.857
148.687	18.645	2146.802	2163.334
149.702	18.533	2145.858	2160.712
150.716	18.568	2145.447	2160.480
151.731	18.680	2144.267	2160.452
152.746	18.790	2142.543	2159.842
153.760	18.848	2144.933	2162.725
154.775	20.096	2146.493	2179.835
155.789	20.458	2144.430	2182.043
156.804	19.179	2137.280	2158.416
157.819	18.502	2132.365	2144.679
158.833	18.533	2130.084	2142.516
159.848	18.775	2128.205	2143.410
160.862	18.644	2128.451	2141.757
161.877	18.824	2126.997	2142.289
162.892	18.850	2124.942	2140.289
163.906	18.766	2124.141	2138.178
164.921	18.766	2121.066	2134.827
165.935	18.670	2119.554	2131.851
166.950	18.582	2118.460	2129.397
167.964	18.584	2115.831	2126.519
168.979	18.496	2113.383	2122.712
169.994	18.582	2111.532	2121.673
171.008	18.503	2111.028	2119.929
172.023	18.626	2108.881	2119.042
173.037	18.654	2108.358	2118.613
174.052	18.663	2106.318	2116.422
175.067	18.495	2104.985	2112.739
176.081	18.510	2104.480	2112.175
177.096	18.690	2102.764	2112.417
178.110	18.521	2100.912	2108.215
179.125	18.593	2099.942	2107.882
180.140	18.606	2098.095	2105.941
181.154	18.603	2096.213	2103.762
182.169	18.627	2095.349	2102.936
183.183	18.817	2096.342	2106.021
184.198	20.307	2098.445	2126.252
185.213	20.596	2096.993	2128.081
186.227	19.282	2091.899	2106.525
187.242	18.690	2088.918	2096.000
188.256	18.633	2086.829	2092.950
189.271	18.769	2085.491	2093.024
190.286	18.905	2083.861	2092.808
191.300	18.676	2081.089	2086.971
192.315	18.549	2078.968	2083.043
193.329	18.670	2078.057	2083.366
194.344	18.921	2076.916	2085.025
195.359	18.853	2075.389	2082.419
196.373	18.687	2073.795	2078.549
197.388	18.707	2071.110	2075.848
198.402	18.524	2069.260	2071.529
199.417	18.470	2067.496	2068.857
200.432	18.534	2065.903	2067.787
201.446	18.686	2064.970	2068.447
202.461	18.679	2062.724	2065.874
203.475	18.638	2061.016	2063.419
204.490	18.602	2059.234	2060.952
205.504	18.623	2056.563	2058.287
206.519	18.468	2055.358	2054.964
207.534	18.535	2053.510	2053.681
208.548	18.519	2052.674	2052.401
209.563	18.555	2050.862	2050.775
210.577	18.668	2049.573	2050.599
211.592	18.703	2049.399	2050.607
212.607	19.384	2051.544	2060.685
213.621	20.857	2054.489	2081.097
214.636	20.502	2049.722	2071.771
215.650	18.979	2044.534	2048.056
216.665	18.604	2042.208	2040.992
217.680	18.792	2040.617	2041.415
218.694	18.676	2039.873	2039.037
219.709	18.640	2037.865	2036.354
220.723	18.570	2036.320	2033.734
221.738	18.685	2035.001	2033.542
222.753	18.590	2032.134	2029.300
223.767	18.554	2030.943	2027.441
224.782	18.508	2028.205	2023.920
225.796	18.642	2027.600	2024.660
226.811	18.669	2026.853	2024.004
227.826	18.723	2024.080	2021.627
228.840	18.813	2023.150	2021.519
229.855	18.627	2021.903	2017.833
230.869	18.585	2020.992	2016.190
231.884	18.683	2018.823	2014.940
232.899	18.577	2017.826	2012.449
233.913	18.580	2016.979	2011.398
234.928	18.666	2015.579	2010.774
235.942	18.817	2013.270	2010.013
236.957	18.635	2011.945	2006.308
237.972	18.810	2010.322	2006.504
238.986	18.871	2009.520	2006.179
240.001	18.727	2007.862	2002.591
241.015	18.582	2006.983	1999.775
242.030	18.914	2007.101	2003.540
243.045	20.156	2008.474	2019.229
244.059	20.222	2006.829	2018.105
245.074	19.221	2000.469	1999.786
246.088	18.645	1997.440	1989.806
247.103	18.636	1996.131	1988.169
248.117	18.698	1994.964	1987.480
249.132	18.750	1993.202	1986.093
250.147	18.672	1991.185	1982.946
251.161	18.513	1990.631	1980.308
252.176	18.628	1988.432	1979.212
253.190	18.966	1986.549	1981.020
254.205	18.706	1984.117	1975.347
255.220	18.799	1982.850	1974.924
256.234	18.655	1982.639	1972.818
257.249	18.683	1981.057	1971.337
258.263	18.626	1979.715	1969.106
259.278	18.720	1978.233	1968.474
260.293	18.585	1977.618	1966.072
261.307	18.512	1975.202	1962.601
262.322	18.651	1972.843	1961.609
263.336	18.485	1971.005	1957.641
264.351	18.433	1969.488	1955.313
265.366	18.552	1968.311	1955.267
266.380	18.599	1967.822	1955.089
267.395	18.620	1966.129	1953.411
268.409	18.514	1964.232	1950.080
269.424	18.664	1963.410	1950.751
270.439	18.621	1963.090	1949.701
271.453	18.888	1963.291	1952.715
272.468	20.283	1964.535	1969.652
273.482	20.351	1961.699	1967.345
274.497	19.097	1957.072	1948.215
275.512	18.681	1952.414	1938.622
276.526	18.701	1950.383	1936.602
277.541	18.613	1949.807	1934.794
278.555	18.520	1948.387	1932.103
279.570	18.486	1945.585	1928.704
280.585	18.483	1943.864	1926.737
281.599	18.659	1943.025	1927.664
282.614	18.739	1941.347	1926.676
283.628	18.719	1941.455	1926.319
284.643	18.799	1940.815	1926.353
285.657	18.924	1940.056	1926.786
286.672	18.946	1937.639	1924.396
287.687	18.848	1935.612	1921.054
288.701	18.787	1934.862	1919.397
289.716	18.730	1933.353	1917.031
290.730	18.576	1932.104	1913.832
291.745	18.943	1929.646	1915.274
292.760	18.755	1929.007	1912.310
293.774	18.630	1928.284	1909.965
294.789	18.661	1927.483	1909.289
295.803	18.738	1924.246	1906.710
296.818	18.598	1923.392	1904.076
297.833	18.643	1921.778	1902.760
298.847	18.605	1921.287	1901.614
299.862	18.632	1919.652	1900.073
300.876	18.870	1919.328	1902.172
301.891	20.246	1921.742	1919.656
302.906	20.714	1921.053	1923.936
303.920	19.378	1915.747	1903.579
304.935	18.852	1912.244	1894.043
305.949	18.661	1909.859	1889.344
306.964	18.722	1907.685	1887.645
307.979	18.785	1906.949	1887.380
308.993	18.741	1905.151	1884.885
310.008	18.709	1903.633	1882.815
311.022	18.917	1902.109	1883.371
312.037	18.948	1901.774	1883.149
313.052	18.971	1899.266	1880.694
314.066	18.824	1898.122	1877.728
315.081	18.626	1897.012	1874.229
316.095	18.709	1895.274	1873.194
317.110	18.587	1893.591	1869.972
318.125	18.634	1892.437	1869.128
319.139	18.811	1891.495	1869.908
320.154	18.838	1890.642	1869.138
321.168	18.791	1888.909	1866.679
322.183	18.838	1886.902	1864.989
323.197	18.518	1885.822	1860.210
324.212	18.620	1883.339	1858.646
325.227	18.526	1881.623	1855.711
326.241	18.587	1880.501	1855.046
327.256	18.752	1879.290	1855.419
328.270	18.625	1878.399	1852.943
329.285	18.718	1878.055	1853.382
330.300	19.168	1880.601	1860.561
331.314	20.603	1882.127	1877.438
332.329	20.588	1877.032	1871.964
333.343	19.211	1871.608	1851.465
334.358	18.849	1870.215	1845.959
335.373	18.702	1869.074	1843.029
336.387	18.717	1866.588	1840.513
337.402	18.864	1864.718	1840.035
338.416	18.732	1863.729	1837.413
339.431	18.810	1863.138	1837.454
340.446	18.887	1860.662	1835.616
341.460	18.852	1859.801	1834.175
342.475	18.976	1858.171	1833.673
343.489	18.851	1856.716	1830.680
344.504	18.820	1855.869	1829.297
345.519	18.924	1854.009	1828.350
346.533	18.857	1852.448	1825.878
347.548	18.963	1852.392	1826.738
348.562	19.018	1849.950	1824.702
349.577	18.971	1848.842	1822.886
350.592	19.039	1848.688	1823.244
351.606	18.962	1846.263	1819.818
352.621	18.867	1844.082	1816.436
353.635	18.657	1843.045	1812.970
354.650	18.600	1841.298	1810.429
355.665	18.628	1839.919	1809.149
356.679	18.660	1838.225	1807.605
357.694	18.518	1837.624	1805.300
358.708	18.676	1836.745	1805.885
359.723	19.344	1838.134	1814.107
360.738	20.676	1839.550	1829.371
361.752	20.324	1836.129	1822.043
362.767	19.047	1831.012	1803.302
363.781	18.625	1829.249	1796.902
364.796	18.575	1828.251	1795.180
365.810	18.551	1826.716	1793.204
366.825	18.687	1825.913	1793.630
367.840	18.735	1824.937	1792.964
368.854	18.883	1822.872	1792.276
369.869	18.453	1821.647	1786.349
370.883	18.331	1819.641	1782.889
371.898	18.395	1818.909	1782.628
372.913	18.599	1817.883	1783.543
373.927	18.509	1816.719	1781.252
374.942	18.606	1815.361	1780.719
375.956	18.556	1814.094	1778.737
376.971	18.510	1812.794	1776.768
377.986	18.524	1810.525	1774.481
379.000	18.434	1809.474	1772.304
380.015	18.702	1807.929	1773.358
381.029	18.968	1805.551	1773.576
382.044	18.818	1804.455	1770.734
383.059	18.759	1803.197	1768.671
384.073	18.727	1800.729	1765.707
385.088	18.512	1801.365	1763.897
386.102	18.512	1799.506	1761.869
387.117	18.437	1796.867	1758.294
388.132	18.395	1796.745	1757.540
389.146	19.052	1799.320	1766.623
390.161	20.475	1801.026	1782.776
391.175	20.381	1795.305	1775.940
392.190	18.962	1789.424	1755.353
393.205	18.560	1786.936	1748.591
394.219	18.554	1786.198	1747.591
395.234	18.712	1784.727	1747.566
396.248	18.756	1783.059	1746.170
397.263	18.582	1780.760	1741.933
398.278	18.487	1778.949	1738.985
399.292	18.618	1778.327	1739.502
400.307	18.876	1777.628	1741.242
401.321	18.879	1777.313	1740.753
402.336	18.817	1775.363	1738.000
403.350	18.768	1773.962	1735.927
404.365	18.889	1773.228	1736.224
405.380	19.150	1771.668	1737.139
406.394	18.980	1771.107	1734.656
407.409	18.862	1769.748	1731.921
408.423	18.892	1767.430	1729.758
409.438	18.905	1765.865	1728.142
410.453	18.934	1765.626	1728.002
411.467	18.828	1764.924	1726.031
412.482	18.882	1762.768	1724.266
413.496	18.828	1760.895	1721.676
414.511	18.783	1759.296	1719.462
415.526	18.547	1757.107	1714.740
416.540	18.630	1755.773	1714.070
417.555	18.446	1754.861	1711.130
418.569	18.473	1754.879	1711.205
419.584	18.588	1754.394	1711.687
420.599	18.699	1754.528	1712.724
421.613	18.647	1752.887	1710.393
422.628	18.639	1751.802	1709.052
423.642	18.687	1749.854	1707.430
424.657	18.608	1748.104	1704.722
425.672	18.467	1747.254	1702.288
426.686	18.608	1744.472	1700.775
427.701	18.467	1743.496	1698.213
428.715	18.527	1741.760	1696.916
429.730	18.698	1740.888	1697.571
430.745	18.729	1739.261	1696.083
431.759	18.773	1739.005	1696.074
432.774	18.642	1738.627	1694.194
433.788	18.565	1737.843	1692.470
434.803	18.695	1736.558	1692.304
435.818	18.611	1736.138	1690.858
436.832	18.376	1736.059	1688.253
437.847	17.624	1728.355	1673.133
438.861	10.086	1707.054	1578.580
439.876	1.938	1692.577	1485.468
440.890	0.294	1688.643	1465.768
441.905	0.178	1687.374	1463.365
442.920	0.177	1686.022	1462.007
443.934	0.119	1685.089	1460.453
444.949	0.228	1684.264	1460.624
445.963	-0.025	1683.899	1457.670
446.978	0.041	1682.417	1456.854
447.993	0.128	1681.174	1456.454
449.007	0.213	1678.539	1454.822
450.022	0.178	1676.758	1452.765
451.036	0.191	1675.888	1451.964
452.051	1.179	1681.055	1465.860
453.066	9.187	1698.545	1559.309
454.080	16.805	1709.968	1644.179
455.095	18.061	1712.020	1658.218
456.109	18.362	1710.635	1659.607
457.124	18.442	1709.413	1659.007
458.139	18.248	1708.836	1656.361
459.153	18.160	1708.257	1654.740
460.168	18.288	1706.221	1653.817
461.182	18.188	1704.155	1650.640
462.197	18.317	1702.249	1649.845
463.212	18.278	1700.828	1647.899
464.226	18.328	1700.187	1647.558
465.241	18.366	1699.386	1646.957
466.255	18.348	1698.058	1645.302
467.270	18.430	1696.581	1644.465
468.285	18.362	1695.175	1642.250
469.299	18.292	1693.774	1640.015
470.314	18.269	1692.268	1638.141
471.328	18.383	1690.470	1637.298
472.343	18.253	1690.228	1635.622
473.358	18.260	1688.735	1634.046
474.372	18.286	1687.400	1632.810
475.387	18.317	1686.263	1631.816
476.401	18.199	1685.311	1629.567
477.416	18.221	1683.537	1627.865
478.430	18.509	1681.768	1628.709
479.445	18.379	1681.793	1627.300
480.460	18.393	1679.646	1625.159
481.474	18.348	1679.166	1624.075
482.489	18.242	1677.889	1621.630
483.503	18.282	1675.870	1619.867
484.518	18.334	1674.588	1618.933
485.533	18.471	1673.293	1618.781
486.547	18.455	1671.274	1616.487
487.562	18.304	1671.366	1614.951
488.576	18.465	1668.824	1613.829
489.591	18.505	1667.315	1612.555
490.606	18.356	1667.176	1610.819
491.620	18.273	1665.852	1608.557
492.635	18.564	1663.159	1608.509
493.649	18.396	1662.367	1605.971
494.664	18.376	1661.440	1604.687
495.679	18.313	1659.686	1602.212
496.693	18.422	1657.633	1601.063
497.708	18.298	1657.442	1599.520
498.722	18.220	1657.039	1598.211
499.737	18.348	1655.250	1597.498
500.752	18.326	1653.568	1595.475
501.766	18.196	1652.463	1592.999
502.781	18.218	1650.637	1591.256
503.795	18.269	1649.098	1590.052
504.810	18.308	1648.449	1589.599
505.825	18.343	1648.453	1589.742
506.839	18.423	1646.042	1587.975
507.854	18.391	1644.725	1586.213
508.868	18.379	1642.881	1584.134
509.883	18.272	1642.457	1582.544
510.898	18.226	1641.638	1581.140
511.912	18.286	1640.365	1580.276
512.927	18.168	1637.719	1576.445
513.941	18.111	1636.606	1574.656
514.956	18.339	1635.646	1575.657
515.971	18.340	1634.050	1573.940
516.985	18.317	1633.393	1572.903
518.000	18.381	1631.774	1571.752
519.014	18.461	1630.711	1571.270
520.029	18.337	1630.115	1569.367
521.043	18.250	1628.077	1566.421
522.058	18.340	1627.113	1566.133
523.073	18.293	1626.435	1564.857
524.087	18.216	1624.699	1562.295
525.102	18.240	1624.151	1561.802
526.116	18.478	1622.208	1561.927
527.131	18.361	1621.625	1560.106
528.146	18.403	1621.060	1559.759
529.160	18.217	1620.214	1557.057
530.175	18.292	1618.827	1556.227
531.189	18.233	1617.795	1554.508
532.204	18.373	1615.627	1553.510
533.219	18.374	1614.538	1552.295
534.233	18.316	1614.692	1551.723
535.248	18.379	1613.040	1550.525
536.262	18.459	1611.542	1549.623
537.277	18.405	1610.225	1547.681
538.292	18.519	1607.883	1546.282
539.306	18.472	1606.594	1544.432
540.321	18.397	1605.691	1542.703
541.335	18.355	1604.618	1541.102
542.350	18.471	1602.702	1540.127
543.365	18.404	1601.703	1538.375
544.379	18.329	1600.477	1536.343
545.394	18.415	1599.053	1535.563
546.408	18.441	1597.536	1534.157
547.423	18.388	1597.090	1533.071
548.438	18.400	1595.399	1531.369
549.452	18.443	1594.550	1530.753
550.467	18.348	1594.257	1529.442
551.481	18.263	1593.249	1527.530
552.496	18.326	1591.321	1526.058
553.511	18.388	1589.786	1524.961
554.525	18.175	1589.547	1522.644
555.540	18.261	1589.073	1522.777
556.554	18.518	1587.135	1523.027
557.569	18.530	1584.943	1520.855
558.583	18.373	1584.604	1518.949
559.598	18.312	1583.291	1516.959
560.613	18.323	1582.115	1515.751
561.627	18.392	1580.427	1514.569
562.642	18.243	1579.725	1512.389
563.656	18.361	1577.726	1511.343
564.671	18.387	1576.534	1510.245
565.686	18.366	1575.487	1508.877
566.700	18.244	1574.021	1506.212
567.715	18.235	1573.004	1504.985
568.729	18.247	1571.539	1503.503
569.744	18.368	1570.284	1503.191
570.759	18.189	1569.238	1500.435
571.773	18.180	1568.279	1499.254
572.788	18.263	1566.717	1498.315
573.802	18.053	1565.877	1495.484
574.817	18.190	1563.924	1494.641
575.832	18.140	1562.931	1493.080
576.846	18.313	1561.852	1493.388
577.861	18.421	1560.004	1492.389
578.875	18.481	1559.749	1492.493
579.890	18.462	1558.751	1491.185
580.905	18.400	1557.614	1489.382
581.919	18.366	1557.085	1488.404
582.934	18.328	1556.251	1487.093
583.948	18.294	1555.400	1485.801
584.963	18.395	1553.135	1484.340
585.978	18.364	1551.925	1482.736
586.992	18.400	1551.494	1482.466
588.007	18.395	1550.846	1481.623
589.021	18.388	1549.504	1480.100
590.036	18.446	1548.388	1479.365
591.051	18.439	1547.078	1477.877
592.065	18.439	1545.292	1475.994
593.080	18.281	1544.014	1473.231
594.094	18.492	1542.305	1473.244
595.109	18.492	1540.729	1471.556
596.123	18.263	1539.270	1468.012
597.138	18.373	1538.960	1468.490
598.153	18.365	1537.302	1466.670
599.167	18.309	1535.924	1464.692
600.182	18.471	1534.904	1464.937
601.196	18.295	1534.331	1462.702
602.211	18.255	1532.952	1460.871
603.226	18.398	1530.883	1459.946
604.240	18.522	1529.946	1459.947
605.255	18.424	1528.779	1457.817
606.269	18.415	1527.781	1456.618
607.284	18.405	1526.522	1455.153
608.299	18.448	1525.416	1454.289
609.313	18.336	1524.265	1452.066
610.328	18.417	1523.040	1451.412
611.342	18.434	1521.556	1449.974
612.357	18.333	1521.225	1448.624
613.372	18.413	1520.597	1448.534
614.386	18.331	1518.776	1445.926
615.401	18.331	1518.069	1445.080
616.415	18.427	1517.348	1445.038
617.430	18.265	1516.701	1442.875
618.445	18.355	1515.211	1442.050
619.459	18.209	1514.185	1439.660
620.474	18.292	1513.195	1439.254
621.488	18.357	1511.812	1438.312
622.503	18.423	1510.740	1437.673
623.518	18.309	1509.800	1435.651
624.532	18.331	1508.257	1434.192
625.547	18.225	1507.601	1432.510
626.561	18.268	1506.757	1431.897
627.576	18.340	1505.462	1431.095
628.591	18.382	1503.940	1429.834
629.605	18.384	1502.225	1428.048
630.620	18.411	1500.992	1426.932
631.634	18.443	1499.977	1426.065
632.649	18.484	1499.141	1425.443
633.663	18.295	1498.113	1422.713
634.678	18.324	1496.872	1421.604
635.693	18.407	1494.410	1419.792
636.707	18.364	1493.061	1417.984
637.722	18.353	1493.019	1417.683
638.736	18.308	1492.386	1416.536
639.751	18.395	1490.976	1415.746
640.766	18.504	1489.400	1414.985
641.780	18.563	1487.700	1413.689
642.795	18.498	1487.030	1412.349
643.809	18.433	1486.776	1411.402
644.824	18.325	1486.404	1409.986
645.839	18.497	1484.949	1409.853
646.853	18.423	1483.482	1407.683
647.868	18.397	1482.023	1405.913
648.882	18.439	1481.181	1405.294
649.897	18.486	1479.658	1404.071
650.912	18.489	1478.375	1402.710
651.926	18.410	1477.056	1400.638
652.941	18.379	1476.143	1399.348
653.955	18.404	1474.743	1398.060
654.970	18.371	1473.580	1396.518
655.985	18.442	1472.029	1395.466
656.999	18.486	1470.680	1394.377
658.014	18.554	1469.107	1393.279
659.028	18.479	1468.647	1392.059
660.043	18.656	1468.075	1392.799
661.058	18.447	1466.985	1389.892
662.072	18.407	1466.005	1388.470
663.087	18.430	1464.387	1386.960
664.101	18.504	1463.541	1386.592
665.116	18.464	1462.216	1384.848
666.131	18.356	1461.398	1383.032
667.145	18.395	1460.385	1382.226
668.160	18.555	1458.923	1381.972
669.174	18.542	1457.830	1380.664
670.189	18.434	1456.531	1378.399
671.204	18.460	1455.390	1377.365
672.218	18.492	1454.271	1376.395
673.233	18.423	1453.699	1375.133
674.247	18.476	1452.990	1374.727
675.262	18.268	1451.890	1371.847
676.276	18.375	1451.017	1371.715
677.291	18.370	1449.876	1370.435
678.306	18.447	1448.475	1369.563
679.320	18.420	1447.043	1367.827
680.335	18.322	1447.572	1367.378
681.349	18.450	1446.257	1367.001
682.364	18.560	1444.375	1365.938
683.379	18.371	1443.257	1363.205
684.393	18.485	1441.341	1362.142
685.408	18.280	1441.027	1360.049
686.422	18.444	1439.895	1360.122
687.437	18.327	1439.510	1358.666
688.452	18.476	1438.118	1358.373
689.466	18.432	1436.584	1356.409
690.481	18.227	1435.715	1353.795
691.495	18.120	1435.559	1352.641
692.510	18.384	1434.041	1353.146
693.525	18.384	1431.865	1350.932
694.539	18.280	1431.637	1349.723
695.554	18.422	1430.637	1349.750
696.568	18.384	1429.686	1348.386
697.583	18.510	1428.998	1348.572
698.598	18.403	1427.824	1346.460
699.612	18.561	1425.876	1345.704
700.627	18.578	1424.976	1344.830
701.641	18.436	1424.068	1342.693
702.656	18.514	1422.640	1341.804
703.671	18.522	1422.669	1341.728
704.685	18.527	1421.928	1340.909
705.700	18.498	1421.189	1339.822
706.714	18.437	1419.476	1337.572
707.729	18.567	1417.228	1336.309
708.744	18.664	1416.104	1335.852
709.758	18.480	1415.756	1333.927
710.773	18.540	1414.634	1333.175
711.787	18.601	1412.525	1331.501
712.802	18.570	1411.321	1329.971
713.816	18.536	1411.391	1329.610
714.831	18.478	1410.311	1327.979
715.846	18.580	1408.655	1327.060
716.860	18.597	1408.156	1326.558
717.875	18.551	1406.905	1324.869
718.889	18.491	1405.906	1323.297
719.904	18.535	1404.708	1322.359
720.919	18.566	1403.771	1321.555
721.933	18.476	1402.765	1319.751
722.948	18.517	1401.510	1318.731
723.962	18.518	1400.472	1317.602
724.977	18.645	1399.430	1317.451
725.992	18.565	1398.786	1316.068
727.006	18.688	1397.018	1315.192
728.021	18.591	1396.012	1313.342
729.035	18.599	1394.425	1311.754
730.050	18.502	1393.955	1310.405
731.065	18.583	1392.930	1309.914
732.079	18.483	1392.037	1308.148
733.094	18.451	1390.242	1306.056
734.108	18.634	1388.830	1305.978
735.123	18.507	1387.495	1303.590
736.138	18.456	1387.170	1302.741
737.152	18.453	1385.928	1301.400
738.167	18.550	1384.649	1300.776
739.181	18.642	1383.514	1300.262
740.196	18.547	1382.709	1298.621
741.211	18.453	1382.195	1297.271
742.225	18.351	1382.361	1296.497
743.240	18.517	1379.947	1295.335
744.254	18.436	1378.122	1292.852
745.269	18.510	1377.482	1292.661
746.284	18.430	1376.866	1291.319
747.298	18.487	1375.591	1290.400
748.313	18.313	1374.767	1288.161
749.327	18.236	1374.484	1287.159
750.342	18.399	1373.359	1287.182
751.356	18.310	1372.502	1285.551
752.371	18.266	1371.110	1283.765
753.386	18.440	1369.579	1283.487
754.400	18.487	1368.782	1282.935
755.415	18.476	1367.952	1281.925
756.429	18.484	1366.442	1280.414
757.444	18.478	1365.477	1279.309
758.459	18.439	1364.359	1277.821
759.473	18.558	1364.319	1278.520
760.488	18.541	1363.137	1277.130
761.502	18.464	1362.367	1275.679
762.517	18.569	1360.932	1274.973
763.532	18.611	1358.938	1273.263
764.546	18.539	1357.712	1271.422
765.561	18.553	1357.457	1271.136
766.575	18.432	1356.776	1269.445
767.590	18.562	1355.093	1268.687
768.605	18.608	1353.662	1267.539
769.619	18.601	1352.702	1266.437
770.634	18.673	1351.051	1265.274
771.648	18.656	1350.660	1264.625
772.663	18.564	1349.441	1262.658
773.678	18.461	1349.457	1261.760
774.692	18.607	1348.485	1261.777
775.707	18.499	1347.895	1260.271
776.721	18.589	1347.462	1260.387
777.736	18.609	1345.941	1258.960
778.751	18.566	1344.763	1257.389
779.765	18.608	1343.559	1256.418
780.780	18.647	1343.003	1256.040
781.794	18.383	1342.315	1253.305
782.809	18.436	1341.333	1252.622
783.824	18.480	1340.065	1251.611
784.838	18.323	1338.291	1248.654
785.853	18.198	1337.636	1246.977
786.867	18.271	1337.032	1246.804
787.882	18.327	1336.635	1246.691
788.897	18.432	1335.765	1246.497
789.911	18.325	1334.802	1244.672
790.926	18.465	1332.361	1243.268
791.940	18.544	1331.182	1242.594
792.955	18.426	1330.509	1240.955
793.969	18.399	1329.677	1239.837
794.984	18.353	1328.949	1238.671
795.999	18.426	1328.032	1238.202
797.013	18.579	1326.002	1237.271
798.028	18.584	1324.782	1236.020
799.042	18.424	1324.307	1234.267
800.057	18.432	1323.634	1233.551
801.072	18.618	1321.554	1232.813
802.086	18.514	1320.534	1230.961
803.101	18.648	1319.965	1231.250
804.115	18.491	1318.762	1228.848
805.130	18.737	1317.366	1229.172
806.145	18.613	1316.961	1227.752
807.159	18.667	1315.622	1226.749
808.174	18.732	1314.273	1225.808
809.188	18.636	1312.844	1223.639
810.203	18.676	1311.371	1222.410
811.218	18.527	1310.196	1220.098
812.232	18.588	1308.783	1219.074
813.247	18.451	1308.032	1217.254
814.261	18.555	1307.314	1217.176
815.276	18.667	1306.373	1216.955
816.291	18.650	1304.638	1215.077
817.305	18.616	1304.371	1214.435
818.320	18.517	1303.189	1212.488
819.334	18.547	1301.783	1211.251
820.349	18.504	1300.836	1209.915
821.364	18.676	1298.960	1209.242
822.378	18.685	1297.409	1207.721
823.393	18.653	1295.664	1205.723
824.407	18.578	1294.850	1204.294
825.422	18.646	1294.201	1204.028
826.437	18.562	1293.306	1202.456
827.451	18.472	1291.841	1200.317
828.466	18.553	1289.669	1198.724
829.480	18.418	1288.431	1196.483
830.495	18.485	1287.275	1195.736
831.509	18.343	1286.681	1194.044
832.524	18.326	1286.789	1193.886
833.539	18.442	1285.350	1193.217
834.553	18.556	1283.302	1191.968
835.568	18.580	1282.408	1191.162
836.582	18.627	1281.546	1190.552
837.597	18.661	1279.994	1189.205
838.612	18.719	1278.601	1188.171
839.626	18.874	1277.369	1187.959
840.641	18.686	1276.880	1186.053
841.655	18.493	1276.857	1184.551
842.670	18.591	1275.414	1183.751
843.685	18.476	1274.763	1182.211
844.699	18.514	1273.225	1180.904
845.714	18.576	1271.459	1179.551
846.728	18.643	1270.456	1178.944
847.743	18.719	1269.609	1178.544
848.758	18.618	1268.545	1176.719
849.772	18.556	1267.269	1174.965
850.787	18.573	1265.736	1173.524
851.801	18.631	1264.703	1172.818
852.816	18.507	1263.566	1170.773
853.831	18.651	1261.821	1170.004
854.845	18.563	1259.838	1167.425
855.860	18.443	1258.452	1165.181
856.874	18.573	1257.857	1165.379
857.889	18.459	1256.331	1163.049
858.904	18.517	1254.805	1161.894
859.918	18.444	1253.386	1159.944
860.933	18.441	1252.271	1158.748
861.947	18.468	1251.861	1158.416
862.962	18.458	1250.414	1156.866
863.977	18.527	1248.998	1155.885
864.991	18.502	1248.817	1155.415
866.006	18.503	1248.727	1155.197
867.020	18.514	1247.468	1153.968
868.035	18.672	1246.336	1153.853
869.049	18.768	1244.924	1153.053
870.064	18.707	1244.652	1152.251
871.079	18.572	1243.997	1150.597
872.093	18.742	1243.163	1150.833
873.108	18.627	1242.431	1149.242
874.122	18.605	1241.094	1147.725
875.137	18.700	1239.928	1147.147
876.152	18.762	1238.929	1146.503
877.166	18.747	1237.133	1144.598
878.181	18.778	1236.107	1143.722
879.195	18.708	1235.635	1142.677
880.210	18.690	1234.458	1141.332
881.225	18.731	1233.511	1140.593
882.239	18.809	1232.452	1140.000
883.254	18.720	1231.905	1138.763
884.268	18.720	1231.030	1137.823
885.283	18.871	1229.164	1136.960
886.298	18.707	1227.959	1134.626
887.312	18.784	1227.234	1134.328
888.327	18.778	1226.338	1133.327
889.341	18.781	1225.199	1132.159
890.356	18.553	1224.429	1129.801
891.371	18.663	1224.239	1130.214
892.385	18.600	1223.170	1128.678
893.400	18.537	1222.542	1127.549
894.414	18.588	1221.029	1126.353
895.429	18.651	1219.277	1125.015
896.444	18.578	1217.689	1122.939
897.458	18.481	1216.767	1121.317
898.473	18.438	1216.501	1120.652
899.487	18.608	1215.523	1120.735
900.502	18.738	1214.188	1120.220
901.517	18.650	1213.515	1118.892
902.531	18.640	1212.928	1118.147
903.546	18.817	1211.524	1117.877
904.560	18.899	1211.171	1117.956
905.575	18.835	1210.206	1116.510
906.589	18.769	1209.259	1115.072
907.604	18.801	1208.826	1114.751
