DTS Sentinel unit serial number:	SN409020Multiplexer serial number:	ORYXHardware model number:	OX4-SRSoftware version number:	ORYX F/W v3.00 Oryx Data Collector v3.7.2.0data status	okinstallation	HaddamTimeLapsedifferential loss correction	single-endedforward channel	channel 3reverse channel	N/Adate	2011/06/21time	17:36:16forward acquisition time	30.00reverse acquisition time	0.00gamma	498.7831k internal	0.1826k external	0.1826temperature offset calibration	1.0074default loss term (dB/km)	0.3790temperature slope calibration	1.3530multiplexer offset coefficient	1.0000multiplexer slope coefficient	1.0000fibre end	0.00T internal ref (°C)	34.69T ext. ref 1 (°C)	29.28T ext. ref 2 (°C)	0.27length (m)	temperature (°C)	Stokes	anti-Stokes-747.200	499.796	0.168	0.495
-746.185	-200.000	-0.021	0.716
-745.171	-90.385	0.344	0.126
-744.156	12.274	0.500	0.490
-743.142	426.965	0.141	-0.389
-742.127	-200.000	0.022	0.517
-741.112	-44.165	-0.255	-0.163
-740.098	426.452	-0.132	0.364
-739.083	23.082	-0.266	-0.277
-738.069	393.320	0.156	0.414
-737.054	-14.883	-0.220	0.179
-736.039	183.451	0.107	0.202
-735.025	367.559	-0.296	0.765
-734.010	-122.489	-0.233	-0.048
-732.996	-121.033	-0.319	0.068
-731.981	-200.000	-0.033	-0.325
-730.966	800.000	-0.049	-0.240
-729.952	800.000	-0.067	-0.302
-728.937	55.194	0.035	0.043
-727.923	-167.575	-0.046	0.002
-726.908	466.711	-0.135	-0.388
-725.894	-3.957	-0.225	-0.199
-724.879	90.184	0.050	0.071
-723.864	-10.865	0.264	-0.222
-722.850	800.000	0.070	0.299
-721.835	278.475	0.140	0.319
-720.821	-112.056	0.222	0.057
-719.806	-117.415	0.504	0.115
-718.791	-14.333	0.361	-0.295
-717.777	-137.100	-0.683	-0.098
-716.762	-200.000	-0.016	-0.265
-715.748	62.052	-0.184	0.234
-714.733	-140.473	0.096	-0.013
-713.718	66.334	-0.378	-0.489
-712.704	-200.000	-0.001	-0.146
-711.689	2.094	-0.190	-0.175
-710.675	-13.791	-0.528	-0.434
-709.660	-79.807	0.313	0.133
-708.645	-200.000	0.010	-0.113
-707.631	82.737	0.294	-0.407
-706.616	4.624	0.278	0.259
-705.602	-137.158	-0.037	-0.005
-704.587	-200.000	-0.033	0.280
-703.572	-88.487	-0.395	-0.149
-702.558	36.342	0.130	0.146
-701.543	-176.468	-0.266	-0.009
-700.529	-118.680	-0.336	-0.075
-699.514	206.959	-0.073	-0.144
-698.499	-51.078	-0.210	0.125
-697.485	-125.997	-0.559	0.106
-696.470	652.239	0.151	0.496
-695.456	-200.000	-0.015	0.266
-694.441	62.780	0.288	0.367
-693.426	-142.822	-0.430	-0.053
-692.412	103.799	-0.117	-0.176
-691.397	-200.000	0.042	-0.427
-690.383	43.434	0.305	-0.355
-689.368	-101.868	-0.337	-0.103
-688.354	-15.662	-0.118	-0.095
-687.339	-107.232	0.074	0.021
-686.324	113.972	-0.173	-0.269
-685.310	-52.624	-0.278	0.163
-684.295	-156.306	-0.047	-0.004
-683.281	-69.960	-0.440	-0.212
-682.266	-200.000	-0.005	0.222
-681.251	170.481	-0.129	0.235
-680.237	17.666	0.434	-0.439
-679.222	331.112	-0.059	0.146
-678.208	-200.000	0.009	-0.110
-677.193	-62.763	0.028	0.015
-676.178	800.000	-0.071	0.295
-675.164	-200.000	0.030	0.760
-674.149	622.670	0.123	-0.394
-673.135	108.699	0.052	-0.079
-672.120	-132.356	-0.539	0.088
-671.105	-117.189	-0.315	0.072
-670.091	-118.905	0.273	0.060
-669.076	-52.711	0.164	0.096
-668.062	800.000	0.031	-0.127
-667.047	-48.252	0.194	-0.118
-666.032	41.263	0.363	-0.417
-665.018	-200.000	0.002	-0.480
-664.003	-124.498	-0.434	-0.085
-662.989	-41.989	0.121	-0.078
-661.974	499.965	0.136	-0.400
-660.959	566.115	-0.119	-0.370
-659.945	-118.803	-0.217	-0.048
-658.930	-103.977	0.351	-0.103
-657.916	800.000	-0.092	-0.369
-656.901	-122.515	0.285	-0.058
-655.886	-63.262	0.132	0.069
-654.872	514.020	-0.033	-0.098
-653.857	208.755	0.150	0.299
-652.843	11.571	0.266	0.258
-651.828	56.222	-0.088	0.108
-650.814	-119.244	0.105	0.023
-649.799	-200.000	0.085	0.543
-648.784	-200.000	0.013	0.197
-647.770	-92.615	-0.226	0.080
-646.755	197.893	0.110	-0.215
-645.741	-159.296	0.376	0.026
-644.726	800.000	-0.038	0.195
-643.711	-200.000	-0.036	0.293
-642.697	28.992	0.190	-0.204
-641.682	182.310	0.106	-0.200
-640.668	-23.134	0.462	0.352
-639.653	-35.573	0.219	-0.150
-638.638	120.429	-0.163	-0.257
-637.624	-200.000	-0.055	0.442
-636.609	-16.349	0.410	-0.329
-635.595	-98.731	0.265	0.085
-634.580	48.042	0.168	0.200
-633.565	-200.000	0.574	-0.001
-632.551	-200.000	-0.021	-0.305
-631.536	800.000	-0.005	0.028
-630.522	17.369	-0.232	-0.234
-629.507	24.038	-0.179	0.188
-628.492	-41.350	-0.155	0.101
-627.478	-63.232	-0.405	0.211
-626.463	-161.021	0.027	0.002
-625.449	-200.000	0.029	0.213
-624.434	4.736	-0.273	-0.254
-623.419	20.990	0.108	0.111
-622.405	-103.658	-0.369	0.109
-621.390	-34.571	0.257	0.178
-620.376	102.205	-0.117	-0.174
-619.361	800.000	0.105	0.404
-618.346	-80.580	-0.650	-0.273
-617.332	-200.000	0.026	-0.147
-616.317	32.144	0.230	-0.252
-615.303	168.247	-0.236	-0.427
-614.288	800.000	-0.111	-0.411
-613.273	268.283	0.200	-0.446
-612.259	-117.519	0.092	-0.021
-611.244	686.414	-0.102	0.341
-610.230	-27.846	-0.024	0.018
-609.215	16.759	0.242	0.242
-608.201	-129.587	-0.245	-0.043
-607.186	800.000	0.029	-0.117
-606.171	-88.943	0.194	0.072
-605.157	-38.747	-0.492	0.328
-604.142	259.454	-0.174	-0.382
-603.128	19.287	-0.248	-0.252
-602.113	-200.000	-0.042	-0.398
-601.098	-125.444	-0.147	0.028
-600.084	125.112	0.081	-0.129
-599.069	-164.959	0.561	-0.031
-598.055	800.000	0.203	0.756
-597.040	-6.400	0.255	0.220
-596.025	-179.760	-0.566	-0.015
-595.011	-200.000	0.023	0.137
-593.996	-68.748	-0.070	-0.034
-592.982	11.793	0.440	0.428
-591.967	-128.785	-0.386	-0.068
-590.952	118.668	-0.135	-0.211
-589.938	-177.130	0.303	-0.009
-588.923	-48.301	-0.274	0.167
-587.909	40.625	0.086	0.098
-586.894	-99.495	-0.647	-0.205
-585.879	-138.762	-0.323	-0.044
-584.865	-51.758	-0.425	-0.250
-583.850	-141.572	-0.380	-0.048
-582.836	-79.153	-0.226	0.097
-581.821	-41.031	-0.409	0.267
-580.806	-74.821	-0.301	0.136
-579.792	-200.000	-0.015	0.364
-578.777	-20.870	-0.502	0.388
-577.763	-105.116	0.121	-0.035
-576.748	-151.175	-0.657	-0.062
-575.733	-107.203	-0.045	0.012
-574.719	-162.093	-0.222	0.014
-573.704	800.000	0.007	0.034
-572.690	-155.097	-0.174	0.014
-571.675	-11.206	-0.266	0.221
-570.661	-178.373	-0.112	-0.003
-569.646	-71.399	-0.212	-0.100
-568.631	-26.155	0.264	-0.196
-567.617	196.167	0.113	0.218
-566.602	-200.000	-0.002	0.230
-565.588	-90.487	-0.438	-0.160
-564.573	-145.634	0.079	0.009
-563.558	-200.000	0.161	0.001
-562.544	-106.681	-0.412	0.115
-561.529	-78.173	-0.113	0.049
-560.515	119.170	-0.501	-0.785
-559.500	-107.865	0.544	-0.149
-558.485	141.483	-0.103	-0.173
-557.471	800.000	0.083	0.391
-556.456	2.436	-0.049	-0.045
-555.442	-141.665	0.626	-0.079
-554.427	364.412	-0.024	-0.062
-553.412	-99.532	-0.497	0.157
-552.398	800.000	-0.066	-0.327
-551.383	-32.585	0.402	-0.282
-550.369	-200.000	0.038	-0.217
-549.354	-122.412	0.328	0.067
-548.339	224.149	0.192	0.394
-547.325	252.629	0.119	0.257
-546.310	-10.570	0.258	0.215
-545.296	-176.242	0.548	-0.018
-544.281	760.426	-0.052	0.179
-543.266	-157.354	-0.140	0.011
-542.252	67.870	-0.258	0.333
-541.237	-200.000	-0.071	-0.493
-540.223	-200.000	-0.097	-0.598
-539.208	28.517	-0.566	-0.605
-538.193	300.954	-0.266	-0.624
-537.179	-200.000	0.098	-0.672
-536.164	-200.000	0.016	0.130
-535.150	4.666	0.076	-0.070
-534.135	-154.937	-0.394	0.032
-533.121	-63.872	0.079	0.041
-532.106	-109.928	0.232	-0.061
-531.091	47.278	-0.190	-0.224
-530.077	382.524	-0.101	-0.263
-529.062	-101.084	-0.254	-0.078
-528.048	-66.431	-0.369	0.185
-527.033	710.446	0.215	-0.722
-526.018	-130.835	0.553	-0.093
-525.004	-37.940	0.395	0.264
-523.989	-26.868	0.222	0.163
-522.975	-27.188	-0.299	-0.220
-521.960	24.926	-0.047	0.049
-520.945	23.624	0.095	-0.099
-519.931	-166.437	-0.220	-0.011
-518.916	-47.226	0.456	0.280
-517.902	800.000	0.120	-0.545
-516.887	338.620	-0.116	-0.287
-515.872	-106.988	0.351	0.097
-514.858	32.044	0.208	0.226
-513.843	-85.137	0.558	0.219
-512.829	-38.843	0.375	-0.249
-511.814	-87.790	-0.302	-0.114
-510.799	-200.000	-0.031	0.175
-509.785	-185.114	-0.423	-0.008
-508.770	37.544	0.157	-0.176
-507.756	-18.667	0.058	0.046
-506.741	-47.599	0.207	0.127
-505.726	391.130	-0.160	-0.420
-504.712	-57.093	-0.509	0.282
-503.697	-200.000	0.007	0.224
-502.683	-69.211	-0.275	0.133
-501.668	57.108	0.068	-0.084
-500.653	-150.001	-0.422	-0.041
-499.639	-200.000	-0.256	-0.001
-498.624	553.366	0.153	-0.465
-497.610	800.000	-0.049	0.201
-496.595	800.000	-0.125	-0.638
-495.581	72.677	-0.167	0.219
-494.566	117.347	0.093	0.145
-493.551	112.226	-0.245	-0.374
-492.537	-49.067	-0.260	0.156
-491.522	-31.459	0.250	0.177
-490.508	113.443	0.195	0.299
-489.493	-16.978	0.416	-0.331
-488.478	-75.132	-0.246	-0.110
-487.464	-200.000	-0.015	0.187
-486.449	-200.000	-0.028	-0.367
-485.435	-127.986	-0.106	0.019
-484.420	75.084	0.252	0.335
-483.405	172.923	0.210	-0.382
-482.391	263.661	-0.107	0.237
-481.376	-180.118	-0.311	0.008
-480.362	-49.854	-0.162	-0.097
-479.347	69.757	0.261	-0.340
-478.332	682.602	-0.065	-0.216
-477.318	-131.457	0.247	-0.041
-476.303	-200.000	-0.061	-0.369
-475.289	800.000	0.034	0.171
-474.274	-74.536	0.308	-0.139
-473.259	-200.000	0.073	0.578
-472.245	-200.000	-0.027	0.647
-471.230	-54.202	0.466	0.266
-470.216	-82.448	-0.227	0.093
-469.201	51.511	0.167	0.200
-468.186	476.467	0.069	-0.197
-467.172	800.000	0.045	0.244
-466.157	-57.530	-0.162	0.089
-465.143	-48.601	0.383	0.231
-464.128	56.085	-0.155	0.190
-463.113	31.290	-0.182	0.197
-462.099	323.488	-0.056	0.135
-461.084	93.030	-0.075	-0.107
-460.070	-173.179	-0.630	-0.024
-459.055	-30.164	-0.290	-0.207
-458.040	96.456	-0.073	0.106
-457.026	-98.998	-0.208	-0.066
-456.011	179.656	-0.130	0.240
-454.997	-40.106	-0.188	0.123
-453.982	-200.000	-0.016	0.101
-452.968	159.672	0.083	0.146
-451.953	-171.960	0.438	-0.018
-450.938	-106.864	-0.070	-0.020
-449.924	147.576	-0.085	-0.144
-448.909	127.870	-0.251	0.402
-447.895	69.621	-0.241	0.313
-446.880	410.199	0.145	0.388
-445.865	-17.275	0.338	0.268
-444.851	-104.862	0.275	0.079
-443.836	19.801	-0.219	0.223
-442.822	122.211	-0.065	0.103
-441.807	-84.601	0.414	0.164
-440.792	104.948	0.294	0.438
-439.778	207.726	0.110	0.217
-438.763	800.000	-0.074	0.328
-437.749	244.224	0.060	0.127
-436.734	-162.558	-0.087	0.005
-435.719	8.962	0.326	0.310
-434.705	-200.000	0.000	0.426
-433.690	-28.091	-0.174	-0.127
-432.676	800.000	0.120	-0.516
-431.661	-47.712	0.363	-0.221
-430.646	-192.447	0.148	0.002
-429.632	421.965	-0.060	0.163
-428.617	-200.000	-0.063	-0.397
-427.603	800.000	-0.012	-0.066
-426.588	-50.927	0.114	0.067
-425.573	484.644	-0.099	0.285
-424.559	-139.392	-0.306	0.041
-423.544	63.584	0.174	-0.221
-422.530	-93.764	0.386	0.133
-421.515	-97.124	0.287	0.094
-420.500	788.078	0.137	-0.475
-419.486	633.799	-0.131	0.421
-418.471	-150.713	0.110	0.010
-417.457	-93.895	-0.239	0.082
-416.442	639.603	0.119	-0.383
-415.428	-103.472	-0.333	0.098
-414.413	101.379	-0.135	-0.198
-413.398	-100.529	0.389	-0.120
-412.384	-152.128	0.409	-0.037
-411.369	-200.000	0.082	0.479
-410.355	-184.316	0.135	-0.003
-409.340	274.258	0.035	-0.077
-408.325	-6.776	0.412	-0.352
-407.311	548.278	0.071	-0.216
-406.296	46.261	-0.072	0.084
-405.282	-72.870	-0.427	-0.197
-404.267	-128.213	-0.186	0.033
-403.252	800.000	-0.057	0.228
-402.238	63.305	-0.147	-0.186
-401.223	-129.835	-0.511	0.087
-400.209	-200.000	0.049	-0.638
-399.194	-19.606	0.207	-0.161
-398.179	-109.992	0.411	-0.107
-397.165	-55.829	0.250	0.140
-396.150	-121.236	0.188	-0.039
-395.136	-200.000	0.005	0.265
-394.121	218.379	-0.222	0.446
-393.106	-7.837	-0.347	-0.294
-392.092	-79.070	-0.238	0.101
-391.077	-200.000	0.083	0.680
-390.063	-200.000	-0.008	0.188
-389.048	74.616	0.247	-0.326
-388.033	-200.000	0.027	-0.224
-387.019	290.622	0.211	0.483
-386.004	-67.597	0.363	0.178
-384.990	34.547	-0.085	-0.094
-383.975	-85.285	0.182	0.071
-382.960	-200.000	0.038	-0.314
-381.946	-94.989	-0.523	0.176
-380.931	800.000	-0.084	0.335
-379.917	131.945	0.166	0.270
-378.902	-18.764	0.137	0.107
-377.888	-35.599	-0.176	0.120
-376.873	116.874	-0.071	-0.110
-375.858	-136.585	-0.399	-0.057
-374.844	-111.337	0.234	-0.059
-373.829	-149.828	0.202	0.020
-372.815	34.535	0.055	0.061
-371.800	80.916	-0.065	-0.088
-370.785	-98.017	-0.505	-0.162
-369.771	-17.821	-0.185	-0.146
-368.756	559.168	-0.051	-0.154
-367.742	-97.012	0.529	-0.173
-366.727	57.330	0.334	0.410
-365.712	-26.467	0.339	0.249
-364.698	-143.559	0.256	0.030
-363.683	-200.000	0.020	0.222
-362.669	-42.705	0.141	-0.090
-361.654	751.044	-0.148	0.503
-360.639	-175.312	0.336	-0.011
-359.625	800.000	-0.062	0.331
-358.610	-77.284	0.175	0.076
-357.596	-56.413	0.329	-0.182
-356.581	488.035	-0.081	-0.235
-355.566	-19.374	-0.347	-0.270
-354.552	-66.563	-0.249	0.124
-353.537	415.040	-0.146	-0.393
-352.523	708.169	0.070	-0.233
-351.508	-200.000	-0.050	-0.348
-350.493	27.071	-0.186	0.196
-349.479	-169.043	0.664	-0.031
-348.464	178.185	-0.061	-0.112
-347.450	380.596	0.139	-0.358
-346.435	325.984	0.208	0.502
-345.420	58.878	0.257	-0.318
-344.406	38.328	0.382	-0.427
-343.391	260.251	-0.044	0.097
-342.377	-15.617	-0.461	0.368
-341.362	557.266	-0.127	0.387
-340.348	12.871	-0.193	-0.187
-339.333	312.460	0.087	0.206
-338.318	-181.765	-0.348	0.008
-337.304	74.743	-0.187	-0.247
-336.289	-106.638	0.277	0.077
-335.275	227.911	-0.124	-0.254
-334.260	-166.758	0.537	-0.027
-333.245	178.666	-0.056	-0.103
-332.231	-200.000	-0.015	0.155
-331.216	-160.033	-0.229	-0.015
-330.202	-200.000	-0.011	0.193
-329.187	-18.269	0.072	0.057
-328.172	-98.774	0.532	0.169
-327.158	-93.535	0.233	-0.080
-326.143	54.591	0.329	0.398
-325.129	319.006	0.074	-0.176
-324.114	800.000	0.033	0.159
-323.099	370.805	0.062	0.159
-322.085	-200.000	-0.124	0.919
-321.070	-200.000	0.010	0.280
-320.056	-200.000	-0.015	-0.165
-319.041	-13.920	-0.667	-0.540
-318.026	800.000	0.066	-0.321
-317.012	-141.561	0.071	-0.009
-315.997	-6.182	-0.181	0.155
-314.983	211.500	0.170	0.336
-313.968	55.538	0.228	0.276
-312.953	-200.000	0.121	-0.719
-311.939	-200.000	-0.016	-0.399
-310.924	-47.900	0.103	-0.062
-309.910	653.807	0.215	-0.694
-308.895	-93.588	-0.499	-0.172
-307.880	56.591	0.095	-0.116
-306.866	-53.341	0.133	0.076
-305.851	7.801	0.521	-0.488
-304.837	71.663	0.177	-0.230
-303.822	57.441	-0.039	-0.047
-302.807	-63.513	-0.365	-0.187
-301.793	-80.885	0.457	0.189
-300.778	13.305	-0.035	-0.034
-299.764	169.710	-0.186	0.333
-298.749	68.364	-0.112	0.143
-297.735	800.000	0.049	0.208
-296.720	-14.200	-0.240	0.193
-295.705	-136.268	0.434	-0.063
-294.691	-200.000	-0.005	-0.263
-293.676	-200.000	-0.007	-0.747
-292.662	-126.353	-0.085	-0.016
-291.647	620.902	0.096	-0.304
-290.632	390.679	-0.183	-0.478
-289.618	-26.095	0.261	0.192
-288.603	-137.638	-0.064	0.009
-287.589	-93.269	0.107	-0.037
-286.574	508.206	-0.268	-0.783
-285.559	-77.535	-0.106	0.046
-284.545	211.263	0.223	-0.441
-283.530	399.768	0.061	-0.159
-282.516	-200.000	-0.045	0.360
-281.501	195.263	-0.123	-0.234
-280.486	47.662	0.097	0.113
-279.472	-65.624	-0.260	0.130
-278.457	-152.403	-0.390	0.035
-277.443	-106.649	0.231	0.064
-276.428	73.562	-0.063	-0.082
-275.413	-200.000	0.007	0.133
-274.399	42.228	0.037	0.042
-273.384	-7.009	-0.082	-0.070
-272.370	-72.905	0.275	-0.126
-271.355	34.983	-0.368	-0.403
-270.340	-51.393	-0.083	0.048
-269.326	-52.613	-0.468	-0.269
-268.311	-192.447	-0.509	0.006
-267.297	-148.493	-0.238	0.024
-266.282	-46.190	-0.223	-0.137
-265.267	211.032	-0.078	0.154
-264.253	-119.138	-0.443	-0.096
-263.238	-44.793	-0.182	0.113
-262.224	507.434	0.135	0.392
-261.209	800.000	-0.099	0.427
-260.195	-123.050	-0.287	-0.057
-259.180	64.057	-0.124	-0.156
-258.165	800.000	-0.044	-0.166
-257.151	-115.523	-0.474	-0.111
-256.136	277.092	0.149	-0.332
-255.122	31.996	0.095	0.102
-254.107	119.308	0.162	-0.251
-253.092	86.498	0.213	-0.294
-252.078	-133.621	0.456	-0.071
-251.063	-87.421	-0.272	-0.102
-250.049	-121.855	0.189	0.039
-249.034	-121.494	0.239	-0.049
-248.019	-67.710	-0.053	0.026
-247.005	37.822	0.207	0.230
-245.990	800.000	0.027	0.114
-244.976	-200.000	-0.024	0.348
-243.961	129.153	0.165	-0.264
-242.946	50.054	0.133	-0.156
-241.932	-113.335	0.282	-0.069
-240.917	47.788	-0.214	0.249
-239.903	11.169	0.316	-0.302
-238.888	-65.049	0.422	-0.212
-237.873	-27.348	-0.048	-0.035
-236.859	-84.087	-0.215	0.085
-235.844	69.034	-0.188	0.242
-234.830	-200.000	-0.042	-0.291
-233.815	-46.964	-0.234	0.142
-232.800	800.000	-0.135	-0.485
-231.786	800.000	-0.012	-0.056
-230.771	-163.581	0.133	-0.008
-229.757	438.051	-0.208	0.568
-228.742	-200.000	0.551	0.002
-227.727	104.939	-0.218	0.321
-226.713	130.873	-0.279	0.447
-225.698	-84.680	-0.305	0.119
-224.684	-32.086	-0.445	0.310
-223.669	-101.434	-0.248	-0.075
-222.655	32.944	0.269	0.290
-221.640	176.153	0.092	-0.168
-220.625	109.523	0.061	0.091
-219.611	-185.297	-0.486	-0.009
-218.596	-152.552	0.188	0.017
-217.582	800.000	-0.032	-0.148
-216.567	-73.899	0.272	-0.123
-215.552	-92.328	-0.321	-0.112
-214.538	-29.744	0.358	-0.254
-213.523	-130.809	0.772	0.128
-212.509	-76.672	-0.274	-0.119
-211.494	210.389	0.141	0.277
-210.479	800.000	0.038	-0.206
-209.465	-61.722	-0.277	0.145
-208.450	-181.811	-0.247	-0.006
-207.436	-111.663	0.156	0.039
-206.421	87.505	-0.330	-0.456
-205.406	-87.907	0.163	0.061
-204.392	98.758	-0.121	-0.174
-203.377	-35.509	0.225	0.152
-202.363	-99.447	-0.649	0.203
-201.348	89.203	-0.262	-0.365
-200.333	542.890	-0.068	0.203
-199.319	-77.407	0.182	0.078
-198.304	-46.686	0.277	0.168
-197.290	310.657	0.108	-0.253
-196.275	-79.304	-0.315	-0.132
-195.260	26.230	0.122	-0.127
-194.246	-105.422	0.364	0.102
-193.231	52.037	-0.174	0.207
-192.217	-62.115	0.177	0.092
-191.202	-55.318	0.454	0.253
-190.187	-78.557	0.275	-0.117
-189.173	-106.783	0.699	-0.192
-188.158	-77.359	-0.259	0.112
-187.144	-118.950	0.585	0.127
-186.129	-104.508	-0.217	-0.062
-185.114	-200.000	-0.030	-0.267
-184.100	62.625	0.139	0.173
-183.085	-200.000	0.040	0.355
-182.071	-200.000	-0.003	0.487
-181.056	77.770	0.219	-0.291
-180.042	195.096	0.198	-0.376
-179.027	-12.004	0.126	0.102
-178.012	30.130	-0.136	0.145
-176.998	69.858	0.210	0.270
-175.983	586.784	-0.098	0.302
-174.969	-200.000	0.009	0.398
-173.954	393.701	-0.045	-0.118
-172.939	127.342	0.192	0.304
-171.925	800.000	0.108	0.428
-170.910	576.834	-0.028	0.086
-169.896	-170.837	0.283	-0.012
-168.881	264.385	-0.083	-0.180
-167.866	24.698	0.366	-0.378
-166.852	-110.442	-0.145	0.037
-165.837	800.000	-0.095	0.419
-164.823	99.781	-0.141	-0.204
-163.808	800.000	-0.099	-0.414
-162.793	-111.544	-0.523	0.131
-161.779	95.653	-0.134	0.190
-160.764	-176.218	0.713	-0.023
-159.750	-104.747	-0.458	0.130
-158.735	-63.355	-0.175	-0.089
-157.720	800.000	-0.055	-0.231
-156.706	-155.060	-0.316	0.025
-155.691	1.837	0.279	0.250
-154.677	-131.391	0.427	0.070
-153.662	280.363	-0.162	-0.362
-152.647	-200.000	-0.023	0.166
-151.633	139.413	-0.048	-0.079
-150.618	177.408	-0.111	0.202
-149.604	412.073	-0.017	-0.045
-148.589	291.565	-0.136	-0.309
-147.574	-200.000	0.043	-0.279
-146.560	-161.259	-0.215	0.014
-145.545	-148.068	-0.113	0.012
-144.531	800.000	-0.073	-0.281
-143.516	-200.000	-0.017	-0.179
-142.502	-41.083	-0.412	0.264
-141.487	-4.199	-0.263	0.226
-140.472	30.867	-0.194	0.206
-139.458	-200.000	-0.033	0.477
-138.443	-92.746	-0.344	0.119
-137.429	-45.608	-0.282	0.173
-136.414	-120.154	0.337	0.071
-135.399	-34.329	0.271	-0.185
-134.385	-136.057	0.187	0.027
-133.370	-200.000	0.008	0.319
-132.356	290.092	-0.129	-0.292
-131.341	-88.489	-0.285	0.105
-130.326	84.866	0.192	0.262
-129.312	-119.577	0.433	-0.092
-128.297	360.634	0.062	-0.154
-127.283	-34.966	-0.480	0.325
-126.268	-169.923	-0.490	0.021
-125.253	-35.904	0.118	0.079
-124.239	-170.160	-0.515	0.022
-123.224	-96.975	0.120	0.039
-122.210	800.000	-0.052	0.241
-121.195	-96.406	0.493	0.161
-120.180	-109.892	0.212	-0.055
-119.166	204.782	0.184	-0.355
-118.151	-78.504	-0.291	-0.123
-117.137	-15.149	-0.174	-0.138
-116.122	385.831	0.141	-0.362
-115.107	492.827	0.048	-0.136
-114.093	800.000	-0.088	0.486
-113.078	611.951	-0.124	0.389
-112.064	800.000	0.074	-0.300
-111.049	-189.570	-0.175	0.002
-110.034	209.651	0.139	-0.271
-109.020	748.262	-0.058	-0.196
-108.005	-111.751	-0.423	-0.106
-106.991	-8.518	0.346	-0.289
-105.976	33.000	-0.203	-0.219
-104.962	-200.000	0.032	-0.236
-103.947	64.997	-0.148	-0.186
-102.932	228.916	-0.214	0.435
-101.918	181.292	0.136	-0.248
-100.903	-200.000	0.000	-0.287
-99.889	-50.412	-0.230	0.134
-98.874	64.803	0.171	0.215
-97.859	25.924	0.284	0.294
-96.845	429.841	0.052	0.140
-95.830	-200.000	-0.022	-0.297
-94.816	-165.587	0.236	-0.013
-93.801	-77.020	0.449	0.194
-92.786	42.502	0.292	0.330
-91.772	105.281	-0.109	0.160
-90.757	104.027	-0.159	-0.232
-89.743	800.000	-0.089	-0.363
-88.728	-47.707	0.302	-0.182
-87.713	-12.107	0.100	-0.081
-86.699	32.832	0.199	0.214
-85.684	-131.389	0.711	-0.116
-84.670	35.029	0.114	-0.124
-83.655	-106.089	0.533	0.148
-82.640	-200.000	-0.044	-0.256
-81.626	-83.438	-0.202	0.080
-80.611	32.898	0.080	0.086
-79.597	-173.748	-0.578	0.021
-78.582	396.432	0.073	0.189
-77.567	625.917	0.056	-0.176
-76.553	128.266	0.109	0.172
-75.538	555.896	-0.081	0.243
-74.524	-178.805	-0.314	0.009
-73.509	-98.637	0.620	-0.195
-72.494	-200.000	-0.063	-0.602
-71.480	87.435	-0.023	0.031
-70.465	-168.311	0.266	0.013
-69.451	83.820	0.343	0.465
-68.436	23.684	-0.148	0.152
-67.422	583.166	-0.081	0.247
-66.407	133.849	-0.393	-0.633
-65.392	-154.019	0.258	0.021
-64.378	-151.490	-0.200	-0.018
-63.363	330.099	0.151	-0.363
-62.349	98.313	-0.151	0.216
-61.334	-82.019	-1.207	-0.487
-60.319	-12.804	0.860	0.694
-59.305	293.426	-2.800	-6.364
-58.290	-3.803	2.836	2.439
-57.276	470.006	3.884	10.879
-56.261	-200.000	13.161	213.580
-55.246	504.822	1132.864	3269.683
-54.232	67.883	2781.001	3529.948
-53.217	75.319	2695.416	3529.631
-52.203	87.850	2427.851	3341.078
-51.188	34.622	2079.811	2253.692
-50.173	37.654	1948.077	2144.496
-49.159	35.750	1937.594	2111.883
-48.144	35.266	1933.563	2102.072
-47.130	35.186	1930.543	2097.819
-46.115	35.014	1928.888	2094.045
-45.100	35.076	1927.167	2092.777
-44.086	34.947	1926.274	2090.308
-43.071	35.075	1924.066	2089.237
-42.057	34.938	1923.693	2087.247
-41.042	34.923	1923.184	2086.448
-40.027	34.975	1920.099	2083.581
-39.013	34.929	1919.042	2081.854
-37.998	34.939	1917.323	2080.013
-36.984	34.857	1916.964	2078.643
-35.969	34.817	1915.667	2076.722
-34.954	35.002	1914.191	2077.052
-33.940	34.773	1913.766	2074.014
-32.925	34.701	1912.828	2072.130
-31.911	34.842	1910.623	2071.192
-30.896	34.695	1909.495	2068.291
-29.881	34.772	1907.665	2067.067
-28.867	34.807	1906.448	2066.039
-27.852	34.729	1905.339	2063.911
-26.838	34.636	1904.305	2061.703
-25.823	34.902	1901.276	2061.224
-24.809	34.819	1900.630	2059.534
-23.794	34.650	1900.967	2057.992
-22.779	34.616	1899.318	2055.754
-21.765	34.580	1897.319	2053.126
-20.750	34.632	1896.191	2052.387
-19.736	34.618	1895.206	2051.089
-18.721	34.740	1893.012	2049.949
-17.706	34.668	1892.104	2048.108
-16.692	34.597	1890.709	2045.745
-15.677	34.645	1890.012	2045.429
-14.663	34.665	1888.360	2043.779
-13.648	34.539	1887.347	2041.241
-12.633	34.599	1886.186	2040.549
-11.619	34.620	1885.216	2039.644
-10.604	34.554	1884.323	2037.893
-9.590	34.602	1882.599	2036.461
-8.575	34.527	1881.155	2034.010
-7.560	34.489	1880.621	2032.943
-6.546	34.500	1879.628	2031.909
-5.531	34.530	1878.114	2030.514
-4.517	34.493	1877.246	2029.104
-3.502	34.550	1876.097	2028.382
-2.487	34.688	1874.659	2028.228
-1.473	34.833	1872.178	2027.004
-0.458	35.557	1853.880	2014.754
0.556	32.567	1987.770	2113.961
1.571	31.474	2204.090	2330.057
2.586	33.482	2251.595	2405.639
3.600	33.422	2255.248	2408.498
4.615	33.473	2254.945	2408.532
5.629	33.458	2252.977	2405.951
6.644	33.533	2251.715	2405.272
7.659	33.643	2250.654	2405.247
8.673	33.795	2247.694	2403.737
9.688	32.945	2251.589	2396.778
10.702	29.610	2320.948	2426.368
11.717	25.839	2381.001	2437.661
12.731	13.053	2348.820	2231.741
13.746	2.079	2318.696	2054.994
14.761	0.391	2314.070	2027.835
15.775	0.328	2311.172	2024.205
16.790	0.316	2309.351	2022.207
17.804	0.204	2308.161	2019.407
18.819	0.178	2306.742	2017.584
19.834	0.117	2305.389	2015.336
20.848	0.146	2304.019	2014.285
21.863	0.177	2302.294	2012.953
22.877	0.120	2300.763	2010.610
23.892	0.177	2297.835	2008.572
24.907	0.135	2296.124	2006.278
25.921	0.141	2294.834	2004.980
26.936	0.110	2292.398	2002.205
27.950	0.208	2289.616	2000.840
28.965	0.124	2287.933	1998.005
29.980	0.065	2286.981	1996.155
30.994	0.333	2285.014	1997.770
32.009	6.823	2307.484	2104.284
33.023	22.872	2356.217	2366.330
34.038	31.791	2376.561	2507.033
35.053	33.647	2378.470	2533.692
36.067	33.636	2376.023	2530.630
37.082	33.341	2373.028	2523.194
38.096	33.658	2371.999	2526.040
39.111	34.187	2370.580	2531.305
40.126	34.096	2368.891	2527.981
41.140	34.470	2367.783	2531.489
42.155	34.067	2364.840	2522.669
43.169	33.751	2361.248	2514.327
44.184	34.036	2360.075	2516.563
45.199	33.927	2358.105	2512.716
46.213	33.506	2356.077	2504.662
47.228	33.436	2354.477	2501.730
48.242	33.999	2355.859	2510.373
49.257	34.499	2354.468	2515.216
50.271	34.735	2352.506	2515.947
51.286	34.819	2349.873	2513.940
52.301	34.139	2347.559	2502.178
53.315	33.140	2341.353	2482.088
54.330	30.531	2331.750	2437.282
55.344	28.778	2323.773	2405.604
56.359	28.779	2321.168	2402.631
57.374	28.528	2318.738	2396.534
58.388	28.301	2314.764	2389.155
59.403	28.364	2312.240	2387.099
60.417	28.455	2309.592	2385.259
61.432	28.833	2309.722	2390.058
62.447	28.536	2307.546	2383.638
63.461	28.560	2304.096	2380.102
64.476	28.373	2302.163	2375.385
65.490	28.851	2302.396	2381.571
66.505	29.375	2303.455	2389.203
67.520	30.707	2307.540	2410.519
68.534	32.351	2310.574	2434.807
69.549	32.999	2308.190	2440.420
70.563	33.064	2305.197	2437.813
71.578	33.341	2305.164	2441.076
72.593	34.228	2305.008	2452.105
73.607	34.488	2303.863	2453.951
74.622	34.327	2300.756	2448.267
75.636	33.878	2297.138	2438.336
76.651	33.897	2295.758	2436.825
77.666	34.290	2295.650	2441.482
78.680	34.399	2293.434	2440.239
79.695	34.258	2290.559	2435.080
80.709	33.572	2287.383	2422.601
81.724	33.577	2286.397	2421.327
82.739	34.624	2286.993	2435.108
83.753	35.254	2286.528	2442.383
84.768	34.940	2283.557	2434.913
85.782	34.457	2281.285	2426.015
86.797	34.444	2279.650	2423.819
87.812	34.142	2275.582	2415.349
88.826	34.019	2274.039	2411.854
89.841	34.560	2274.165	2418.602
90.855	34.932	2271.169	2419.858
91.870	33.909	2267.518	2402.677
92.884	33.677	2265.866	2397.693
93.899	34.084	2265.310	2401.992
94.914	32.853	2259.595	2380.043
95.928	29.951	2251.463	2334.480
96.943	29.111	2248.826	2320.831
97.957	31.861	2254.908	2361.705
98.972	34.060	2256.749	2391.180
99.987	33.934	2252.907	2385.223
101.001	33.873	2251.173	2382.340
102.016	34.043	2250.899	2383.901
103.030	33.986	2247.639	2379.455
104.045	34.034	2245.316	2377.306
105.060	34.729	2245.499	2385.950
106.074	34.894	2244.823	2387.016
107.089	34.255	2241.115	2374.778
108.103	34.021	2239.652	2370.018
109.118	34.466	2238.690	2374.289
110.133	34.613	2237.708	2374.790
111.147	34.661	2234.534	2371.739
112.162	34.604	2233.039	2369.155
113.176	34.528	2231.351	2366.136
114.191	34.034	2228.038	2356.195
115.206	33.847	2225.731	2351.142
116.220	34.026	2224.490	2351.778
117.235	33.762	2220.658	2344.167
118.249	33.427	2218.697	2337.656
119.264	33.563	2217.801	2338.127
120.279	33.820	2216.593	2339.755
121.293	33.646	2213.907	2334.482
122.308	33.564	2212.026	2331.205
123.322	33.304	2210.209	2325.800
124.337	32.077	2205.157	2305.085
125.352	30.110	2199.238	2274.378
126.366	30.152	2199.121	2274.500
127.381	32.562	2202.919	2307.893
128.395	33.873	2203.728	2324.600
129.410	34.026	2201.508	2323.859
130.424	33.944	2198.871	2319.789
131.439	33.962	2197.612	2318.405
132.454	33.439	2195.512	2309.502
133.468	33.620	2193.016	2308.818
134.483	33.672	2190.333	2306.356
135.497	33.583	2189.346	2303.951
136.512	34.345	2189.409	2313.045
137.527	34.590	2188.367	2314.650
138.541	34.509	2187.289	2312.242
139.556	34.661	2187.020	2313.532
140.570	34.506	2185.362	2309.616
141.585	34.534	2182.084	2306.217
142.600	34.482	2181.525	2304.717
143.614	34.539	2179.582	2303.083
144.629	34.867	2178.723	2305.875
145.643	34.552	2176.371	2299.304
146.658	34.238	2174.054	2292.780
147.673	33.795	2170.542	2283.440
148.687	33.924	2169.897	2284.053
149.702	34.093	2168.891	2284.762
150.716	34.066	2168.530	2283.774
151.731	34.786	2169.302	2293.006
152.746	35.024	2167.618	2293.821
153.760	33.205	2161.539	2265.242
154.775	29.873	2150.690	2213.612
155.789	28.783	2148.169	2197.652
156.804	31.371	2152.564	2233.018
157.819	33.565	2154.117	2260.700
158.833	34.198	2153.612	2267.482
159.848	34.839	2153.725	2274.996
160.862	35.092	2152.922	2276.894
161.877	35.248	2153.071	2278.642
162.892	35.310	2152.953	2278.987
163.906	35.588	2150.478	2279.415
164.921	35.555	2148.631	2276.785
165.935	35.383	2145.731	2271.393
166.950	34.940	2142.274	2262.200
167.964	34.394	2139.208	2252.205
168.979	34.080	2136.908	2245.790
169.994	34.320	2136.984	2248.454
171.008	34.142	2133.659	2242.572
172.023	33.798	2131.230	2235.689
173.037	34.151	2131.197	2239.556
174.052	34.024	2127.845	2234.267
175.067	33.569	2126.452	2227.164
176.081	33.492	2125.580	2225.084
177.096	33.729	2125.156	2227.164
178.110	33.791	2122.515	2224.863
179.125	33.630	2121.368	2221.494
180.140	33.870	2120.716	2223.373
181.154	34.090	2119.146	2224.049
182.169	33.874	2117.544	2219.567
183.183	32.773	2113.579	2202.228
184.198	30.241	2103.927	2162.286
185.213	29.448	2102.589	2151.360
186.227	32.219	2108.374	2189.526
187.242	33.358	2107.809	2202.002
188.256	33.311	2106.836	2200.176
189.271	34.086	2106.975	2209.111
190.286	34.097	2105.503	2207.424
191.300	33.514	2101.790	2196.477
192.315	33.472	2099.753	2193.596
193.329	33.985	2099.369	2198.906
194.344	34.530	2099.817	2205.445
195.359	34.222	2098.247	2199.952
196.373	34.580	2095.747	2201.221
197.388	34.669	2093.985	2200.137
198.402	34.347	2092.268	2194.348
199.417	34.446	2090.375	2193.246
200.432	34.728	2089.624	2195.444
201.446	34.979	2089.248	2197.693
202.461	34.648	2084.890	2189.031
203.475	34.180	2082.481	2180.854
204.490	34.213	2080.867	2179.285
205.504	34.407	2079.454	2179.762
206.519	34.212	2076.634	2174.313
207.534	34.594	2076.486	2178.286
208.548	35.200	2076.889	2185.393
209.563	34.251	2073.617	2170.822
210.577	34.241	2071.849	2168.595
211.592	35.131	2073.263	2180.003
212.607	33.711	2065.982	2155.888
213.621	29.322	2054.238	2093.411
214.636	29.032	2055.781	2091.420
215.650	33.020	2064.290	2145.459
216.665	34.923	2065.348	2168.015
217.680	35.237	2065.411	2171.389
218.694	35.417	2062.899	2170.537
219.709	34.629	2058.764	2156.986
220.723	34.545	2059.011	2156.037
221.738	35.445	2058.398	2165.340
222.753	35.667	2056.910	2166.036
223.767	35.178	2054.613	2157.825
224.782	34.566	2050.950	2146.798
225.796	34.551	2049.951	2145.327
226.811	35.001	2049.772	2149.962
227.826	34.923	2048.258	2147.244
228.840	34.637	2045.726	2141.111
229.855	34.290	2042.840	2133.921
230.869	33.706	2039.361	2123.466
231.884	33.427	2038.013	2118.671
232.899	33.829	2038.009	2122.929
233.913	34.323	2037.645	2127.850
234.928	34.524	2037.436	2129.629
235.942	34.217	2035.126	2123.514
236.957	33.960	2031.814	2116.930
237.972	33.955	2030.475	2115.225
238.986	33.951	2029.495	2113.909
240.001	33.562	2027.248	2106.965
241.015	33.300	2024.388	2100.828
242.030	33.162	2023.733	2098.350
243.045	30.967	2015.214	2064.859
244.059	30.224	2013.269	2054.354
245.074	32.981	2017.674	2089.306
246.088	33.495	2016.830	2093.897
247.103	33.436	2015.260	2091.355
248.117	34.081	2014.813	2097.795
249.132	34.275	2013.815	2098.655
250.147	33.829	2010.348	2089.863
251.161	33.211	2008.789	2081.152
252.176	33.542	2007.659	2083.398
253.190	33.431	2004.778	2078.933
254.205	33.555	2002.548	2077.732
255.220	33.843	2002.842	2080.962
256.234	33.501	2001.356	2075.407
257.249	33.588	2000.141	2074.850
258.263	33.817	2000.412	2077.409
259.278	34.080	1999.996	2079.614
260.293	34.274	1999.460	2080.945
261.307	34.260	1997.222	2078.207
262.322	34.427	1994.832	2077.300
263.336	34.015	1991.305	2068.871
264.351	33.732	1991.052	2065.266
265.366	34.409	1990.999	2072.373
266.380	34.936	1990.831	2077.703
267.395	34.378	1989.082	2069.540
268.409	34.296	1986.265	2065.462
269.424	34.773	1985.978	2070.118
270.439	34.918	1985.007	2070.433
271.453	34.203	1980.322	2057.536
272.468	30.376	1968.985	2004.080
273.482	29.361	1967.444	1991.268
274.497	32.573	1972.612	2031.141
275.512	34.311	1974.395	2051.569
276.526	34.601	1972.762	2052.762
277.541	34.523	1970.703	2049.527
278.555	34.154	1968.953	2043.476
279.570	34.000	1966.274	2038.793
280.585	33.602	1963.621	2031.518
281.599	33.703	1963.573	2032.311
282.614	32.644	1957.065	2013.962
283.628	29.495	1948.235	1970.900
284.643	28.051	1944.879	1951.784
285.657	27.959	1942.824	1948.512
286.672	27.769	1940.154	1943.559
287.687	27.329	1937.132	1935.602
288.701	27.425	1938.075	1937.331
289.716	27.881	1936.932	1940.836
290.730	27.679	1934.505	1936.011
291.745	28.190	1934.303	1941.027
292.760	28.615	1935.865	1946.898
293.774	30.655	1941.482	1974.107
294.789	33.308	1945.886	2006.657
295.803	34.170	1944.132	2013.781
296.818	33.844	1941.804	2007.671
297.833	33.958	1941.429	2008.252
298.847	33.921	1940.390	2006.542
299.862	33.849	1938.043	2003.116
300.876	33.047	1933.905	1990.112
301.891	30.589	1927.042	1956.846
302.906	29.675	1926.815	1946.704
303.920	32.570	1930.377	1980.725
304.935	33.981	1931.639	1996.693
305.949	34.050	1929.505	1994.972
306.964	34.177	1928.175	1994.702
307.979	33.616	1922.909	1983.119
308.993	30.436	1913.073	1939.428
310.008	27.279	1905.485	1898.436
311.022	26.833	1903.250	1891.310
312.037	27.465	1904.286	1898.737
313.052	27.521	1901.217	1896.043
314.066	26.893	1898.323	1886.363
315.081	26.861	1897.232	1884.721
316.095	26.916	1896.854	1884.690
317.110	27.100	1895.464	1885.004
318.125	27.104	1893.705	1883.078
319.139	27.169	1892.560	1882.390
320.154	27.418	1892.625	1884.815
321.168	27.410	1891.265	1883.157
322.183	28.673	1893.090	1897.874
323.197	31.672	1900.568	1936.374
324.212	34.017	1903.483	1963.491
325.227	34.211	1902.707	1964.464
326.241	34.350	1901.671	1964.601
327.256	34.823	1901.353	1968.939
328.270	34.533	1899.834	1964.124
329.285	34.649	1899.212	1964.451
330.300	33.682	1894.747	1949.616
331.314	29.934	1884.294	1900.041
332.329	29.352	1883.437	1892.947
333.343	32.737	1890.416	1934.714
334.358	34.693	1890.913	1955.144
335.373	35.138	1891.010	1959.586
336.387	35.510	1889.534	1961.653
337.402	35.258	1888.122	1957.359
338.416	35.071	1884.503	1951.462
339.431	34.669	1883.877	1946.456
340.446	34.012	1877.805	1933.246
341.460	30.059	1866.463	1881.090
342.475	27.993	1861.339	1854.649
343.489	27.552	1858.733	1847.341
344.504	27.253	1858.127	1843.473
345.519	27.337	1856.355	1842.344
346.533	26.936	1853.338	1835.052
347.548	26.861	1851.480	1832.234
348.562	27.106	1850.598	1833.628
349.577	27.006	1849.879	1831.679
350.592	27.095	1849.333	1831.823
351.606	27.253	1847.781	1831.668
352.621	26.800	1844.445	1823.568
353.635	26.851	1844.524	1823.936
354.650	28.911	1849.574	1849.569
355.665	31.914	1854.170	1884.326
356.679	32.858	1855.424	1894.905
357.694	33.222	1855.674	1898.605
358.708	33.816	1854.939	1903.613
359.723	32.946	1851.146	1890.738
360.738	29.888	1842.900	1851.395
361.752	29.551	1844.148	1849.037
362.767	32.705	1847.416	1883.828
363.781	33.823	1847.129	1894.537
364.796	34.264	1847.313	1898.913
365.810	34.179	1845.541	1896.020
366.825	33.342	1840.653	1882.406
367.840	30.231	1831.903	1842.231
368.854	27.218	1824.455	1804.515
369.869	26.618	1822.439	1796.321
370.883	26.902	1821.261	1797.775
371.898	27.185	1820.627	1799.758
372.913	27.140	1819.386	1797.866
373.927	26.707	1816.317	1790.322
374.942	26.402	1815.602	1786.375
375.956	26.926	1815.888	1791.638
376.971	27.076	1812.914	1789.979
377.986	26.770	1810.761	1784.605
379.000	26.987	1810.213	1786.005
380.015	27.214	1810.178	1787.999
381.029	29.714	1816.211	1818.501
382.044	33.697	1822.251	1863.743
383.059	34.673	1822.187	1873.090
384.073	34.201	1821.513	1867.512
385.088	34.396	1822.141	1869.859
386.102	34.804	1819.836	1871.283
387.117	34.579	1818.896	1867.882
388.132	34.786	1818.497	1869.287
389.146	34.016	1814.268	1857.164
390.161	30.228	1803.764	1809.134
391.175	29.586	1801.296	1800.155
392.190	32.416	1803.719	1830.074
393.205	33.657	1805.677	1843.970
394.219	34.166	1804.356	1847.369
395.234	33.943	1802.972	1843.561
396.248	33.954	1801.627	1842.072
397.263	33.881	1798.464	1837.904
398.278	33.584	1797.120	1833.422
399.292	33.268	1794.909	1827.880
400.307	32.303	1789.330	1812.637
401.321	28.989	1781.752	1772.709
402.336	27.507	1776.963	1753.408
403.350	27.195	1775.188	1748.429
404.365	27.708	1775.308	1753.299
405.380	27.621	1773.500	1750.464
406.394	26.667	1771.137	1738.714
407.409	26.675	1769.367	1736.853
408.423	26.909	1768.723	1738.264
409.438	26.884	1766.292	1735.429
410.453	26.729	1764.761	1732.221
411.467	26.969	1764.935	1734.492
412.482	27.810	1767.539	1744.933
413.496	31.094	1774.217	1782.921
414.511	33.406	1776.281	1806.985
415.526	33.405	1774.323	1804.774
416.540	33.632	1773.550	1805.940
417.555	33.614	1772.565	1804.549
418.569	32.922	1771.439	1796.574
419.584	33.034	1770.062	1796.029
420.599	33.044	1769.801	1795.642
421.613	33.309	1769.052	1797.202
422.628	33.553	1768.480	1798.732
423.642	34.100	1767.352	1802.577
424.657	33.154	1762.961	1788.895
425.672	32.555	1761.018	1781.019
426.686	33.110	1761.272	1786.332
427.701	33.010	1758.442	1782.308
428.715	32.868	1756.978	1779.262
429.730	32.958	1756.661	1779.576
430.745	33.868	1758.085	1789.426
431.759	34.169	1758.258	1792.244
432.774	34.082	1756.064	1788.970
433.788	31.487	1746.806	1754.888
434.803	28.438	1741.076	1720.211
435.818	27.877	1738.938	1712.599
436.832	27.686	1738.570	1710.232
437.847	26.795	1731.733	1694.941
438.861	17.159	1703.204	1577.304
439.876	3.923	1677.940	1431.294
440.890	0.443	1672.070	1393.832
441.905	0.260	1670.142	1390.361
442.920	0.214	1668.960	1388.787
443.934	0.197	1667.309	1387.090
444.949	0.141	1666.863	1386.031
445.963	0.140	1665.966	1385.114
446.978	-0.020	1665.925	1383.433
447.993	0.088	1664.145	1382.782
449.007	0.135	1661.677	1380.998
450.022	0.259	1659.149	1379.876
451.036	0.160	1658.580	1378.326
452.051	1.409	1665.579	1395.516
453.066	13.272	1693.478	1529.592
454.080	26.457	1715.042	1672.244
455.095	29.659	1719.339	1706.003
456.109	30.452	1721.337	1715.146
457.124	31.055	1720.715	1719.910
458.139	30.402	1718.321	1711.273
459.153	29.883	1716.973	1704.921
460.168	29.912	1715.579	1703.597
461.182	30.317	1714.828	1706.395
462.197	30.698	1714.267	1709.145
463.212	31.375	1714.320	1715.247
464.226	32.341	1714.033	1723.658
465.241	32.333	1713.525	1722.860
466.255	32.187	1711.518	1719.300
467.270	32.311	1711.063	1719.773
468.285	32.946	1712.540	1726.895
469.299	33.925	1712.851	1735.994
470.314	33.975	1710.167	1733.520
471.328	33.757	1709.184	1730.321
472.343	33.665	1707.867	1727.942
473.358	33.732	1705.979	1726.436
474.372	33.673	1705.960	1725.674
475.387	34.496	1706.072	1733.100
476.401	34.490	1703.726	1730.456
477.416	33.500	1700.849	1718.303
478.430	33.238	1700.272	1715.132
479.445	33.969	1700.538	1721.851
480.460	34.237	1699.389	1722.918
481.474	34.215	1698.345	1721.452
482.489	34.210	1696.134	1718.964
483.503	33.354	1692.073	1706.892
484.518	32.934	1690.406	1701.198
485.533	33.389	1690.343	1705.052
486.547	33.330	1686.632	1700.569
487.562	32.079	1683.785	1686.210
488.576	32.521	1684.837	1691.058
489.591	33.431	1686.084	1700.319
490.606	34.016	1684.705	1703.996
491.620	34.025	1682.632	1701.777
492.635	33.513	1680.152	1694.470
493.649	32.540	1676.963	1682.313
494.664	32.730	1677.064	1683.919
495.679	33.863	1677.712	1694.537
496.693	33.885	1675.867	1692.668
497.708	33.673	1674.679	1689.363
498.722	33.193	1672.862	1683.041
499.737	33.241	1672.014	1682.418
500.752	33.431	1670.628	1682.517
501.766	33.780	1669.237	1684.026
502.781	33.641	1667.474	1680.808
503.795	33.596	1666.019	1678.739
504.810	33.766	1665.515	1679.541
505.825	33.376	1664.301	1674.649
506.839	32.706	1660.833	1665.016
507.854	32.431	1659.034	1660.571
508.868	32.001	1656.101	1653.634
509.883	31.008	1654.165	1642.709
510.898	30.488	1651.427	1635.197
511.912	30.216	1648.667	1629.864
512.927	29.942	1647.025	1625.630
513.941	30.070	1644.818	1624.389
514.956	30.230	1645.635	1626.405
515.971	30.846	1644.318	1630.337
516.985	30.355	1642.975	1624.488
518.000	29.950	1640.769	1618.560
519.014	29.912	1639.698	1616.970
520.029	29.782	1638.987	1614.940
521.043	30.041	1636.644	1614.704
522.058	30.098	1635.668	1614.042
523.073	30.184	1634.950	1613.895
524.087	30.212	1634.373	1613.381
525.102	30.634	1635.216	1617.706
526.116	31.741	1636.601	1628.564
527.131	32.695	1636.163	1636.263
528.146	32.558	1635.030	1633.742
529.160	32.463	1634.110	1631.795
530.175	32.812	1632.907	1633.441
531.189	32.642	1632.038	1630.896
532.204	32.498	1630.649	1628.061
533.219	32.862	1630.550	1630.927
534.233	33.183	1630.025	1632.997
535.248	32.723	1626.700	1625.478
536.262	31.903	1625.361	1616.844
537.277	32.415	1624.832	1620.560
538.292	33.151	1624.685	1626.589
539.306	33.157	1622.923	1624.684
540.321	32.469	1620.007	1615.635
541.335	31.789	1618.428	1608.001
542.350	32.332	1616.886	1610.960
543.365	32.924	1616.261	1615.235
544.379	33.190	1614.602	1615.667
545.394	32.827	1612.899	1610.659
546.408	32.522	1612.088	1607.037
547.423	33.020	1612.979	1612.003
548.438	34.026	1613.510	1620.968
549.452	33.755	1610.693	1615.627
550.467	32.777	1608.024	1604.398
551.481	32.701	1606.856	1602.390
552.496	32.479	1605.610	1599.060
553.511	32.317	1603.724	1595.609
554.525	32.473	1603.692	1596.718
555.540	32.527	1603.117	1596.412
556.554	32.715	1601.301	1596.015
557.569	32.469	1599.020	1591.463
558.583	31.800	1596.899	1583.478
559.598	31.620	1595.241	1580.114
560.613	31.776	1593.710	1579.732
561.627	31.295	1591.566	1573.352
562.642	30.677	1588.835	1565.239
563.656	30.196	1586.736	1558.915
564.671	29.757	1585.656	1553.960
565.686	29.743	1584.434	1552.463
566.700	29.794	1583.209	1551.505
567.715	29.808	1581.430	1549.693
568.729	29.891	1580.280	1549.082
569.744	30.247	1579.483	1551.105
570.759	30.531	1577.749	1551.604
571.773	29.931	1576.578	1545.231
572.788	29.872	1574.826	1542.838
573.802	29.879	1573.454	1541.362
574.817	29.709	1571.818	1538.160
575.832	29.509	1571.908	1536.388
576.846	30.351	1571.253	1542.596
577.861	31.090	1571.079	1548.413
578.875	31.401	1571.460	1551.196
579.890	31.721	1571.266	1553.486
580.905	31.874	1570.496	1553.814
581.919	31.840	1569.712	1552.570
582.934	31.921	1568.988	1552.344
583.948	31.733	1567.255	1548.880
584.963	31.804	1565.542	1547.589
585.978	32.109	1564.561	1548.966
586.992	31.601	1562.806	1542.831
588.007	31.421	1561.071	1539.448
589.021	31.324	1559.204	1536.618
590.036	30.281	1557.120	1525.764
591.051	30.701	1556.898	1528.834
592.065	31.314	1556.024	1532.851
593.080	31.379	1554.894	1532.095
594.094	31.662	1553.263	1532.628
595.109	31.868	1553.601	1534.474
596.123	32.892	1553.764	1542.867
597.138	32.921	1552.773	1541.938
598.153	32.107	1549.958	1532.287
599.167	31.600	1547.445	1525.470
600.182	31.431	1546.436	1522.903
601.196	31.443	1546.413	1522.796
602.211	32.020	1545.649	1526.587
603.226	31.671	1543.832	1521.757
604.240	31.767	1542.219	1520.765
605.255	31.993	1540.546	1520.776
606.269	31.622	1539.231	1516.275
607.284	31.408	1537.773	1512.919
608.299	31.327	1535.968	1510.305
609.313	31.027	1535.361	1507.088
610.328	30.912	1533.001	1503.660
611.342	31.074	1531.703	1503.518
612.357	31.082	1530.354	1502.081
613.372	30.736	1528.598	1497.381
614.386	30.441	1527.786	1494.021
615.401	30.356	1527.139	1492.518
616.415	30.194	1526.472	1490.380
617.430	29.821	1524.038	1484.821
618.445	29.626	1522.312	1481.389
619.459	29.647	1520.802	1479.913
620.474	29.629	1520.541	1479.333
621.488	29.918	1520.356	1481.301
622.503	30.710	1519.663	1486.812
623.518	30.037	1517.917	1479.523
624.532	29.384	1515.997	1472.240
625.547	29.441	1514.131	1470.710
626.561	29.390	1513.512	1469.522
627.576	29.364	1512.258	1467.922
628.591	29.482	1511.716	1468.165
629.605	29.639	1510.838	1468.389
630.620	30.089	1510.431	1471.410
631.634	30.897	1510.320	1477.570
632.649	30.783	1508.921	1475.120
633.663	30.324	1505.949	1468.387
634.678	29.543	1504.070	1460.174
635.693	29.304	1501.580	1455.683
636.707	29.390	1500.338	1454.986
637.722	29.442	1499.962	1454.862
638.736	29.984	1499.525	1458.555
639.751	30.347	1499.348	1461.085
640.766	30.655	1498.197	1462.216
641.780	30.612	1497.067	1460.602
642.795	30.989	1497.063	1463.400
643.809	31.078	1496.842	1463.707
644.824	31.170	1496.613	1464.032
645.839	31.390	1495.815	1464.812
646.853	31.292	1494.497	1462.575
647.868	31.105	1492.593	1459.068
648.882	31.176	1490.382	1457.292
649.897	30.914	1489.435	1454.134
650.912	30.683	1487.543	1450.300
651.926	30.745	1486.260	1449.364
652.941	30.817	1485.405	1448.920
653.955	30.537	1483.772	1444.967
654.970	29.952	1481.217	1437.736
655.985	29.548	1478.643	1431.918
656.999	29.401	1477.536	1429.535
658.014	29.484	1476.254	1428.767
659.028	29.853	1476.172	1431.386
660.043	30.351	1476.527	1435.430
661.058	30.560	1475.270	1435.657
662.072	30.895	1474.124	1436.971
663.087	30.900	1473.334	1436.070
664.101	30.704	1472.366	1433.436
665.116	30.779	1471.891	1433.384
666.131	30.704	1470.735	1431.505
667.145	30.980	1469.195	1431.965
668.160	30.893	1467.994	1429.949
669.174	30.559	1466.034	1425.301
670.189	30.864	1465.155	1426.618
671.204	31.071	1465.629	1428.501
672.218	30.822	1465.050	1425.854
673.233	31.012	1462.975	1425.125
674.247	30.753	1461.704	1421.725
675.262	30.548	1460.166	1418.489
676.276	30.616	1458.385	1417.110
677.291	30.465	1458.785	1416.172
678.306	31.069	1459.043	1420.879
679.320	30.982	1456.869	1417.928
680.335	30.342	1455.408	1411.442
681.349	30.323	1454.723	1410.465
682.364	30.710	1452.897	1411.479
683.379	30.371	1450.578	1406.476
684.393	30.060	1448.761	1402.177
685.408	30.058	1447.907	1401.174
686.422	29.804	1447.240	1398.425
687.437	29.629	1445.884	1395.625
688.452	29.427	1444.844	1392.914
689.466	29.369	1442.485	1390.035
690.481	29.404	1441.259	1388.958
691.495	29.340	1441.171	1388.220
692.510	29.888	1442.597	1393.579
693.525	30.917	1441.025	1399.662
694.539	30.434	1438.375	1393.280
695.554	29.427	1437.359	1384.544
696.568	29.226	1435.566	1381.134
697.583	29.327	1435.027	1381.212
698.598	29.564	1434.261	1382.087
699.612	29.707	1432.448	1381.249
700.627	29.750	1432.527	1381.488
701.641	30.171	1431.820	1383.796
702.656	30.310	1430.877	1383.764
703.671	30.309	1430.580	1383.304
704.685	30.319	1429.858	1382.512
705.700	30.557	1427.986	1382.315
706.714	30.193	1426.537	1378.031
707.729	30.234	1425.519	1377.186
708.744	30.236	1424.556	1376.105
709.758	29.806	1422.347	1370.611
710.773	29.206	1420.430	1364.130
711.787	29.106	1418.777	1361.638
712.802	29.802	1418.319	1366.203
713.816	30.106	1417.905	1367.902
714.831	30.113	1417.293	1367.199
715.846	29.892	1416.451	1364.585
716.860	29.983	1414.615	1363.322
717.875	30.077	1413.581	1362.859
718.889	30.004	1412.863	1361.467
719.904	29.903	1411.454	1359.198
720.919	29.964	1410.005	1358.090
721.933	29.878	1408.889	1356.223
722.948	29.756	1408.726	1355.004
723.962	29.813	1407.198	1353.790
724.977	29.851	1406.058	1352.811
725.992	29.965	1405.581	1353.028
727.006	30.401	1404.480	1355.004
728.021	30.341	1402.581	1352.571
729.035	30.143	1401.917	1350.315
730.050	30.100	1401.326	1349.274
731.065	30.074	1400.010	1347.653
732.079	29.769	1399.189	1344.475
733.094	30.126	1397.963	1345.737
734.108	30.403	1396.707	1346.389
735.123	30.232	1395.185	1343.517
736.138	29.864	1394.634	1340.148
737.152	29.897	1393.616	1339.244
738.167	29.809	1392.222	1337.111
739.181	29.847	1391.076	1336.126
740.196	30.122	1389.861	1336.790
741.211	29.975	1389.042	1334.778
742.225	29.799	1388.118	1332.455
743.240	29.711	1386.299	1329.916
744.254	29.614	1385.055	1327.863
745.269	29.500	1383.534	1325.418
746.284	29.267	1382.703	1322.785
747.298	29.115	1381.821	1320.687
748.313	29.184	1380.737	1319.989
749.327	29.396	1380.599	1321.224
750.342	30.012	1381.159	1326.037
751.356	30.624	1380.984	1330.110
752.371	30.621	1378.335	1327.384
753.386	29.692	1376.091	1318.405
754.400	29.518	1375.221	1316.167
755.415	29.743	1375.017	1317.423
756.429	30.067	1373.484	1318.113
757.444	30.117	1372.480	1317.355
758.459	29.876	1371.495	1314.524
759.473	29.821	1370.243	1312.778
760.488	29.604	1368.365	1309.278
761.502	29.459	1366.576	1306.376
762.517	29.509	1366.443	1306.451
763.532	29.726	1365.712	1307.132
764.546	29.511	1363.828	1303.649
765.561	28.932	1362.626	1298.236
766.575	28.548	1360.724	1293.551
767.590	28.722	1359.468	1293.432
768.605	29.156	1359.009	1295.908
769.619	29.345	1358.455	1296.561
770.634	29.500	1358.025	1297.094
771.648	29.657	1356.245	1296.345
772.663	29.382	1354.968	1293.032
773.678	29.562	1354.885	1294.062
774.692	29.800	1354.497	1295.218
775.707	29.703	1354.236	1294.124
776.721	29.767	1353.147	1293.384
777.736	29.664	1351.514	1290.945
778.751	29.675	1351.546	1290.893
779.765	29.770	1350.334	1290.251
780.780	29.789	1349.605	1289.530
781.794	29.745	1348.931	1288.428
782.809	29.716	1346.359	1285.616
783.824	29.174	1344.502	1279.902
784.838	29.315	1344.169	1280.415
785.853	29.831	1344.073	1283.771
786.867	29.485	1343.421	1280.583
787.882	29.115	1341.698	1276.206
788.897	29.072	1340.626	1274.738
789.911	29.027	1339.318	1273.029
790.926	28.942	1338.395	1271.404
791.940	29.221	1336.725	1271.605
792.955	29.395	1335.833	1271.811
793.969	29.180	1334.999	1269.377
794.984	29.348	1334.568	1269.974
795.999	29.464	1334.197	1270.274
797.013	29.733	1331.887	1269.779
798.028	29.544	1330.637	1267.135
799.042	29.526	1330.587	1266.808
800.057	29.437	1329.544	1265.054
801.072	29.496	1327.499	1263.358
802.086	29.555	1326.242	1262.416
803.101	29.486	1325.346	1260.940
804.115	29.436	1325.215	1260.321
805.130	29.453	1324.044	1259.175
806.145	29.284	1322.253	1256.162
807.159	29.292	1320.769	1254.656
808.174	29.247	1319.731	1253.211
809.188	29.343	1318.374	1252.428
810.203	29.220	1317.230	1250.355
811.218	29.017	1314.752	1246.470
812.232	28.623	1312.837	1241.828
813.247	28.518	1312.241	1240.402
814.261	28.696	1312.764	1241.955
815.276	29.139	1312.206	1244.287
816.291	29.028	1311.439	1242.660
817.305	29.216	1309.886	1242.312
818.320	29.162	1308.849	1240.817
819.334	29.288	1308.639	1241.319
820.349	29.328	1307.456	1240.321
821.364	29.471	1305.327	1239.115
822.378	29.467	1304.580	1238.235
823.393	29.406	1302.326	1235.539
824.407	29.423	1301.379	1234.604
825.422	29.393	1301.361	1234.236
826.437	29.272	1300.457	1232.416
827.451	29.292	1297.881	1229.965
828.466	29.349	1297.582	1229.914
829.480	29.479	1295.594	1228.756
830.495	29.285	1293.648	1225.463
831.509	29.164	1293.103	1223.991
832.524	29.002	1292.725	1222.406
833.539	29.216	1291.620	1222.642
834.553	29.387	1290.069	1222.170
835.568	29.362	1288.655	1220.517
836.582	29.435	1287.909	1220.149
837.597	29.355	1286.814	1218.437
838.612	29.234	1284.869	1215.642
839.626	29.092	1284.322	1214.043
840.641	28.959	1283.105	1211.865
841.655	28.790	1281.849	1209.415
842.670	28.446	1280.522	1205.742
843.685	28.369	1278.778	1203.447
844.699	28.774	1277.653	1204.914
845.714	28.989	1276.442	1205.049
846.728	28.675	1276.640	1203.022
847.743	28.868	1276.127	1203.664
848.758	28.860	1275.182	1202.578
849.772	29.185	1273.476	1202.959
850.787	29.294	1272.197	1202.318
851.801	29.150	1271.528	1200.602
852.816	29.297	1270.274	1200.235
853.831	29.191	1269.198	1198.384
854.845	29.171	1267.836	1196.820
855.860	28.980	1265.844	1193.551
856.874	28.912	1264.650	1191.842
857.889	29.062	1264.003	1192.063
858.904	28.952	1263.386	1190.623
859.918	29.307	1262.783	1192.225
860.933	29.686	1261.146	1192.992
861.947	29.535	1260.041	1190.825
862.962	29.188	1257.801	1186.321
863.977	29.022	1256.677	1184.042
864.991	29.001	1256.020	1183.150
866.006	29.002	1255.692	1182.701
867.020	29.111	1253.957	1181.630
868.035	29.082	1253.466	1180.839
869.049	29.077	1252.982	1180.213
870.064	29.124	1251.673	1179.140
871.079	29.122	1250.651	1178.024
872.093	28.922	1250.178	1176.148
873.108	28.959	1249.189	1175.316
874.122	28.684	1247.610	1171.929
875.137	28.580	1246.784	1170.343
876.152	28.485	1245.309	1168.211
877.166	28.521	1243.553	1166.652
878.181	28.502	1242.872	1165.754
879.195	28.751	1242.502	1166.858
880.210	29.089	1241.466	1167.903
881.225	29.034	1240.703	1166.695
882.239	29.007	1239.884	1165.612
883.254	29.118	1238.901	1165.255
884.268	29.157	1238.089	1164.596
885.283	29.276	1236.454	1163.678
886.298	29.172	1234.772	1161.292
887.312	29.280	1234.292	1161.388
888.327	29.205	1233.620	1160.144
889.341	29.275	1232.255	1159.165
890.356	29.177	1230.854	1157.089
891.371	29.147	1230.180	1156.123
892.385	29.067	1230.208	1155.508
893.400	29.152	1229.588	1155.325
894.414	29.285	1227.578	1154.131
895.429	29.264	1226.547	1152.895
896.444	29.855	1226.541	1156.462
897.458	30.589	1225.841	1160.271
898.473	30.060	1224.131	1155.205
899.487	29.318	1222.750	1149.113
900.502	29.233	1220.973	1146.775
901.517	29.288	1219.662	1145.751
902.531	29.232	1218.652	1144.314
903.546	29.157	1219.023	1144.054
904.560	29.186	1218.014	1143.152
905.575	29.217	1216.530	1141.815
906.589	29.027	1215.510	1139.538
907.604	28.802	1214.806	1137.342
