DTS Sentinel unit serial number:	SN409020Multiplexer serial number:	ORYXHardware model number:	OX4-SRSoftware version number:	ORYX F/W v3.00 Oryx Data Collector v3.7.2.0data status	okinstallation	HaddamTimeLapsedifferential loss correction	single-endedforward channel	channel 3reverse channel	N/Adate	2011/06/22time	04:56:17forward acquisition time	30.00reverse acquisition time	0.00gamma	498.7831k internal	0.1752k external	0.1752temperature offset calibration	1.0074default loss term (dB/km)	0.3790temperature slope calibration	1.3530multiplexer offset coefficient	1.0000multiplexer slope coefficient	1.0000fibre end	0.00T internal ref (°C)	22.69T ext. ref 1 (°C)	17.75T ext. ref 2 (°C)	0.15length (m)	temperature (°C)	Stokes	anti-Stokes-747.200	800.000	0.038	-0.161
-746.185	-101.191	-0.331	0.107
-745.171	0.414	0.115	-0.109
-744.156	-26.028	-0.217	0.169
-743.142	800.000	-0.055	0.203
-742.127	-106.509	-0.247	0.073
-741.112	-96.589	-0.656	0.228
-740.098	381.348	-0.168	0.460
-739.083	-97.845	0.378	-0.129
-738.069	230.827	0.246	0.537
-737.054	800.000	-0.057	-0.243
-736.039	-57.228	0.097	0.056
-735.025	-102.699	0.372	0.117
-734.010	-93.456	-0.385	0.141
-732.996	800.000	0.010	-0.058
-731.981	-151.976	0.583	-0.056
-730.966	-97.597	-0.354	-0.121
-729.952	4.114	0.267	-0.259
-728.937	423.544	-0.026	-0.073
-727.923	90.823	-0.243	-0.362
-726.908	137.578	0.179	-0.311
-725.894	72.094	-0.175	-0.242
-724.879	-69.585	0.192	0.097
-723.864	-140.853	-0.490	0.066
-722.850	-119.992	-0.256	0.058
-721.835	800.000	-0.085	-0.322
-720.821	800.000	-0.050	0.237
-719.806	-200.000	0.033	0.299
-718.791	-200.000	0.006	-0.067
-717.777	-151.549	-0.539	-0.052
-716.762	628.356	0.172	0.579
-715.748	-161.009	0.073	-0.005
-714.733	-2.898	0.104	0.097
-713.718	-42.646	-0.673	0.453
-712.704	14.780	-0.261	0.270
-711.689	-119.565	-0.483	-0.110
-710.675	-132.442	0.156	-0.026
-709.660	-200.000	-0.008	0.118
-708.645	-41.434	0.162	-0.110
-707.631	81.868	-0.150	-0.216
-706.616	-15.900	0.047	0.040
-705.602	-3.255	-0.166	-0.153
-704.587	-200.000	-0.026	-0.247
-703.572	40.740	-0.218	-0.261
-702.558	-136.021	0.253	0.039
-701.543	-125.266	-0.426	-0.086
-700.529	-139.348	-0.528	0.074
-699.514	-112.676	-0.229	0.060
-698.499	-39.705	-0.287	0.198
-697.485	56.380	0.170	-0.219
-696.470	-200.000	0.018	0.251
-695.456	800.000	-0.062	-0.246
-694.441	-200.000	0.031	0.267
-693.426	-124.000	0.224	0.046
-692.412	-21.869	0.395	-0.318
-691.397	0.705	-0.128	-0.121
-690.383	-122.556	0.352	0.075
-689.368	-200.000	0.001	-0.034
-688.354	36.193	0.331	0.386
-687.339	-98.598	0.382	0.128
-686.324	-0.096	0.299	0.282
-685.310	-7.137	0.304	0.273
-684.295	-42.393	-0.580	-0.391
-683.281	-95.989	-0.326	0.114
-682.266	-144.034	-0.316	0.039
-681.251	-200.000	0.047	-0.318
-680.237	-137.035	0.062	-0.009
-679.222	-200.000	-0.037	0.266
-678.208	-45.236	-0.215	0.141
-677.193	-74.178	-0.554	-0.264
-676.178	-200.000	-0.026	-0.306
-675.164	61.950	0.193	-0.255
-674.149	-32.018	0.743	-0.550
-673.135	-80.304	0.540	0.238
-672.120	-122.010	0.359	0.077
-671.105	-78.937	0.014	0.006
-670.091	-0.421	0.268	-0.252
-669.076	800.000	-0.063	-0.356
-668.062	-70.699	0.124	-0.061
-667.047	-47.451	-0.452	0.290
-666.032	-61.054	-0.543	-0.302
-665.018	-200.000	-0.004	-0.136
-664.003	-93.840	0.173	0.063
-662.989	-21.639	0.096	-0.077
-661.974	800.000	-0.055	-0.259
-660.959	-104.409	-0.411	0.125
-659.945	-37.209	-0.166	0.117
-658.930	-200.000	0.049	-0.619
-657.916	21.554	-0.109	0.118
-656.901	430.988	0.106	0.305
-655.886	-78.967	0.124	-0.056
-654.872	-30.115	-0.267	0.200
-653.857	284.393	0.102	-0.244
-652.843	-99.761	-0.160	-0.053
-651.828	-45.499	0.254	-0.166
-650.814	46.278	0.107	-0.131
-649.799	-60.484	0.307	-0.172
-648.784	17.284	0.327	0.343
-647.770	-154.743	0.450	0.039
-646.755	-136.014	-0.136	-0.021
-645.741	800.000	0.071	-0.298
-644.726	327.175	0.165	-0.420
-643.711	-114.002	0.657	-0.167
-642.697	134.599	-0.082	0.140
-641.682	800.000	-0.045	0.204
-640.668	124.676	-0.026	0.043
-639.653	800.000	-0.010	0.047
-638.638	-200.000	-0.006	-0.248
-637.624	31.229	0.046	0.052
-636.609	-200.000	0.429	0.001
-635.595	-52.618	0.201	-0.122
-634.580	23.734	0.087	-0.094
-633.565	767.189	-0.027	-0.098
-632.551	147.740	0.090	0.161
-631.536	329.925	-0.110	-0.280
-630.522	10.053	0.123	-0.123
-629.507	-108.705	0.513	0.144
-628.492	-132.095	0.301	0.051
-627.478	-172.524	-0.466	-0.019
-626.463	-200.000	-0.101	-0.678
-625.449	-15.072	-0.296	-0.250
-624.434	-96.023	0.472	-0.165
-623.419	800.000	0.079	-0.456
-622.405	663.857	-0.041	-0.142
-621.390	-200.000	0.004	0.504
-620.376	361.406	-0.069	0.185
-619.361	-200.000	-0.001	0.399
-618.346	-170.001	-0.240	0.011
-617.332	17.471	-0.079	0.083
-616.317	302.881	-0.047	-0.115
-615.303	-200.000	0.033	-0.757
-614.288	-137.515	-0.142	0.021
-613.273	-200.000	-0.002	0.359
-612.259	800.000	-0.002	0.011
-611.244	-1.150	-0.060	-0.056
-610.230	477.685	-0.085	-0.256
-609.215	-143.190	-0.123	0.015
-608.201	186.906	-0.148	0.292
-607.186	213.733	-0.047	-0.099
-606.171	529.111	-0.103	-0.324
-605.157	-200.000	0.032	0.263
-604.142	66.544	-0.279	0.374
-603.128	-200.000	-0.022	-0.464
-602.113	494.979	0.112	0.341
-601.098	187.214	-0.138	0.272
-600.084	1.595	-0.152	0.145
-599.069	-39.874	-0.131	-0.090
-598.055	800.000	-0.052	-0.285
-597.040	62.970	-0.123	-0.163
-596.025	233.053	-0.147	0.320
-595.011	800.000	0.025	0.115
-593.996	800.000	0.034	-0.168
-592.982	141.304	0.180	-0.315
-591.967	36.512	0.207	0.241
-590.952	-200.000	-0.468	-0.002
-589.938	709.289	0.099	-0.346
-588.923	-158.923	-0.322	0.024
-587.909	-173.444	-0.498	-0.020
-586.894	800.000	0.055	-0.209
-585.879	83.400	0.407	-0.586
-584.865	19.156	0.211	0.223
-583.850	68.835	-0.259	0.352
-582.836	178.017	-0.079	0.152
-581.821	625.856	-0.093	0.311
-580.806	-200.000	0.014	-0.185
-579.792	211.904	-0.097	-0.203
-578.777	-131.240	0.553	-0.096
-577.763	-200.000	0.007	-0.546
-576.748	-26.442	-0.218	-0.168
-575.733	-103.506	-0.276	-0.085
-574.719	573.337	0.008	0.027
-573.704	611.662	0.146	-0.485
-572.690	-200.000	-0.007	-0.095
-571.675	75.870	-0.335	-0.467
-570.661	800.000	0.049	-0.243
-569.646	424.588	-0.241	-0.687
-568.631	31.951	0.176	0.200
-567.617	270.125	-0.196	-0.456
-566.602	58.569	-0.366	-0.474
-565.588	-93.346	-0.408	0.148
-564.573	-77.462	0.078	-0.035
-563.558	10.821	0.220	-0.221
-562.544	-9.580	0.168	-0.147
-561.529	-75.833	-0.231	-0.108
-560.515	92.790	0.159	0.237
-559.500	10.149	0.212	0.213
-558.485	-167.281	-0.401	0.021
-557.471	-72.639	-0.160	0.078
-556.456	203.733	0.102	-0.208
-555.442	46.710	-0.175	-0.214
-554.427	-140.864	0.326	0.044
-553.412	-177.726	0.392	-0.012
-552.398	-106.246	-0.197	0.058
-551.383	-84.202	-0.208	0.086
-550.369	2.826	-0.224	-0.214
-549.354	-200.000	-0.009	0.520
-548.339	-200.000	0.030	0.202
-547.325	2.113	-0.186	0.177
-546.310	-28.396	-0.073	-0.056
-545.296	764.607	0.041	-0.147
-544.281	800.000	0.080	0.412
-543.266	323.985	0.161	-0.406
-542.252	0.191	-0.216	0.202
-541.237	-107.987	0.358	-0.102
-540.223	589.491	-0.059	-0.191
-539.208	-189.585	-0.403	-0.006
-538.193	-48.722	0.113	-0.072
-537.179	800.000	-0.033	0.158
-536.164	-134.484	-0.141	-0.022
-535.150	-19.362	-0.594	0.484
-534.135	85.726	-0.080	0.116
-533.121	273.308	0.085	0.198
-532.106	-200.000	-0.051	-0.336
-531.091	-60.662	0.543	0.302
-530.077	800.000	-0.020	0.096
-529.062	194.862	-0.083	-0.165
-528.048	-143.570	0.291	0.036
-527.033	-53.092	-0.396	0.239
-526.018	-127.465	-0.241	-0.046
-525.004	-77.347	-0.384	-0.175
-523.989	-91.295	-0.316	-0.118
-522.975	41.740	-0.312	0.372
-521.960	32.373	0.115	0.131
-520.945	-24.498	0.226	0.177
-519.931	518.810	0.060	0.187
-518.916	-106.408	0.479	-0.140
-517.902	398.497	0.219	0.605
-516.887	-84.969	0.457	-0.188
-515.872	-48.449	0.398	-0.251
-514.858	96.425	-0.278	0.419
-513.843	628.089	-0.112	0.373
-512.829	4.576	-0.421	-0.406
-511.814	239.357	0.113	-0.247
-510.799	224.114	0.222	-0.473
-509.785	-84.186	0.205	0.085
-508.770	358.664	0.028	-0.073
-507.756	-23.081	-0.241	-0.190
-506.741	-200.000	-0.056	-0.371
-505.726	0.989	-0.065	-0.061
-504.712	271.779	0.135	0.313
-503.697	-128.954	-0.353	-0.065
-502.683	-104.141	0.170	-0.052
-501.668	266.877	-0.194	0.448
-500.653	-158.594	-0.449	0.034
-499.639	312.018	0.152	0.377
-498.624	102.627	0.212	0.326
-497.610	-1.104	-0.293	-0.272
-496.595	11.096	-0.148	0.148
-495.581	800.000	0.062	0.361
-494.566	-74.636	-0.326	0.153
-493.551	-133.703	0.332	0.054
-492.537	13.937	0.361	0.369
-491.522	-200.000	-0.003	0.177
-490.508	-200.000	0.035	0.249
-489.493	114.075	-0.125	-0.200
-488.478	599.839	-0.079	0.260
-487.464	-46.509	0.376	0.242
-486.449	-185.030	-0.225	0.005
-485.435	-1.400	0.167	0.154
-484.420	42.564	0.291	0.348
-483.405	46.264	0.047	-0.057
-482.391	-43.404	0.339	0.224
-481.376	-35.480	0.560	-0.398
-480.362	-140.193	0.411	0.056
-479.347	-200.000	0.016	0.094
-478.332	83.598	-0.218	0.312
-477.318	351.577	-0.188	-0.491
-476.303	-143.386	0.333	0.041
-475.289	-12.744	-0.097	-0.083
-474.274	-47.370	-0.333	0.212
-473.259	-200.000	-0.035	-0.500
-472.245	42.011	0.049	-0.059
-471.230	96.174	-0.053	-0.080
-470.216	-28.068	-0.405	-0.307
-469.201	-200.000	-0.278	-0.001
-468.186	108.397	0.156	-0.244
-467.172	-61.025	-0.148	-0.082
-466.157	-153.190	0.297	-0.027
-465.143	-33.592	-0.309	0.224
-464.128	13.057	0.301	-0.306
-463.113	-198.720	0.223	0.002
-462.099	-200.000	0.002	0.361
-461.084	-8.176	-0.562	0.496
-460.070	800.000	0.018	0.100
-459.055	365.424	0.077	-0.206
-458.040	-107.939	0.256	0.073
-457.026	192.227	0.481	0.955
-456.011	-147.703	-0.338	-0.037
-454.997	-200.000	0.015	-0.405
-453.982	-36.045	-0.018	-0.013
-452.968	643.561	0.137	-0.461
-451.953	-200.000	0.048	-0.303
-450.938	480.545	-0.186	-0.557
-449.924	-113.110	0.628	-0.161
-448.909	-64.479	-0.264	0.140
-447.895	104.376	-0.043	0.066
-446.880	307.873	-0.085	-0.208
-445.865	-113.683	0.249	0.063
-444.851	-12.243	0.048	-0.041
-443.836	55.482	-0.221	-0.281
-442.822	-19.000	-0.181	0.147
-441.807	-116.576	0.711	-0.170
-440.792	128.980	-0.082	0.138
-439.778	-35.214	-0.442	-0.315
-438.763	-17.135	-0.117	0.097
-437.749	40.243	0.076	-0.089
-436.734	-32.611	-0.193	0.141
-435.719	242.305	0.105	0.231
-434.705	-82.671	-0.300	-0.127
-433.690	800.000	-0.066	0.320
-432.676	-132.964	-0.328	0.054
-431.661	-97.189	-0.714	-0.243
-430.646	-48.266	-0.729	0.460
-429.632	330.121	0.190	0.481
-428.617	-27.143	0.184	0.141
-427.603	46.499	0.051	0.062
-426.588	-127.897	-0.366	-0.068
-425.573	-37.394	0.092	0.064
-424.559	-200.000	-0.002	-0.040
-423.544	494.366	-0.152	0.459
-422.530	800.000	0.159	0.679
-421.515	-15.038	0.416	0.349
-420.500	19.253	0.182	0.192
-419.486	-68.547	-0.215	-0.109
-418.471	369.294	-0.103	-0.273
-417.457	123.422	-0.073	0.120
-416.442	123.155	-0.225	-0.371
-415.428	200.085	-0.150	-0.303
-414.413	800.000	-0.072	-0.393
-413.398	-83.280	-0.458	-0.192
-412.384	176.097	-0.056	0.107
-411.369	107.951	-0.177	-0.277
-410.355	-166.984	0.217	0.011
-409.340	-62.035	-0.392	-0.214
-408.325	150.380	-0.180	0.320
-407.311	123.138	0.113	-0.185
-406.296	112.088	-0.064	-0.101
-405.282	-99.757	-0.307	0.100
-404.267	-200.000	0.010	-0.075
-403.252	800.000	0.051	0.263
-402.238	-6.024	0.238	-0.213
-401.223	-115.653	-0.195	0.048
-400.209	-41.926	0.204	-0.137
-399.194	761.051	0.133	0.474
-398.179	-47.828	0.066	-0.042
-397.165	800.000	-0.059	0.252
-396.150	13.764	-0.347	0.353
-395.136	-152.951	0.277	0.025
-394.121	242.587	0.205	-0.450
-393.106	101.502	-0.413	-0.631
-392.092	-29.774	-0.216	0.161
-391.077	-47.199	0.381	0.243
-390.063	368.304	0.105	-0.279
-389.048	-200.000	-0.081	-0.502
-388.033	-133.538	0.188	-0.031
-387.019	-200.000	-0.012	-0.132
-386.004	-200.000	-0.124	0.000
-384.990	-150.192	-0.275	-0.028
-383.975	4.055	-0.166	0.158
-382.960	355.936	0.073	0.191
-381.946	11.219	0.262	0.262
-380.931	-79.954	0.242	-0.106
-379.917	800.000	-0.055	0.308
-378.902	97.797	-0.252	0.379
-377.888	-200.000	0.023	0.219
-376.873	18.798	-0.247	0.259
-375.858	-57.890	-0.555	0.316
-374.844	18.985	-0.146	-0.154
-373.829	-200.000	-0.006	-0.273
-372.815	16.152	0.174	0.179
-371.800	3.783	-0.181	-0.172
-370.785	-85.805	-0.214	0.086
-369.771	35.722	-0.287	-0.330
-368.756	-143.391	0.355	0.044
-367.742	-99.108	0.494	0.163
-366.727	52.977	0.256	-0.320
-365.712	-72.210	0.610	-0.295
-364.698	-138.634	0.554	-0.078
-363.683	-75.217	-0.383	-0.178
-362.669	24.990	-0.391	-0.424
-361.654	-79.593	-0.383	0.168
-360.639	230.194	-0.022	0.046
-359.625	-181.026	0.521	-0.013
-358.610	-112.763	0.239	-0.062
-357.596	-200.000	-0.053	-0.500
-356.581	228.362	0.216	-0.461
-355.566	-138.269	0.047	0.007
-354.552	-200.000	-0.014	0.439
-353.537	-13.052	0.217	-0.184
-352.523	-11.883	-0.041	0.035
-351.508	8.617	-0.035	0.034
-350.493	-200.000	0.012	-0.181
-349.479	4.940	0.166	0.159
-348.464	290.890	0.049	0.116
-347.450	73.224	-0.363	0.497
-346.435	-180.711	0.337	0.009
-345.420	-98.148	0.392	0.131
-344.406	18.085	0.310	-0.323
-343.391	-96.763	-0.180	-0.061
-342.377	-200.000	-0.002	0.124
-341.362	-200.000	0.012	-0.170
-340.348	75.942	0.236	-0.327
-339.333	-88.406	0.542	0.210
-338.318	-30.926	-0.347	0.255
-337.304	-142.972	-0.009	0.001
-336.289	11.467	0.539	-0.540
-335.275	-25.513	0.459	-0.353
-334.260	800.000	0.039	0.181
-333.245	6.627	-0.100	-0.097
-332.231	-132.929	0.233	-0.038
-331.216	49.483	0.365	0.449
-330.202	164.548	0.132	-0.244
-329.187	1.516	0.247	-0.232
-328.172	-200.000	0.015	0.144
-327.158	-92.799	-0.543	-0.197
-326.143	-34.596	0.391	-0.279
-325.129	-37.122	0.222	-0.155
-324.114	-200.000	-0.045	0.367
-323.099	281.929	0.107	0.251
-322.085	-96.096	0.142	0.049
-321.070	-64.157	-0.461	-0.244
-320.056	-33.364	-0.279	0.201
-319.041	-18.797	0.256	0.208
-318.026	390.059	0.134	0.365
-317.012	-161.432	-0.098	0.007
-315.997	-68.142	0.170	-0.086
-314.983	-50.252	0.160	0.098
-313.968	72.487	-0.159	-0.216
-312.953	49.366	0.133	-0.163
-311.939	-200.000	-0.041	-0.276
-310.924	78.690	-0.074	-0.104
-309.910	-113.364	0.120	0.031
-308.895	-45.216	0.208	0.134
-307.880	-40.865	-0.516	0.348
-306.866	-39.674	-0.367	-0.250
-305.851	-97.863	-0.109	0.037
-304.837	-121.656	0.157	0.034
-303.822	-18.370	-0.161	0.131
-302.807	-200.000	0.003	-0.428
-301.793	566.646	-0.028	-0.088
-300.778	141.790	-0.169	-0.294
-299.764	-90.622	0.244	0.091
-298.749	3.370	-0.067	-0.064
-297.735	-24.997	-0.177	0.137
-296.720	-134.940	0.398	0.062
-295.705	-132.273	0.616	-0.103
-294.691	42.190	-0.211	-0.250
-293.676	-11.640	-0.098	0.084
-292.662	-200.000	0.059	-0.495
-291.647	398.334	0.192	-0.525
-290.632	108.089	-0.202	-0.315
-289.618	-123.969	0.544	0.111
-288.603	126.762	-0.046	-0.077
-287.589	-200.000	-0.048	0.859
-286.574	800.000	-0.032	0.139
-285.559	-161.555	0.231	0.015
-284.545	-44.821	0.472	-0.306
-283.530	-154.227	0.215	0.019
-282.516	150.678	0.160	0.285
-281.501	-145.046	-0.353	-0.041
-280.486	-33.972	-0.455	-0.326
-279.472	-178.625	-0.227	0.007
-278.457	-60.626	-0.057	-0.032
-277.443	34.075	0.099	-0.112
-276.428	226.222	0.175	0.370
-275.413	-111.536	-0.462	-0.121
-274.399	612.482	0.119	-0.392
-273.384	-3.080	-0.366	0.333
-272.370	-200.000	0.023	0.322
-271.355	-4.153	0.144	0.130
-270.340	118.806	-0.116	-0.187
-269.326	446.024	0.175	0.504
-268.311	800.000	0.060	0.274
-267.297	-200.000	-0.003	-0.258
-266.282	-27.384	-0.264	-0.200
-265.267	575.174	0.084	-0.269
-264.253	-73.763	0.321	0.151
-263.238	-139.700	0.513	0.070
-262.224	-146.666	-0.321	-0.036
-261.209	18.205	0.239	0.248
-260.195	199.369	0.197	0.395
-259.180	800.000	0.010	0.046
-258.165	84.829	-0.056	-0.080
-257.151	-200.000	0.006	-0.186
-256.136	323.856	-0.156	-0.391
-255.122	-2.081	-0.373	0.341
-254.107	-118.692	-0.417	0.095
-253.092	-160.906	0.213	0.014
-252.078	-117.071	-0.330	0.078
-251.063	-155.671	0.397	0.033
-250.049	50.370	0.277	0.342
-249.034	-130.533	-0.718	-0.125
-248.019	-59.514	-0.328	-0.183
-247.005	-45.293	0.177	-0.114
-245.990	109.014	0.260	-0.405
-244.976	-71.311	-0.201	0.098
-243.961	35.601	-0.371	0.424
-242.946	800.000	0.103	0.579
-241.932	800.000	0.030	0.144
-240.917	-151.100	-0.255	0.025
-239.903	15.920	-0.119	0.122
-238.888	461.420	-0.050	0.145
-237.873	-45.331	-0.419	0.270
-236.859	-56.129	-0.536	0.310
-235.844	-68.108	-0.077	-0.039
-234.830	800.000	-0.018	-0.095
-233.815	-141.164	0.242	-0.032
-232.800	-188.341	0.396	0.006
-231.786	21.194	0.119	-0.125
-230.771	800.000	-0.064	-0.269
-229.757	413.956	-0.013	0.035
-228.742	321.031	0.008	0.020
-227.727	-78.411	0.217	0.096
-226.713	-59.063	-0.192	0.108
-225.698	745.314	-0.083	0.291
-224.684	800.000	0.079	-0.286
-223.669	800.000	0.078	0.406
-222.655	-94.465	-0.126	-0.044
-221.640	168.432	0.137	0.254
-220.625	242.311	0.076	-0.166
-219.611	-16.771	0.438	0.360
-218.596	-111.143	0.221	0.058
-217.582	-47.588	-0.239	-0.150
-216.567	-40.116	-0.226	-0.153
-215.552	-160.841	-0.281	0.019
-214.538	-2.107	0.062	0.057
-213.523	-200.000	-0.007	-0.093
-212.509	128.373	0.218	-0.362
-211.494	-112.715	-0.198	-0.051
-210.479	800.000	-0.050	0.227
-209.465	-200.000	0.011	-0.069
-208.450	66.709	0.387	-0.513
-207.436	-7.703	0.270	0.237
-206.421	-69.420	-0.338	0.168
-205.406	33.804	-0.273	0.309
-204.392	-200.000	-0.025	-0.170
-203.377	332.630	-0.054	0.137
-202.363	6.889	-0.307	0.297
-201.348	-74.951	0.271	0.126
-200.333	800.000	-0.084	0.307
-199.319	-200.000	0.055	0.349
-198.304	101.212	0.157	0.237
-197.290	262.184	-0.302	0.682
-196.275	-168.158	-0.068	0.003
-195.260	-200.000	0.014	-0.199
-194.246	-38.799	-0.543	-0.371
-193.231	-27.432	0.217	-0.163
-192.217	-176.470	0.496	-0.016
-191.202	225.115	0.059	-0.125
-190.187	-200.000	0.023	0.459
-189.173	225.257	-0.171	0.361
-188.158	-87.269	-0.521	0.204
-187.144	-200.000	0.013	-0.159
-186.129	64.899	0.268	-0.352
-185.114	-101.177	-0.321	-0.101
-184.100	-3.024	-0.265	-0.240
-183.085	-200.000	0.025	0.403
-182.071	-200.000	0.014	-0.330
-181.056	-35.285	-0.255	0.180
-180.042	-200.000	-0.019	-0.162
-179.027	-76.017	0.190	-0.087
-178.012	800.000	0.028	0.103
-176.998	-154.092	0.461	0.040
-175.983	-29.658	0.336	-0.248
-174.969	17.014	0.109	0.112
-173.954	800.000	-0.069	-0.361
-172.939	333.079	-0.035	-0.088
-171.925	-163.378	0.088	-0.005
-170.910	800.000	0.119	0.563
-169.896	51.521	-0.367	0.453
-168.881	-129.194	0.291	-0.052
-167.866	-200.000	-0.022	0.236
-166.852	4.362	-0.166	-0.158
-165.837	-65.371	0.490	-0.255
-164.823	-68.115	0.693	-0.349
-163.808	77.500	0.178	-0.246
-162.793	-40.686	-0.438	0.294
-161.779	-90.348	-0.315	0.118
-160.764	129.729	0.223	-0.370
-159.750	-198.962	-0.201	-0.001
-158.735	-135.746	0.433	-0.066
-157.720	47.102	0.199	0.240
-156.706	117.357	0.135	-0.215
-155.691	41.868	0.081	0.095
-154.677	-24.265	-0.220	-0.170
-153.662	-128.417	-0.613	0.112
-152.647	-51.678	0.461	0.278
-151.633	-11.593	0.202	0.172
-150.618	-22.067	-0.164	-0.129
-149.604	-76.099	-0.325	-0.148
-148.589	800.000	0.032	0.118
-147.574	-10.927	-0.561	-0.480
-146.560	-113.476	0.166	-0.042
-145.545	-37.989	-0.226	0.155
-144.531	-111.415	0.517	0.135
-143.516	238.390	-0.215	-0.466
-142.502	611.039	-0.045	-0.147
-141.487	-41.561	0.291	-0.194
-140.472	-106.999	0.237	-0.067
-139.458	-200.000	-0.025	0.250
-138.443	-164.338	-0.353	-0.021
-137.429	478.661	0.183	-0.541
-136.414	-95.572	0.509	0.176
-135.399	92.326	-0.291	-0.426
-134.385	-151.842	-0.298	0.028
-133.370	-85.299	0.289	-0.116
-132.356	4.749	0.189	-0.180
-131.341	2.479	-0.192	-0.180
-130.326	0.719	-0.258	-0.239
-129.312	46.970	-0.269	-0.325
-128.297	-200.000	0.068	-0.609
-127.283	800.000	-0.100	-0.406
-126.268	-26.317	0.231	0.175
-125.253	-104.524	-0.287	-0.085
-124.239	-159.512	-0.289	0.021
-123.224	-200.000	-0.010	0.371
-122.210	328.835	0.047	-0.118
-121.195	-29.926	0.098	0.072
-120.180	-100.641	-0.352	-0.112
-119.166	-148.331	0.944	0.099
-118.151	129.201	-0.134	-0.222
-117.137	-57.174	-0.056	-0.032
-116.122	217.818	-0.087	-0.180
-115.107	24.351	-0.218	-0.233
-114.093	250.389	0.308	-0.681
-113.078	-121.962	-0.505	-0.107
-112.064	391.813	-0.237	0.640
-111.049	-192.754	0.350	0.004
-110.034	-26.136	0.423	0.321
-109.020	-50.135	-0.467	-0.286
-108.005	-188.475	-0.295	-0.005
-106.991	138.563	0.248	-0.423
-105.976	-200.000	-0.054	0.365
-104.962	-144.727	-0.191	-0.022
-103.947	411.821	0.052	0.144
-102.932	-60.093	-0.229	-0.126
-101.918	34.229	0.039	0.044
-100.903	800.000	0.046	-0.182
-99.889	10.030	0.322	-0.316
-98.874	-200.000	-0.017	-0.160
-97.859	68.910	-0.095	0.126
-96.845	-79.891	-0.573	-0.248
-95.830	-117.947	0.520	0.120
-94.816	800.000	-0.124	-0.589
-93.801	-115.177	-0.376	0.092
-92.786	470.562	0.110	0.323
-91.772	20.319	0.429	-0.448
-90.757	230.267	-0.040	-0.085
-89.743	-79.840	-0.251	0.109
-88.728	-28.156	0.239	0.178
-87.713	-112.706	-0.584	0.149
-86.699	-163.466	-0.162	-0.010
-85.684	-38.809	0.379	-0.258
-84.670	215.257	-0.310	0.639
-83.655	117.346	0.159	0.254
-82.640	-62.604	0.246	-0.131
-81.626	-200.000	0.062	0.364
-80.611	573.166	0.217	-0.689
-79.597	72.295	-0.132	0.178
-78.582	-66.723	0.604	0.308
-77.567	800.000	0.108	0.466
-76.553	-61.333	0.216	0.117
-75.538	-138.423	-0.158	-0.022
-74.524	-164.716	-0.408	-0.023
-73.509	-137.810	-0.207	-0.030
-72.494	-161.062	-0.497	-0.033
-71.480	-74.988	-0.141	-0.065
-70.465	-200.000	-0.035	-0.209
-69.451	198.572	0.121	0.240
-68.436	568.700	-0.126	0.398
-67.422	-175.443	-0.464	0.016
-66.407	-25.479	-0.107	0.082
-65.392	91.370	-0.191	-0.278
-64.378	136.116	0.359	-0.606
-63.363	-200.000	-0.055	0.325
-62.349	-101.464	0.142	-0.044
-61.334	27.072	-2.257	-2.448
-60.319	55.911	1.240	1.556
-59.305	248.428	-3.382	-7.422
-58.290	75.869	3.964	5.422
-57.276	329.803	3.947	9.857
-56.261	-200.000	25.278	319.677
-55.246	357.286	1300.319	3366.010
-54.232	53.649	2840.222	3524.935
-53.217	51.750	2659.658	3271.403
-52.203	32.109	2388.951	2661.944
-51.188	27.937	2054.758	2238.215
-50.173	24.480	1942.185	2075.201
-49.159	23.389	1930.924	2050.406
-48.144	23.066	1925.479	2040.796
-47.130	22.987	1922.313	2036.438
-46.115	23.080	1920.621	2035.638
-45.100	22.892	1919.849	2032.575
-44.086	22.872	1918.576	2030.905
-43.071	22.845	1916.749	2028.581
-42.057	22.830	1915.378	2026.882
-41.042	22.810	1913.786	2024.878
-40.027	22.932	1912.066	2024.386
-39.013	22.694	1912.254	2021.768
-37.998	22.843	1909.909	2020.920
-36.984	22.906	1909.000	2020.607
-35.969	22.889	1906.756	2017.947
-34.954	22.824	1906.308	2016.653
-33.940	22.738	1905.209	2014.427
-32.925	22.810	1903.372	2013.218
-31.911	22.764	1902.178	2011.351
-30.896	22.849	1900.556	2010.527
-29.881	22.794	1899.318	2008.514
-28.867	22.709	1898.488	2006.579
-27.852	22.743	1896.129	2004.405
-26.838	22.632	1895.963	2002.878
-25.823	22.776	1893.471	2001.803
-24.809	22.667	1892.443	1999.400
-23.794	22.717	1891.430	1998.818
-22.779	22.604	1890.910	1996.902
-21.765	22.702	1888.505	1995.403
-20.750	22.783	1887.744	1995.433
-19.736	22.752	1886.442	1993.630
-18.721	22.728	1885.429	1992.212
-17.706	22.698	1883.913	1990.182
-16.692	22.563	1882.721	1987.321
-15.677	22.591	1882.098	1986.898
-14.663	22.600	1881.258	1986.029
-13.648	22.594	1879.625	1984.166
-12.633	22.632	1878.113	1982.918
-11.619	22.633	1877.067	1981.749
-10.604	22.593	1875.690	1979.765
-9.590	22.567	1874.260	1977.884
-8.575	22.509	1872.979	1975.800
-7.560	22.520	1871.946	1974.757
-6.546	22.594	1871.163	1974.685
-5.531	22.558	1870.267	1973.248
-4.517	22.582	1867.582	1970.608
-3.502	22.588	1867.523	1970.537
-2.487	22.679	1866.277	1970.163
-1.473	22.715	1862.673	1966.694
-0.458	22.474	1844.669	1944.922
0.556	19.102	1990.648	2046.343
1.571	17.666	2193.110	2235.286
2.586	18.440	2232.689	2285.738
3.600	18.491	2235.436	2288.948
4.615	18.455	2234.164	2286.892
5.629	18.445	2231.953	2284.231
6.644	18.432	2230.028	2281.802
7.659	18.384	2229.482	2280.332
8.673	18.490	2226.300	2278.216
9.688	18.203	2234.878	2282.878
10.702	16.970	2314.351	2346.637
11.717	15.298	2378.900	2387.878
12.731	7.340	2359.141	2254.412
13.746	0.924	2342.732	2147.188
14.761	0.222	2339.053	2133.564
15.775	0.127	2337.476	2130.515
16.790	0.011	2336.169	2127.416
17.804	-0.038	2334.253	2124.723
18.819	0.010	2333.715	2124.668
19.834	0.041	2332.027	2123.314
20.848	0.038	2330.342	2121.478
21.863	0.006	2329.437	2119.952
22.877	-0.018	2326.671	2116.846
23.892	-0.012	2324.785	2114.961
24.907	-0.035	2322.268	2112.093
25.921	-0.061	2320.620	2109.971
26.936	0.028	2317.923	2108.514
27.950	0.092	2314.624	2106.164
28.965	0.012	2313.597	2103.860
29.980	0.008	2311.907	2102.004
30.994	0.112	2309.872	2101.372
32.009	3.892	2321.806	2165.228
33.023	13.099	2347.860	2319.786
34.038	16.831	2354.359	2378.670
35.053	17.041	2351.089	2378.038
36.067	17.171	2348.832	2377.309
37.082	17.048	2346.848	2373.287
38.096	17.071	2344.991	2371.448
39.111	17.256	2342.609	2371.344
40.126	17.375	2341.691	2371.809
41.140	17.520	2340.117	2371.954
42.155	17.362	2338.066	2367.388
43.169	17.356	2335.939	2364.860
44.184	17.341	2332.445	2360.833
45.199	17.295	2330.831	2358.271
46.213	17.326	2329.743	2357.323
47.228	17.402	2328.355	2356.692
48.242	17.352	2326.492	2353.837
49.257	17.375	2324.915	2352.275
50.271	17.473	2322.550	2350.957
51.286	17.345	2319.910	2346.232
52.301	17.193	2318.827	2342.743
53.315	17.815	2319.883	2352.157
54.330	19.793	2325.131	2384.642
55.344	20.996	2325.557	2401.458
56.359	21.187	2322.407	2400.548
57.374	21.290	2322.032	2401.303
58.388	21.432	2319.179	2400.025
59.403	21.303	2315.959	2394.622
60.417	21.183	2312.137	2388.737
61.432	21.358	2311.557	2390.262
62.447	21.520	2309.912	2390.494
63.461	21.624	2308.742	2390.421
64.476	21.709	2305.926	2388.382
65.490	21.520	2303.887	2383.397
66.505	20.915	2300.449	2371.293
67.520	19.364	2294.435	2343.638
68.534	17.687	2287.713	2313.631
69.549	17.321	2283.387	2303.991
70.563	17.305	2281.047	2301.132
71.578	17.262	2279.860	2299.086
72.593	17.291	2278.789	2298.120
73.607	17.366	2277.205	2297.269
74.622	17.323	2274.854	2294.037
75.636	17.279	2271.456	2289.737
76.651	17.203	2269.644	2286.613
77.666	17.162	2268.903	2285.036
78.680	17.269	2264.867	2282.147
79.695	17.141	2263.309	2278.566
80.709	16.952	2263.077	2275.511
81.724	17.078	2260.571	2274.424
82.739	17.085	2257.966	2271.626
83.753	17.106	2254.906	2268.551
84.768	17.104	2253.454	2266.791
85.782	16.996	2253.137	2264.758
86.797	17.122	2250.842	2263.867
87.812	17.152	2248.624	2261.766
88.826	17.124	2246.962	2259.451
89.841	17.109	2244.557	2256.557
90.855	17.146	2242.201	2254.418
91.870	17.106	2240.809	2252.217
92.884	17.132	2239.245	2250.715
93.899	17.145	2237.917	2249.286
94.914	17.561	2240.042	2256.700
95.928	19.401	2246.293	2287.274
96.943	20.035	2244.203	2293.303
97.957	18.317	2235.204	2261.050
98.972	17.144	2230.952	2240.925
99.987	17.041	2227.403	2235.737
101.001	17.097	2223.966	2232.756
102.016	16.968	2223.098	2229.917
103.030	17.005	2220.850	2227.886
104.045	17.145	2217.725	2226.328
105.060	17.081	2216.011	2223.488
106.074	17.147	2214.054	2222.129
107.089	17.058	2212.840	2219.474
108.103	17.123	2211.492	2218.714
109.118	17.100	2210.398	2217.050
110.133	17.217	2208.551	2216.471
111.147	17.178	2206.203	2213.330
112.162	17.222	2204.898	2212.333
113.176	17.300	2202.253	2210.436
114.191	17.212	2201.847	2208.617
115.206	17.210	2200.527	2206.994
116.220	17.235	2197.753	2204.275
117.235	17.281	2196.236	2203.092
118.249	17.167	2193.738	2198.838
119.264	17.295	2192.107	2198.610
120.279	17.342	2190.882	2197.728
121.293	17.360	2188.291	2195.095
122.308	17.226	2187.803	2192.610
123.322	17.092	2187.551	2190.352
124.337	17.511	2187.669	2195.644
125.352	19.662	2193.004	2228.655
126.366	20.022	2190.859	2230.865
127.381	18.072	2182.530	2196.948
128.395	17.220	2177.205	2180.344
129.410	17.185	2175.549	2177.971
130.424	17.115	2174.515	2175.776
131.439	17.143	2171.258	2172.609
132.454	17.138	2170.054	2171.079
133.468	17.043	2169.235	2168.782
134.483	17.133	2166.935	2167.382
135.497	17.338	2164.131	2166.946
136.512	17.111	2163.206	2162.846
137.527	17.120	2161.396	2160.897
138.541	17.104	2158.999	2158.035
139.556	17.113	2158.983	2157.880
140.570	17.185	2156.954	2156.513
141.585	16.993	2155.651	2152.500
142.600	17.028	2153.503	2150.547
143.614	17.064	2151.924	2149.166
144.629	16.986	2149.596	2145.596
145.643	16.851	2149.350	2143.377
146.658	16.890	2147.568	2141.832
147.673	16.887	2145.828	2139.804
148.687	16.950	2144.812	2139.343
149.702	17.101	2143.321	2139.505
150.716	17.017	2141.404	2136.275
151.731	17.146	2140.071	2136.317
152.746	17.121	2139.599	2135.281
153.760	17.645	2141.891	2143.933
154.775	19.794	2146.146	2175.129
155.789	20.146	2145.103	2178.266
156.804	18.321	2135.432	2145.215
157.819	17.145	2130.046	2124.776
158.833	17.011	2127.578	2120.377
159.848	17.196	2125.362	2120.235
160.862	17.233	2124.577	2119.659
161.877	17.214	2122.685	2117.284
162.892	17.159	2121.808	2115.467
163.906	17.242	2120.532	2114.979
164.921	17.289	2118.913	2113.695
165.935	17.101	2117.003	2109.194
166.950	17.164	2115.996	2108.716
167.964	17.136	2113.251	2105.386
168.979	17.188	2110.414	2102.951
169.994	17.129	2109.098	2100.659
171.008	17.143	2107.592	2099.073
172.023	17.090	2106.499	2097.082
173.037	17.082	2105.592	2095.830
174.052	17.082	2103.278	2093.273
175.067	17.156	2102.394	2093.055
176.081	17.117	2101.173	2091.110
177.096	17.280	2098.380	2090.097
178.110	17.153	2097.090	2086.995
179.125	17.226	2096.107	2086.657
180.140	17.294	2095.264	2086.411
181.154	17.263	2093.539	2084.062
182.169	17.185	2092.418	2081.738
183.183	17.677	2094.671	2089.788
184.198	19.939	2098.689	2121.443
185.213	20.306	2097.199	2124.198
186.227	18.174	2089.856	2090.347
187.242	17.312	2086.378	2076.043
188.256	17.166	2084.071	2071.708
189.271	17.130	2082.820	2069.775
190.286	17.137	2080.774	2067.585
191.300	17.112	2078.025	2064.298
192.315	17.124	2076.976	2063.149
193.329	17.187	2075.925	2062.633
194.344	17.361	2075.108	2063.691
195.359	17.374	2073.907	2062.414
196.373	17.255	2071.895	2058.719
197.388	17.176	2068.515	2054.146
198.402	17.172	2066.485	2051.840
199.417	17.082	2064.287	2048.324
200.432	17.019	2063.173	2046.213
201.446	17.122	2062.696	2046.737
202.461	17.082	2059.005	2042.344
203.475	17.023	2058.585	2040.972
204.490	17.176	2056.123	2040.136
205.504	17.077	2053.862	2036.455
206.519	17.105	2051.736	2034.436
207.534	17.064	2050.392	2032.375
208.548	17.070	2049.105	2030.927
209.563	17.065	2048.317	2029.837
210.577	17.202	2046.379	2029.315
211.592	17.245	2045.915	2029.133
212.607	18.212	2049.857	2044.414
213.621	20.650	2055.225	2078.854
214.636	20.129	2050.410	2067.482
215.650	17.848	2041.907	2031.405
216.665	17.203	2039.079	2020.641
217.680	17.167	2037.588	2018.494
218.694	17.156	2035.837	2016.383
219.709	17.022	2035.130	2013.840
220.723	17.201	2033.212	2013.840
221.738	17.251	2031.087	2012.083
222.753	17.193	2029.186	2009.274
223.767	17.199	2028.065	2007.989
224.782	17.099	2026.921	2005.434
225.796	17.169	2024.682	2003.804
226.811	17.212	2023.648	2003.058
227.826	17.187	2021.765	2000.656
228.840	17.255	2020.553	2000.023
229.855	17.183	2019.058	1997.453
230.869	17.207	2017.334	1995.787
231.884	17.137	2015.945	1993.353
232.899	17.146	2014.183	1991.472
233.913	17.103	2013.358	1989.919
234.928	17.064	2012.062	1987.931
235.942	17.225	2009.851	1987.410
236.957	17.113	2008.734	1984.751
237.972	17.132	2007.748	1983.764
238.986	17.075	2006.326	1981.454
240.001	17.190	2004.982	1981.231
241.015	17.206	2003.743	1979.960
242.030	17.693	2005.055	1986.727
243.045	19.593	2009.177	2012.846
244.059	19.829	2005.917	2012.108
245.074	17.931	1998.131	1981.929
246.088	17.188	1994.472	1969.404
247.103	17.299	1992.780	1968.793
248.117	17.316	1991.850	1967.841
249.132	17.130	1990.630	1964.230
250.147	17.146	1988.823	1962.398
251.161	17.154	1986.968	1960.433
252.176	17.309	1985.752	1960.786
253.190	17.399	1984.570	1960.426
254.205	17.445	1981.841	1958.037
255.220	17.403	1980.268	1955.762
256.234	17.307	1979.811	1953.968
257.249	17.269	1978.830	1952.318
258.263	17.239	1977.428	1950.361
259.278	17.329	1976.066	1949.826
260.293	17.213	1973.897	1946.112
261.307	17.108	1972.729	1943.520
262.322	16.950	1970.880	1939.648
263.336	17.079	1969.046	1939.098
264.351	16.941	1967.519	1935.771
265.366	17.037	1966.144	1935.285
266.380	17.099	1965.028	1934.674
267.395	17.014	1963.814	1932.270
268.409	17.071	1961.616	1930.529
269.424	17.163	1960.029	1929.782
270.439	17.113	1959.658	1928.623
271.453	17.840	1960.828	1937.840
272.468	19.804	1965.720	1964.890
273.482	19.958	1961.700	1962.389
274.497	17.977	1953.779	1931.737
275.512	17.168	1949.538	1918.131
276.526	17.027	1948.323	1915.109
277.541	17.105	1945.810	1913.296
278.555	16.972	1944.648	1910.414
279.570	16.928	1943.542	1908.605
280.585	17.036	1941.243	1907.341
281.599	17.191	1939.874	1907.513
282.614	17.146	1939.660	1906.566
283.628	17.349	1938.291	1907.279
284.643	17.428	1937.170	1906.841
285.657	17.467	1935.829	1905.734
286.672	17.483	1934.674	1904.549
287.687	17.463	1933.215	1902.653
288.701	17.292	1932.675	1899.973
289.716	17.315	1930.511	1897.878
290.730	17.298	1928.805	1895.784
291.745	17.458	1927.326	1895.898
292.760	17.367	1926.320	1893.657
293.774	17.222	1926.364	1891.857
294.789	17.324	1925.047	1891.479
295.803	17.200	1922.104	1886.971
296.818	17.003	1921.323	1883.782
297.833	17.216	1919.884	1884.523
298.847	17.137	1917.916	1881.489
299.862	17.196	1916.955	1880.978
300.876	17.804	1917.362	1887.913
301.891	19.947	1921.710	1915.832
302.906	20.445	1918.927	1918.354
303.920	18.241	1913.202	1887.992
304.935	17.251	1910.537	1874.166
305.949	17.239	1907.729	1871.049
306.964	17.270	1905.764	1869.246
307.979	17.268	1904.015	1867.279
308.993	17.500	1902.198	1867.833
310.008	17.456	1902.165	1867.098
311.022	17.369	1899.996	1863.783
312.037	17.376	1898.534	1862.208
313.052	17.304	1896.837	1859.528
314.066	17.497	1895.353	1859.965
315.081	17.451	1894.563	1858.459
316.095	17.500	1893.251	1857.488
317.110	17.438	1891.104	1854.485
318.125	17.289	1890.554	1852.095
319.139	17.352	1888.554	1850.601
320.154	17.407	1886.645	1849.112
321.168	17.422	1885.460	1847.890
322.183	17.204	1884.712	1844.560
323.197	17.043	1882.593	1840.509
324.212	16.948	1881.008	1837.701
325.227	16.994	1879.221	1836.232
326.241	17.042	1877.541	1834.897
327.256	17.023	1876.009	1832.970
328.270	17.062	1875.487	1832.662
329.285	17.130	1875.607	1833.305
330.300	17.861	1879.166	1844.500
331.314	20.250	1882.232	1873.259
332.329	20.107	1877.286	1866.564
333.343	17.989	1869.166	1835.417
334.358	17.236	1866.544	1824.491
335.373	17.247	1864.716	1822.608
336.387	17.053	1863.890	1819.495
337.402	17.011	1862.873	1817.826
338.416	16.985	1860.960	1815.469
339.431	17.207	1859.597	1816.306
340.446	17.271	1857.861	1815.078
341.460	17.157	1857.082	1812.880
342.475	17.337	1855.428	1812.978
343.489	17.297	1854.029	1810.963
344.504	17.271	1852.892	1809.355
345.519	17.577	1851.584	1811.132
346.533	17.515	1849.812	1808.522
347.548	17.522	1849.818	1808.391
348.562	17.411	1848.023	1805.229
349.577	17.492	1847.127	1805.000
350.592	17.495	1846.219	1803.931
351.606	17.553	1844.205	1802.365
352.621	17.657	1841.475	1800.583
353.635	17.413	1840.116	1796.456
354.650	17.263	1838.914	1793.473
355.665	17.268	1837.208	1791.648
356.679	17.224	1836.140	1789.929
357.694	17.300	1834.630	1789.039
358.708	17.248	1833.898	1787.560
359.723	18.233	1836.689	1800.493
360.738	20.267	1840.025	1825.076
361.752	19.725	1835.835	1814.988
362.767	17.839	1829.364	1788.521
363.781	17.170	1826.837	1778.795
364.796	17.139	1825.133	1776.596
365.810	17.083	1823.923	1774.617
366.825	17.138	1823.566	1774.633
367.840	17.262	1822.412	1774.598
368.854	17.313	1820.927	1773.483
369.869	17.235	1818.545	1770.128
370.883	16.974	1817.707	1766.371
371.898	17.127	1816.016	1766.117
372.913	17.107	1814.889	1764.600
373.927	17.200	1814.277	1764.765
374.942	17.179	1813.066	1763.151
375.956	17.235	1811.807	1762.300
376.971	17.138	1809.589	1758.923
377.986	16.983	1808.093	1755.646
379.000	17.119	1806.143	1754.957
380.015	17.401	1805.152	1756.718
381.029	17.311	1803.729	1754.190
382.044	17.155	1801.750	1750.430
383.059	17.076	1800.392	1748.087
384.073	17.134	1799.544	1747.658
385.088	17.121	1798.316	1746.121
386.102	17.023	1796.624	1743.258
387.117	16.984	1794.958	1741.023
388.132	17.035	1793.879	1740.300
389.146	17.768	1798.065	1751.717
390.161	20.189	1801.162	1779.531
391.175	19.881	1794.485	1769.559
392.190	17.717	1787.202	1739.983
393.205	17.097	1784.184	1730.492
394.219	17.240	1782.994	1730.591
395.234	17.125	1781.915	1728.165
396.248	17.137	1781.084	1727.278
397.263	17.063	1778.454	1723.765
398.278	17.095	1776.810	1722.284
399.292	17.098	1776.373	1721.688
400.307	17.215	1775.991	1722.304
401.321	17.341	1773.977	1721.431
402.336	17.307	1772.203	1719.152
403.350	17.165	1771.258	1716.593
404.365	17.399	1770.050	1717.591
405.380	17.591	1769.355	1718.656
406.394	17.633	1768.321	1717.872
407.409	17.562	1767.159	1715.812
408.423	17.553	1765.313	1713.725
409.438	17.500	1763.908	1711.628
410.453	17.486	1763.105	1710.501
411.467	17.567	1761.682	1709.727
412.482	17.496	1759.461	1706.659
413.496	17.427	1758.429	1704.755
414.511	17.477	1756.488	1703.176
415.526	17.167	1753.753	1697.199
416.540	17.195	1752.478	1696.041
417.555	17.136	1752.777	1695.544
418.569	17.307	1752.323	1696.618
419.584	17.301	1752.205	1696.239
420.599	17.482	1752.492	1698.124
421.613	17.072	1751.523	1692.878
422.628	17.473	1748.866	1694.119
423.642	17.274	1747.765	1690.853
424.657	17.277	1746.211	1689.181
425.672	17.391	1744.368	1688.334
426.686	17.352	1742.544	1685.978
427.701	17.272	1742.067	1684.515
428.715	17.228	1740.541	1682.398
429.730	17.340	1739.363	1682.175
430.745	17.402	1737.477	1680.764
431.759	17.482	1736.954	1680.850
432.774	17.413	1737.031	1680.041
433.788	17.636	1736.662	1681.701
434.803	17.915	1735.164	1682.807
435.818	17.946	1734.904	1682.662
436.832	17.649	1735.086	1679.693
437.847	16.594	1728.160	1662.379
438.861	9.286	1707.724	1570.963
439.876	1.687	1693.225	1483.222
440.890	0.293	1689.523	1466.175
441.905	0.166	1688.877	1464.194
442.920	0.223	1687.416	1463.309
443.934	0.105	1686.025	1460.780
444.949	0.161	1685.023	1460.279
445.963	0.032	1684.068	1458.020
446.978	-0.010	1683.969	1457.353
447.993	0.057	1682.371	1456.442
449.007	0.207	1678.771	1454.607
450.022	0.097	1677.425	1452.199
451.036	0.128	1676.350	1451.395
452.051	1.161	1680.550	1464.891
453.066	8.769	1696.732	1553.200
454.080	15.977	1709.073	1634.847
455.095	17.458	1710.533	1650.500
456.109	17.798	1710.837	1653.908
457.124	18.119	1709.021	1655.076
458.139	17.942	1708.752	1652.893
459.153	17.770	1707.413	1649.735
460.168	17.820	1705.379	1648.057
461.182	17.593	1704.742	1645.042
462.197	17.847	1701.370	1644.049
463.212	17.586	1700.717	1640.696
464.226	17.708	1699.974	1640.959
465.241	17.667	1698.314	1638.764
466.255	17.890	1696.459	1638.931
467.270	17.790	1696.469	1637.785
468.285	17.778	1694.141	1635.221
469.299	17.524	1693.535	1631.997
470.314	17.595	1692.118	1631.114
471.328	17.746	1689.892	1630.224
472.343	17.726	1689.010	1628.991
473.358	17.688	1688.543	1627.977
474.372	17.779	1686.978	1627.149
475.387	17.761	1685.500	1625.350
476.401	17.839	1683.815	1624.279
477.416	17.806	1683.500	1623.470
478.430	17.809	1682.259	1622.108
479.445	17.770	1680.090	1619.447
480.460	17.555	1679.167	1616.308
481.474	17.677	1678.358	1616.508
482.489	17.779	1676.962	1615.940
483.503	17.761	1675.253	1613.930
484.518	17.709	1674.926	1612.923
485.533	17.773	1673.417	1611.882
486.547	17.845	1671.593	1610.620
487.562	18.152	1670.375	1612.164
488.576	18.171	1669.203	1611.014
489.591	17.985	1668.402	1608.292
490.606	18.012	1666.237	1606.266
491.620	17.906	1664.692	1603.582
492.635	17.956	1663.647	1602.856
493.649	17.843	1662.978	1600.953
494.664	17.743	1661.020	1597.939
495.679	17.622	1658.898	1594.570
496.693	17.675	1658.193	1594.200
497.708	17.832	1657.373	1594.687
498.722	17.746	1656.903	1593.245
499.737	17.966	1654.940	1593.222
500.752	17.859	1653.376	1590.527
501.766	17.861	1651.560	1588.613
502.781	17.774	1650.364	1586.457
503.795	17.855	1648.348	1585.078
504.810	17.823	1647.591	1583.863
505.825	17.852	1647.979	1584.325
506.839	17.962	1646.012	1583.262
507.854	17.913	1644.518	1581.184
508.868	17.927	1642.786	1579.453
509.883	17.908	1642.695	1579.001
510.898	17.877	1641.191	1577.078
511.912	17.952	1639.023	1575.510
512.927	17.875	1637.497	1573.139
513.941	17.872	1636.367	1571.838
514.956	17.901	1635.685	1571.258
515.971	18.068	1634.062	1571.053
516.985	17.931	1633.001	1568.580
518.000	17.912	1632.576	1567.811
519.014	18.008	1631.700	1567.670
520.029	17.924	1630.369	1565.428
521.043	17.862	1628.266	1562.646
522.058	17.881	1627.155	1561.569
523.073	17.950	1626.627	1561.516
524.087	17.993	1626.462	1561.566
525.102	18.010	1624.090	1559.252
526.116	17.914	1622.470	1556.632
527.131	17.878	1621.625	1555.302
528.146	18.039	1620.508	1555.520
529.160	17.980	1619.666	1553.988
530.175	18.015	1618.622	1553.122
531.189	18.080	1617.435	1552.384
532.204	18.024	1616.659	1550.950
533.219	17.911	1614.894	1548.040
534.233	17.792	1614.211	1546.113
535.248	18.099	1612.707	1547.281
536.262	18.171	1611.845	1546.921
537.277	18.137	1611.293	1545.898
538.292	18.023	1609.149	1542.627
539.306	18.021	1607.971	1541.289
540.321	18.097	1606.677	1540.556
541.335	18.234	1604.638	1539.660
542.350	18.201	1604.203	1538.758
543.365	18.162	1602.310	1536.399
544.379	18.277	1601.171	1536.167
545.394	18.182	1599.558	1533.575
546.408	17.955	1598.637	1530.461
547.423	17.861	1596.843	1527.720
548.438	17.874	1595.578	1526.441
549.452	17.905	1594.918	1525.910
550.467	18.002	1593.730	1525.461
551.481	18.040	1592.183	1524.138
552.496	18.137	1591.902	1524.550
553.511	18.094	1590.662	1522.799
554.525	18.092	1589.786	1521.756
555.540	18.106	1589.159	1521.101
556.554	18.218	1587.979	1520.796
557.569	18.075	1585.833	1517.278
558.583	18.093	1584.442	1515.930
559.598	17.988	1584.167	1514.547
560.613	18.091	1582.903	1514.070
561.627	18.078	1581.965	1512.880
562.642	18.177	1579.918	1511.621
563.656	18.217	1578.515	1510.452
564.671	18.190	1578.058	1509.591
565.686	18.114	1576.070	1506.842
566.700	18.067	1574.275	1504.525
567.715	17.871	1573.471	1501.845
568.729	17.978	1572.100	1501.303
569.744	18.208	1570.157	1501.298
570.759	18.180	1569.264	1500.012
571.773	18.008	1569.206	1498.267
572.788	18.164	1567.513	1497.843
573.802	18.179	1565.277	1495.657
574.817	18.118	1563.941	1493.670
575.832	18.226	1562.691	1493.244
576.846	18.164	1561.638	1491.512
577.861	18.163	1561.113	1490.824
578.875	18.110	1560.356	1489.459
579.890	18.217	1559.508	1489.411
580.905	18.234	1558.561	1488.469
581.919	18.134	1558.449	1487.314
582.934	18.316	1557.359	1487.685
583.948	18.242	1555.232	1484.829
584.963	18.281	1553.641	1483.472
585.978	18.190	1552.230	1481.154
586.992	18.133	1552.265	1480.517
588.007	18.229	1551.582	1480.521
589.021	18.248	1550.837	1479.799
590.036	18.267	1549.492	1478.506
591.051	18.246	1547.717	1476.453
592.065	18.342	1546.164	1475.622
593.080	18.362	1544.636	1474.161
594.094	18.417	1542.597	1472.520
595.109	18.128	1540.526	1467.872
596.123	18.021	1539.252	1465.559
597.138	18.081	1539.057	1465.711
598.153	18.295	1537.182	1465.598
599.167	18.187	1535.881	1463.251
600.182	18.215	1535.696	1463.142
601.196	18.285	1534.537	1462.464
602.211	18.191	1533.274	1460.272
603.226	18.182	1531.958	1458.767
604.240	18.278	1530.785	1458.303
605.255	18.377	1529.991	1458.219
606.269	18.301	1528.817	1456.274
607.284	18.312	1527.150	1454.603
608.299	18.361	1525.976	1453.731
609.313	18.210	1525.230	1451.563
610.328	18.282	1524.091	1450.918
611.342	18.318	1522.132	1449.182
612.357	18.428	1521.066	1448.930
613.372	18.400	1520.808	1448.271
614.386	18.313	1519.538	1446.150
615.401	18.297	1518.450	1444.810
616.415	18.351	1518.002	1444.661
617.430	18.413	1516.955	1444.023
618.445	18.389	1515.901	1442.642
619.459	18.357	1514.342	1440.717
620.474	18.381	1513.188	1439.650
621.488	18.161	1511.988	1436.473
622.503	18.130	1511.274	1435.366
623.518	18.178	1511.084	1435.416
624.532	18.113	1509.213	1432.917
625.547	18.195	1508.692	1432.942
626.561	18.344	1507.355	1432.758
627.576	18.419	1506.319	1432.230
628.591	18.373	1504.786	1430.218
629.605	18.234	1504.068	1428.191
630.620	18.272	1502.590	1426.938
631.634	18.297	1501.664	1426.101
632.649	18.300	1500.599	1424.939
633.663	18.360	1499.050	1423.798
634.678	18.366	1497.976	1422.660
635.693	18.345	1496.404	1420.823
636.707	18.324	1494.943	1419.088
637.722	18.409	1493.555	1418.313
638.736	18.488	1492.608	1417.900
639.751	18.533	1491.213	1416.776
640.766	18.485	1489.710	1414.783
641.780	18.420	1489.131	1413.527
642.795	18.447	1488.366	1412.851
643.809	18.495	1487.248	1412.022
644.824	18.536	1486.017	1411.021
645.839	18.399	1485.821	1409.534
646.853	18.424	1484.426	1408.247
647.868	18.402	1482.790	1406.344
648.882	18.380	1481.337	1404.619
649.897	18.484	1480.469	1404.481
650.912	18.499	1478.957	1403.003
651.926	18.636	1478.120	1403.169
652.941	18.461	1477.855	1401.311
653.955	18.482	1475.527	1399.107
654.970	18.428	1474.190	1397.227
655.985	18.445	1473.447	1396.500
656.999	18.504	1472.221	1395.649
658.014	18.554	1470.423	1394.186
659.028	18.530	1469.841	1393.275
660.043	18.502	1469.528	1392.584
661.058	18.551	1467.713	1391.095
662.072	18.489	1466.895	1389.643
663.087	18.471	1465.690	1388.193
664.101	18.294	1464.284	1385.256
665.116	18.412	1463.140	1384.966
666.131	18.491	1461.961	1384.327
667.145	18.535	1460.437	1383.071
668.160	18.577	1459.782	1382.627
669.174	18.567	1458.834	1381.482
670.189	18.527	1457.442	1379.672
671.204	18.360	1456.951	1377.694
672.218	18.378	1455.968	1376.747
673.233	18.577	1454.276	1376.589
674.247	18.594	1453.112	1375.462
675.262	18.467	1452.283	1373.487
676.276	18.547	1451.599	1373.318
677.291	18.471	1450.850	1371.833
678.306	18.483	1449.171	1370.175
679.320	18.525	1448.034	1369.277
680.335	18.544	1447.537	1368.794
681.349	18.545	1446.509	1367.670
682.364	18.631	1444.952	1366.717
683.379	18.571	1443.531	1364.732
684.393	18.660	1442.317	1364.134
685.408	18.563	1441.937	1362.833
686.422	18.573	1440.455	1361.350
687.437	18.492	1440.266	1360.363
688.452	18.415	1439.677	1359.033
689.466	18.614	1437.327	1358.236
690.481	18.434	1436.318	1355.690
691.495	18.455	1435.293	1354.723
692.510	18.440	1434.305	1353.512
693.525	18.443	1432.519	1351.686
694.539	18.369	1432.015	1350.458
695.554	18.431	1431.987	1350.761
696.568	18.453	1430.226	1349.117
697.583	18.598	1429.724	1349.628
698.598	18.497	1429.332	1348.296
699.612	18.595	1427.595	1347.268
700.627	18.593	1425.818	1345.416
701.641	18.605	1424.991	1344.568
702.656	18.570	1423.967	1343.171
703.671	18.613	1423.692	1343.089
704.685	18.545	1423.592	1342.296
705.700	18.576	1422.566	1341.413
706.714	18.662	1420.071	1339.576
707.729	18.587	1418.772	1337.604
708.744	18.484	1417.904	1335.815
709.758	18.652	1416.452	1335.601
710.773	18.687	1415.152	1334.491
711.787	18.735	1414.047	1333.662
712.802	18.687	1412.276	1331.462
713.816	18.606	1412.080	1330.486
714.831	18.461	1411.900	1329.025
715.846	18.803	1409.859	1329.602
716.860	18.753	1408.570	1327.841
717.875	18.657	1407.259	1325.700
718.889	18.537	1406.639	1324.030
719.904	18.601	1406.524	1324.260
720.919	18.748	1404.273	1323.118
721.933	18.745	1403.396	1322.105
722.948	18.700	1402.847	1321.086
723.962	18.700	1401.782	1319.922
724.977	18.659	1400.499	1318.239
725.992	18.649	1399.652	1317.207
727.006	18.810	1397.473	1316.238
728.021	18.614	1396.996	1314.124
729.035	18.627	1395.734	1312.883
730.050	18.742	1394.546	1312.491
731.065	18.705	1393.188	1310.773
732.079	18.677	1392.632	1309.879
733.094	18.583	1392.091	1308.490
734.108	18.566	1389.407	1305.683
735.123	18.702	1388.649	1305.854
736.138	18.577	1387.906	1304.044
737.152	18.704	1386.797	1303.812
738.167	18.691	1385.967	1302.774
739.181	18.750	1384.355	1301.553
740.196	18.754	1384.010	1301.108
741.211	18.684	1383.553	1299.992
742.225	18.624	1382.878	1298.744
743.240	18.641	1381.321	1297.256
744.254	18.615	1379.966	1295.627
745.269	18.535	1378.933	1293.895
746.284	18.737	1378.260	1294.641
747.298	18.538	1377.309	1292.088
748.313	18.376	1376.381	1289.832
749.327	18.421	1374.988	1288.718
750.342	18.420	1374.112	1287.728
751.356	18.444	1372.686	1286.423
752.371	18.328	1372.125	1284.865
753.386	18.471	1370.902	1284.645
754.400	18.717	1369.772	1285.283
755.415	18.720	1369.155	1284.578
756.429	18.782	1367.784	1283.601
757.444	18.700	1366.839	1281.945
758.459	18.712	1365.527	1280.649
759.473	18.748	1364.775	1280.064
760.488	18.821	1363.494	1279.252
761.502	18.872	1362.624	1278.662
762.517	18.732	1361.547	1276.459
763.532	18.795	1360.483	1275.779
764.546	18.623	1360.078	1273.963
765.561	18.587	1359.488	1272.986
766.575	18.629	1358.122	1271.870
767.590	18.713	1356.437	1270.761
768.605	18.733	1354.882	1269.302
769.619	18.647	1354.065	1267.749
770.634	18.651	1352.638	1266.287
771.648	18.896	1351.956	1267.312
772.663	18.759	1351.781	1265.980
773.678	18.759	1350.397	1264.538
774.692	18.801	1349.371	1263.734
775.707	18.782	1349.144	1263.226
776.721	18.794	1348.035	1262.128
777.736	18.912	1346.926	1261.806
778.751	18.702	1345.800	1259.054
779.765	18.811	1344.713	1258.694
780.780	18.740	1344.289	1257.618
781.794	18.567	1343.289	1255.259
782.809	18.647	1342.246	1254.723
783.824	18.693	1340.974	1253.723
784.838	18.479	1339.791	1250.900
785.853	18.294	1338.500	1248.187
786.867	18.444	1338.123	1248.781
787.882	18.659	1336.768	1248.945
788.897	18.678	1336.274	1248.475
789.911	18.644	1335.476	1247.331
790.926	18.768	1333.789	1246.509
791.940	18.707	1332.401	1244.616
792.955	18.795	1330.980	1243.782
793.969	18.669	1330.532	1242.300
794.984	18.823	1329.746	1242.534
795.999	18.822	1328.267	1240.993
797.013	18.768	1326.699	1238.988
798.028	18.672	1326.357	1237.829
799.042	18.634	1325.525	1236.625
800.057	18.692	1324.194	1235.661
801.072	18.723	1322.715	1234.355
802.086	18.697	1321.544	1232.923
803.101	18.733	1321.343	1232.848
804.115	18.813	1320.360	1232.363
805.130	18.735	1319.100	1230.479
806.145	18.697	1318.022	1229.050
807.159	18.881	1316.696	1228.991
808.174	18.883	1314.991	1227.267
809.188	18.871	1313.549	1225.688
810.203	18.885	1311.925	1224.123
811.218	18.793	1310.904	1222.367
812.232	18.709	1309.810	1220.602
813.247	18.630	1309.072	1219.206
814.261	18.626	1309.460	1219.388
815.276	18.816	1307.670	1218.929
816.291	18.833	1306.392	1217.715
817.305	18.913	1305.703	1217.495
818.320	18.905	1304.155	1215.854
819.334	18.781	1302.899	1213.655
820.349	18.829	1301.337	1212.394
821.364	18.898	1299.795	1211.304
822.378	18.877	1298.842	1210.122
823.393	18.814	1297.211	1208.008
824.407	18.816	1295.944	1206.701
825.422	18.796	1295.153	1205.676
826.437	18.686	1294.649	1204.289
827.451	18.697	1292.592	1202.310
828.466	18.413	1292.070	1199.680
829.480	18.625	1289.757	1198.881
830.495	18.529	1288.353	1196.758
831.509	18.533	1287.903	1196.225
832.524	18.659	1286.802	1195.939
833.539	18.647	1285.932	1194.905
834.553	18.809	1284.511	1194.570
835.568	18.856	1283.392	1193.721
836.582	18.864	1282.652	1192.943
837.597	18.822	1281.695	1191.617
838.612	18.857	1280.073	1190.212
839.626	18.732	1279.589	1188.744
840.641	18.845	1278.967	1188.815
841.655	18.880	1277.274	1187.343
842.670	18.880	1276.198	1186.197
843.685	18.773	1274.692	1183.914
844.699	18.647	1274.120	1182.367
845.714	18.790	1273.159	1182.324
846.728	18.960	1272.116	1182.394
847.743	18.769	1271.371	1180.237
848.758	18.736	1269.849	1178.458
849.772	18.905	1268.200	1177.948
850.787	18.834	1266.636	1175.868
851.801	18.787	1265.968	1174.785
852.816	18.819	1264.584	1173.575
853.831	18.755	1263.191	1171.705
854.845	18.633	1261.473	1169.135
855.860	18.744	1259.625	1168.043
856.874	18.707	1259.021	1167.092
857.889	18.747	1257.448	1165.763
858.904	18.678	1256.194	1163.995
859.918	18.688	1254.468	1162.321
860.933	18.540	1253.188	1159.989
861.947	18.790	1252.256	1160.689
862.962	18.695	1251.440	1159.146
863.977	18.647	1250.697	1157.993
864.991	18.649	1250.357	1157.557
866.006	18.668	1249.887	1157.109
867.020	18.837	1248.594	1156.916
868.035	18.879	1247.261	1155.830
869.049	18.915	1246.435	1155.165
870.064	18.946	1245.114	1154.013
871.079	18.804	1244.571	1152.419
872.093	18.917	1244.384	1152.866
873.108	19.081	1242.632	1152.207
874.122	19.000	1241.757	1150.714
875.137	18.923	1241.079	1149.432
876.152	18.855	1240.545	1148.342
877.166	18.997	1238.881	1147.618
878.181	18.942	1237.549	1145.876
879.195	18.951	1237.057	1145.344
880.210	18.837	1236.026	1143.491
881.225	18.974	1234.645	1142.992
882.239	18.953	1233.727	1141.868
883.254	19.024	1232.992	1141.521
884.268	18.915	1232.604	1140.298
885.283	19.016	1230.413	1138.805
886.298	18.955	1229.121	1137.070
887.312	18.864	1229.007	1136.222
888.327	18.890	1227.942	1135.276
889.341	19.013	1225.833	1134.002
890.356	18.911	1225.551	1132.934
891.371	18.784	1225.461	1131.874
892.385	18.738	1224.809	1130.829
893.400	18.760	1224.071	1130.162
894.414	18.797	1222.033	1128.386
895.429	18.871	1220.090	1126.944
896.444	18.713	1218.222	1124.045
897.458	18.696	1217.067	1122.734
898.473	18.653	1217.056	1122.307
899.487	18.714	1216.713	1122.256
900.502	18.845	1215.352	1121.727
901.517	18.867	1214.503	1120.956
902.531	18.860	1213.790	1120.114
903.546	18.848	1213.189	1119.347
904.560	19.052	1212.292	1119.719
905.575	18.995	1211.411	1118.397
906.589	19.033	1210.505	1117.678
907.604	19.072	1209.807	1117.154
