DTS Sentinel unit serial number:	SN409020Multiplexer serial number:	ORYXHardware model number:	OX4-SRSoftware version number:	ORYX F/W v3.00 Oryx Data Collector v3.7.2.0data status	okinstallation	HaddamTimeLapsedifferential loss correction	single-endedforward channel	channel 3reverse channel	N/Adate	2011/06/22time	09:06:17forward acquisition time	30.00reverse acquisition time	0.00gamma	498.7831k internal	0.1797k external	0.1797temperature offset calibration	1.0074default loss term (dB/km)	0.3790temperature slope calibration	1.3530multiplexer offset coefficient	1.0000multiplexer slope coefficient	1.0000fibre end	0.00T internal ref (°C)	27.66T ext. ref 1 (°C)	24.08T ext. ref 2 (°C)	0.17length (m)	temperature (°C)	Stokes	anti-Stokes-747.200	-96.450	0.292	0.099
-746.185	-31.064	0.168	0.122
-745.171	-84.243	-0.564	-0.230
-744.156	-200.000	0.036	0.474
-743.142	-200.000	-0.017	-0.360
-742.127	112.469	0.342	0.536
-741.112	82.375	0.077	0.108
-740.098	12.128	-0.256	0.255
-739.083	417.928	-0.129	-0.359
-738.069	226.277	0.076	0.161
-737.054	-92.906	0.255	0.092
-736.039	-111.467	-0.007	0.002
-735.025	-200.000	-0.012	-0.186
-734.010	-1.553	-0.088	-0.081
-732.996	-200.000	0.018	0.104
-731.981	-10.763	-0.327	0.279
-730.966	137.465	-0.225	-0.382
-729.952	300.763	0.162	-0.389
-728.937	5.483	-0.107	0.102
-727.923	375.749	-0.062	0.165
-726.908	-186.220	-0.482	-0.009
-725.894	800.000	-0.127	-0.479
-724.879	190.041	0.053	0.103
-723.864	29.242	-0.377	0.414
-722.850	-97.930	-0.407	0.135
-721.835	-200.000	-0.006	-0.226
-720.821	800.000	-0.030	0.109
-719.806	172.401	0.081	-0.150
-718.791	43.823	-0.194	-0.230
-717.777	499.481	-0.109	-0.326
-716.762	-48.231	-0.305	0.190
-715.748	391.968	0.089	0.241
-714.733	-99.922	0.201	-0.064
-713.718	-14.047	-0.275	0.229
-712.704	-169.845	-0.624	0.029
-711.689	172.705	-0.031	-0.058
-710.675	-130.745	-0.225	0.039
-709.660	-68.813	-0.193	0.096
-708.645	-131.952	-0.329	-0.055
-707.631	-42.754	-0.513	-0.336
-706.616	362.998	-0.115	-0.299
-705.602	80.526	0.181	0.252
-704.587	-44.338	0.293	-0.189
-703.572	351.023	0.177	-0.454
-702.558	-70.964	0.269	0.130
-701.543	-200.000	-0.130	0.000
-700.529	-130.608	0.556	-0.096
-699.514	138.313	0.143	0.243
-698.499	-148.023	-0.730	0.077
-697.485	-137.577	-0.625	-0.090
-696.470	130.198	0.156	-0.258
-695.456	-82.685	0.249	-0.104
-694.441	-125.300	0.309	0.060
-693.426	800.000	0.128	0.520
-692.412	-200.000	0.060	-0.502
-691.397	-132.652	-0.093	-0.015
-690.383	-26.774	0.192	-0.145
-689.368	103.237	-0.052	0.080
-688.354	-73.703	-0.474	-0.222
-687.339	502.879	0.155	-0.466
-686.324	-193.809	0.324	-0.003
-685.310	-100.707	-0.243	0.077
-684.295	-165.893	0.408	0.022
-683.281	208.137	-0.255	0.515
-682.266	412.273	-0.057	0.157
-681.251	-200.000	-0.041	-0.269
-680.237	684.474	-0.121	-0.410
-679.222	759.745	0.079	-0.277
-678.208	-8.709	0.406	0.352
-677.193	-200.000	0.050	-0.351
-676.178	-200.000	-0.018	-0.695
-675.164	-200.000	-0.391	-0.000
-674.149	-37.495	-0.536	0.368
-673.135	-72.917	0.434	-0.205
-672.120	648.077	0.121	0.403
-671.105	65.489	0.259	0.338
-670.091	-100.595	0.134	-0.042
-669.076	-200.000	0.062	-0.501
-668.062	-200.000	-0.109	-0.001
-667.047	118.516	0.167	-0.266
-666.032	6.782	-0.532	-0.511
-665.018	209.093	-0.134	-0.272
-664.003	-61.819	0.225	0.121
-662.989	95.482	0.169	-0.248
-661.974	-60.975	-0.186	0.101
-660.959	-63.967	0.127	0.067
-659.945	-50.373	0.037	0.022
-658.930	161.109	-0.079	0.142
-657.916	-200.000	0.007	-0.096
-656.901	99.248	-0.140	0.210
-655.886	277.492	0.102	0.236
-654.872	73.349	-0.288	0.388
-653.857	-6.540	-0.397	-0.348
-652.843	800.000	-0.074	-0.346
-651.828	-107.687	-0.084	-0.024
-650.814	-141.350	-0.812	0.105
-649.799	330.716	0.148	-0.370
-648.784	800.000	-0.040	0.192
-647.770	-49.714	0.117	-0.072
-646.755	-37.778	-0.041	0.028
-645.741	-196.738	0.195	-0.002
-644.726	-92.701	-0.344	-0.123
-643.711	-152.430	0.067	0.006
-642.697	171.912	0.098	-0.182
-641.682	-200.000	-0.013	-0.292
-640.668	-157.660	0.493	-0.037
-639.653	-85.728	-0.225	-0.090
-638.638	-123.326	-0.360	0.073
-637.624	-21.587	0.338	-0.265
-636.609	-135.288	0.169	-0.026
-635.595	-109.185	0.464	-0.126
-634.580	-100.273	-0.286	-0.091
-633.565	-82.561	-0.248	-0.103
-632.551	-5.128	-0.286	0.253
-631.536	-181.643	-0.223	0.005
-630.522	800.000	0.049	-0.245
-629.507	-31.646	-0.146	0.105
-628.492	-56.905	-0.398	-0.226
-627.478	40.666	-0.284	0.329
-626.463	800.000	0.066	-0.353
-625.449	142.402	0.119	-0.205
-624.434	111.396	-0.136	0.212
-623.419	-27.372	-0.352	0.263
-622.405	134.993	-0.084	0.140
-621.390	-169.208	0.242	-0.011
-620.376	-105.884	-0.470	0.136
-619.361	29.192	0.268	-0.293
-618.346	-20.076	0.341	-0.270
-617.332	-120.240	0.282	-0.061
-616.317	-101.029	0.323	0.101
-615.303	-200.000	0.009	0.251
-614.288	50.471	-0.033	0.040
-613.273	-141.879	-0.471	0.060
-612.259	-200.000	-0.000	-0.030
-611.244	-81.285	-0.292	0.123
-610.230	-133.923	0.276	-0.044
-609.215	-65.297	-0.266	0.137
-608.201	-118.670	-0.355	-0.080
-607.186	364.773	-0.102	0.265
-606.171	-1.777	0.122	0.111
-605.157	-137.782	-0.381	0.054
-604.142	-41.522	-0.437	0.288
-603.128	-200.000	-0.004	-0.085
-602.113	277.958	-0.242	-0.557
-601.098	121.112	-0.272	0.437
-600.084	56.606	0.196	0.245
-599.069	613.339	0.127	-0.411
-598.055	19.139	-0.263	-0.272
-597.040	-131.302	0.195	-0.033
-596.025	800.000	-0.054	-0.265
-595.011	-153.396	-0.214	-0.019
-593.996	-153.488	0.588	0.052
-592.982	65.518	0.302	0.394
-591.967	-0.926	-0.070	0.064
-590.952	89.869	-0.051	-0.073
-589.938	558.609	0.095	0.297
-588.923	298.901	0.118	-0.281
-587.909	61.094	-0.385	0.492
-586.894	800.000	0.051	-0.218
-585.879	118.225	-0.157	-0.250
-584.865	-200.000	-0.066	-0.435
-583.850	-56.614	-0.040	-0.023
-582.836	26.756	0.273	0.294
-581.821	-98.962	0.475	0.154
-580.806	-200.000	0.006	0.070
-579.792	100.308	-0.140	0.210
-578.777	77.889	0.158	-0.217
-577.763	127.388	-0.126	0.206
-576.748	-73.963	0.213	0.099
-575.733	-130.020	-0.360	-0.063
-574.719	52.283	0.075	0.092
-573.704	-83.522	-0.633	0.259
-572.690	29.838	0.154	0.169
-571.675	-57.703	0.497	0.279
-570.661	338.958	-0.165	-0.415
-569.646	-200.000	-0.023	-0.159
-568.631	299.216	-0.098	0.232
-567.617	163.312	-0.086	0.155
-566.602	-28.146	-0.259	0.192
-565.588	38.678	-0.517	0.593
-564.573	-132.795	-0.265	0.043
-563.558	-136.833	0.170	-0.025
-562.544	188.182	0.166	-0.319
-561.529	45.990	-0.185	0.221
-560.515	-175.387	-0.792	0.027
-559.500	800.000	-0.047	0.197
-558.485	800.000	0.077	0.331
-557.471	74.534	0.192	0.260
-556.456	-171.332	-0.359	0.015
-555.442	-40.925	-0.352	-0.234
-554.427	61.465	-0.059	-0.076
-553.412	47.716	0.215	0.258
-552.398	-80.901	0.068	-0.029
-551.383	-127.970	0.395	-0.072
-550.369	-18.081	-0.183	0.147
-549.354	-15.652	-0.145	0.119
-548.339	-200.000	0.060	-0.366
-547.325	800.000	-0.070	-0.270
-546.310	-200.000	0.023	-0.224
-545.296	569.230	-0.040	0.124
-544.281	-102.963	-0.335	-0.101
-543.266	800.000	-0.145	-0.616
-542.252	-200.000	-0.007	-0.290
-541.237	-200.000	-0.042	-0.289
-540.223	-79.299	-0.333	-0.144
-539.208	-81.576	-0.167	0.070
-538.193	475.248	0.054	-0.157
-537.179	-1.099	0.378	-0.343
-536.164	512.893	-0.182	-0.546
-535.150	522.592	0.058	0.176
-534.135	-185.855	0.201	-0.004
-533.121	800.000	0.033	0.121
-532.106	-24.834	0.362	0.275
-531.091	-200.000	-0.019	0.483
-530.077	-37.632	-0.564	0.385
-529.062	-137.384	0.412	-0.059
-528.048	-80.705	-0.016	0.007
-527.033	-165.881	0.641	0.035
-526.018	-144.164	0.053	-0.006
-525.004	26.507	0.235	0.253
-523.989	11.424	0.201	-0.197
-522.975	204.101	-0.269	-0.537
-521.960	-0.984	0.188	-0.171
-520.945	27.188	-0.327	-0.353
-519.931	-15.886	-0.378	0.308
-518.916	193.823	0.032	-0.062
-517.902	800.000	-0.056	0.308
-516.887	-200.000	-0.046	0.285
-515.872	-125.277	0.307	-0.060
-514.858	-43.489	0.277	0.179
-513.843	-60.456	-0.348	0.189
-512.829	-76.046	-0.194	-0.087
-511.814	-84.200	-0.284	0.115
-510.799	-200.000	0.026	0.232
-509.785	431.650	0.136	-0.380
-508.770	173.198	-0.088	0.163
-507.756	233.559	0.248	-0.525
-506.741	-122.151	0.580	0.121
-505.726	-200.000	0.009	-0.115
-504.712	-109.844	-0.321	0.086
-503.697	-200.000	-0.003	-0.423
-502.683	-52.091	0.146	0.087
-501.668	-142.315	-0.259	0.032
-500.653	365.814	0.049	-0.127
-499.639	40.305	0.304	0.351
-498.624	-200.000	0.047	-0.439
-497.610	-200.000	0.013	-0.148
-496.595	104.986	-0.120	-0.182
-495.581	800.000	-0.167	0.635
-494.566	153.601	-0.165	-0.291
-493.551	800.000	0.011	-0.041
-492.537	-200.000	-0.045	-0.751
-491.522	-43.530	0.213	-0.138
-490.508	393.354	0.137	-0.368
-489.493	-80.821	0.145	-0.062
-488.478	51.786	-0.242	0.296
-487.464	800.000	-0.029	-0.118
-486.449	530.809	-0.060	-0.183
-485.435	560.189	-0.083	-0.258
-484.420	800.000	-0.133	-0.754
-483.405	800.000	-0.029	-0.107
-482.391	-187.422	-0.275	0.005
-481.376	800.000	0.082	-0.318
-480.362	42.870	0.247	-0.288
-479.347	-147.437	0.208	0.022
-478.332	431.382	-0.215	-0.598
-477.318	182.304	0.137	0.260
-476.303	-96.140	-0.578	0.196
-475.289	-200.000	0.018	-0.396
-474.274	800.000	0.096	0.511
-473.259	-200.000	0.005	-0.434
-472.245	54.205	-0.241	0.297
-471.230	10.258	0.236	0.230
-470.216	-200.000	0.018	0.313
-469.201	3.578	0.346	0.323
-468.186	39.238	-0.144	0.165
-467.172	-200.000	-0.213	0.001
-466.157	-24.389	-0.101	0.077
-465.143	779.108	-0.120	0.422
-464.128	77.566	0.390	0.532
-463.113	-85.579	-0.078	-0.031
-462.099	336.065	0.093	-0.231
-461.084	171.756	-0.121	0.222
-460.070	-152.147	0.390	-0.036
-459.055	91.304	-0.201	0.289
-458.040	-93.268	0.452	0.160
-457.026	-101.868	-0.210	-0.065
-456.011	-79.690	0.300	0.129
-454.997	-170.061	-0.298	0.013
-453.982	-122.024	0.386	0.081
-452.968	-80.361	0.318	0.135
-451.953	34.479	0.231	0.258
-450.938	-31.658	0.426	0.305
-449.924	274.064	0.010	0.024
-448.909	-115.770	0.474	0.113
-447.895	485.513	0.040	0.117
-446.880	800.000	0.117	-0.572
-445.865	-200.000	-0.008	-0.484
-444.851	800.000	-0.064	-0.299
-443.836	418.769	-0.026	-0.072
-442.822	-8.732	-0.301	-0.258
-441.807	-48.106	-0.207	-0.127
-440.792	17.668	-0.294	0.299
-439.778	31.596	-0.087	0.095
-438.763	-200.000	0.042	0.266
-437.749	34.286	0.354	0.395
-436.734	552.201	-0.119	-0.367
-435.719	-155.266	-0.150	-0.012
-434.705	-118.501	-0.192	0.043
-433.690	-157.325	0.443	-0.034
-432.676	730.708	0.118	0.405
-431.661	56.237	-0.019	0.023
-430.646	-200.000	-0.013	0.293
-429.632	-200.000	-0.055	0.349
-428.617	-75.891	0.069	-0.031
-427.603	-181.330	-0.228	0.006
-426.588	-6.995	-0.133	-0.115
-425.573	536.589	0.179	0.545
-424.559	-39.337	0.245	-0.164
-423.544	-138.089	-0.193	-0.027
-422.530	31.966	-0.244	0.269
-421.515	-79.205	0.138	-0.059
-420.500	-156.595	0.177	-0.014
-419.486	-109.882	-0.194	-0.052
-418.471	416.185	-0.022	0.061
-417.457	-61.604	0.668	-0.357
-416.442	416.155	-0.019	-0.051
-415.428	-54.629	-0.306	0.176
-414.413	-200.000	0.027	-0.629
-413.398	-200.000	0.015	-0.299
-412.384	-200.000	0.029	0.198
-411.369	232.981	-0.098	-0.207
-410.355	38.412	0.121	0.138
-409.340	16.702	-0.176	0.177
-408.325	154.838	-0.056	0.099
-407.311	252.212	-0.092	0.201
-406.296	-159.005	0.133	-0.010
-405.282	-200.000	-0.019	0.119
-404.267	-102.100	0.278	-0.085
-403.252	209.357	-0.248	-0.498
-402.238	-128.164	0.241	-0.044
-401.223	-200.000	-0.005	0.056
-400.209	-53.971	-0.148	-0.086
-399.194	456.263	-0.020	-0.058
-398.179	-32.790	-0.213	0.151
-397.165	-162.183	0.325	0.020
-396.150	-25.325	0.507	-0.382
-395.136	-22.251	0.126	0.097
-394.121	-113.494	0.121	-0.030
-393.106	-67.817	0.476	0.237
-392.092	12.816	0.268	0.264
-391.077	-54.515	0.310	0.179
-390.063	-42.949	0.280	0.181
-389.048	-144.192	-0.155	0.018
-388.033	67.154	-0.179	-0.233
-387.019	-66.654	-0.376	-0.190
-386.004	-200.000	-0.004	-0.078
-384.990	-9.154	0.118	-0.100
-383.975	319.939	0.049	-0.120
-382.960	-200.000	0.349	-0.001
-381.946	581.348	0.154	0.484
-380.931	-200.000	-0.005	-0.483
-379.917	100.330	-0.091	-0.136
-378.902	243.247	-0.261	-0.561
-377.888	-50.587	-0.197	0.118
-376.873	233.831	0.187	-0.393
-375.858	191.002	-0.072	-0.138
-374.844	800.000	-0.048	0.241
-373.829	-200.000	-0.021	0.390
-372.815	190.524	-0.172	0.330
-371.800	69.777	0.105	-0.138
-370.785	-72.220	0.212	0.100
-369.771	-200.000	0.045	0.263
-368.756	271.537	-0.018	0.041
-367.742	-6.535	0.060	-0.052
-366.727	38.430	-0.504	-0.573
-365.712	36.570	-0.144	-0.162
-364.698	-99.502	-0.237	0.076
-363.683	-98.734	0.185	0.060
-362.669	-51.850	0.459	-0.272
-361.654	-33.401	0.111	-0.078
-360.639	-141.336	0.387	0.050
-359.625	-53.841	-0.057	-0.033
-358.610	117.162	0.147	0.230
-357.596	550.421	0.093	0.286
-356.581	-28.894	0.218	-0.159
-355.566	273.280	0.187	-0.422
-354.552	-48.459	0.380	-0.232
-353.537	0.671	-0.352	0.320
-352.523	-49.457	0.121	-0.073
-351.508	-145.410	0.266	0.030
-350.493	-26.561	-0.398	-0.296
-349.479	99.022	0.390	0.575
-348.464	-117.573	-0.136	0.031
-347.450	78.306	0.143	-0.195
-346.435	-53.289	0.224	-0.130
-345.420	-83.871	0.225	0.091
-344.406	518.066	0.010	0.030
-343.391	351.490	0.158	-0.400
-342.377	-134.405	-0.187	-0.029
-341.362	-18.553	0.066	0.053
-340.348	-117.141	-0.319	-0.073
-339.333	-164.068	-0.544	0.032
-338.318	-54.846	0.611	0.350
-337.304	-200.000	0.009	0.119
-336.289	-140.681	0.214	0.028
-335.275	34.163	-0.186	-0.207
-334.260	800.000	0.092	-0.337
-333.245	-90.142	0.743	0.274
-332.231	-45.338	0.143	-0.090
-331.216	17.927	0.280	0.284
-330.202	-97.857	0.847	0.277
-329.187	800.000	0.071	-0.276
-328.172	-15.710	-0.448	-0.363
-327.158	-68.918	0.188	-0.092
-326.143	-17.440	0.120	0.096
-325.129	-41.094	0.545	-0.357
-324.114	77.749	-0.312	-0.424
-323.099	-128.078	-0.718	-0.130
-322.085	73.639	-0.107	-0.143
-321.070	-37.354	0.312	-0.212
-320.056	800.000	-0.122	0.449
-319.041	189.897	0.033	0.064
-318.026	800.000	0.068	-0.249
-317.012	-200.000	0.033	-0.376
-315.997	-50.872	-0.190	0.113
-314.983	311.474	-0.090	0.217
-313.968	414.469	-0.132	0.358
-312.953	-12.862	0.083	0.069
-311.939	-200.000	0.005	-0.060
-310.924	-82.077	-0.321	-0.133
-309.910	-58.092	-0.158	0.087
-308.895	78.323	-0.155	-0.211
-307.880	-55.192	0.401	-0.229
-306.866	321.723	-0.141	-0.343
-305.851	-22.509	0.278	0.213
-304.837	-200.000	0.065	0.385
-303.822	-200.000	0.008	0.180
-302.807	-200.000	0.002	0.831
-301.793	-14.601	-0.421	0.344
-300.778	-200.000	-0.072	0.430
-299.764	-30.760	-0.188	0.135
-298.749	-140.307	-0.170	0.022
-297.735	105.251	0.243	0.365
-296.720	291.325	0.047	0.110
-295.705	33.291	0.234	-0.259
-294.691	6.238	-0.209	0.197
-293.676	-102.844	0.040	0.012
-292.662	279.499	0.182	0.415
-291.647	-200.000	0.018	-0.229
-290.632	-56.408	-0.203	0.114
-289.618	314.985	0.121	0.290
-288.603	-200.000	0.018	-0.299
-287.589	705.662	-0.029	0.097
-286.574	800.000	0.016	-0.068
-285.559	667.100	0.025	0.082
-284.545	-55.954	-0.268	-0.151
-283.530	800.000	-0.101	0.380
-282.516	-200.000	-0.021	-0.405
-281.501	662.671	-0.125	-0.411
-280.486	621.856	-0.101	-0.326
-279.472	-120.810	0.191	-0.041
-278.457	86.856	-0.010	0.014
-277.443	800.000	0.043	0.213
-276.428	-117.722	0.498	0.113
-275.413	-177.968	-0.271	-0.008
-274.399	321.293	0.068	-0.165
-273.384	-148.250	0.090	-0.009
-272.370	47.682	0.144	0.171
-271.355	259.918	0.078	0.172
-270.340	-152.263	-0.592	-0.054
-269.326	-151.992	-0.444	-0.041
-268.311	-200.000	0.268	-0.000
-267.297	-64.028	0.402	-0.208
-266.282	261.285	-0.072	0.158
-265.267	-200.000	-0.002	0.067
-264.253	-127.451	0.483	0.088
-263.238	-200.000	-0.029	-0.503
-262.224	-56.778	-0.293	0.164
-261.209	57.771	-0.319	0.396
-260.195	-101.879	-0.351	-0.107
-259.180	800.000	-0.112	0.450
-258.165	-93.569	0.447	0.156
-257.151	388.746	-0.055	-0.146
-256.136	-158.869	0.233	0.017
-255.122	-75.802	-0.230	-0.103
-254.107	636.570	0.102	0.332
-253.092	-97.235	0.283	-0.093
-252.078	-67.255	0.116	-0.058
-251.063	142.436	0.208	-0.351
-250.049	732.124	-0.112	-0.384
-249.034	86.462	0.187	-0.263
-248.019	-64.381	0.104	0.054
-247.005	-167.439	-0.565	-0.028
-245.990	48.266	-0.433	-0.515
-244.976	-125.312	-0.637	-0.122
-243.961	-75.049	0.359	-0.162
-242.946	-148.602	0.429	0.044
-241.932	-78.958	0.333	-0.143
-240.917	-177.506	-0.502	-0.015
-239.903	-18.544	-0.209	0.165
-238.888	65.822	-0.101	0.130
-237.873	-114.775	0.303	-0.073
-236.859	-165.240	0.433	-0.024
-235.844	-80.418	0.212	-0.089
-234.830	352.406	0.068	0.171
-233.815	-200.000	0.054	0.417
-232.800	800.000	0.116	0.623
-231.786	57.421	-0.332	-0.411
-230.771	-82.103	0.090	-0.037
-229.757	164.299	0.220	0.395
-228.742	-200.000	0.061	0.557
-227.727	167.428	-0.236	-0.426
-226.713	-200.000	-0.004	-0.522
-225.698	127.793	0.242	0.391
-224.684	-134.740	-0.215	-0.033
-223.669	-156.937	0.149	0.011
-222.655	-53.792	0.445	-0.257
-221.640	327.980	-0.071	0.173
-220.625	-163.612	0.131	-0.008
-219.611	238.029	0.048	-0.102
-218.596	-200.000	-0.165	0.001
-217.582	-60.516	-0.655	-0.351
-216.567	699.117	0.048	0.162
-215.552	139.244	0.118	-0.198
-214.538	-115.191	0.464	0.111
-213.523	-26.960	-0.278	0.206
-212.509	800.000	0.048	-0.260
-211.494	225.621	-0.064	0.131
-210.479	-17.921	0.393	0.311
-209.465	190.310	0.068	-0.129
-208.450	6.077	-0.246	-0.230
-207.436	-144.348	-0.473	-0.055
-206.421	72.471	-0.238	-0.315
-205.406	417.966	0.095	-0.258
-204.392	240.689	-0.137	-0.291
-203.377	1.216	-0.275	-0.250
-202.363	-200.000	0.232	-0.001
-201.348	11.213	-0.329	-0.319
-200.333	-0.647	-0.347	0.311
-199.319	-200.000	0.015	0.317
-198.304	-121.490	0.161	-0.034
-197.290	467.512	0.115	-0.328
-196.275	-110.037	-0.424	-0.111
-195.260	400.139	0.080	0.214
-194.246	-166.198	0.481	0.025
-193.231	-200.000	-0.072	0.687
-192.217	-39.274	-0.029	0.019
-191.202	58.703	-0.441	0.548
-190.187	800.000	0.029	-0.108
-189.173	-82.764	-0.428	0.174
-188.158	-93.458	-0.345	-0.120
-187.144	-200.000	0.093	-0.527
-186.129	120.828	-0.284	-0.449
-185.114	311.588	0.098	0.233
-184.100	-46.433	-0.498	0.309
-183.085	-40.892	-0.181	-0.119
-182.071	-200.000	0.014	0.147
-181.056	800.000	-0.135	0.552
-180.042	54.939	0.061	-0.074
-179.027	800.000	0.075	0.341
-178.012	-70.129	-0.091	-0.044
-176.998	-91.966	-0.181	-0.065
-175.983	-87.700	0.242	0.092
-174.969	-200.000	0.023	0.206
-173.954	-124.656	-0.424	-0.082
-172.939	-38.370	0.347	0.232
-171.925	-30.683	-0.318	0.228
-170.910	-92.154	0.327	-0.116
-169.896	283.909	-0.164	0.375
-168.881	800.000	-0.047	0.197
-167.866	-165.839	-0.342	0.018
-166.852	152.158	0.191	0.330
-165.837	-114.393	0.585	-0.141
-164.823	-51.154	0.352	0.208
-163.808	135.142	0.144	-0.237
-162.793	-35.454	-0.161	-0.111
-161.779	-21.432	0.120	0.093
-160.764	-200.000	-0.002	-0.372
-159.750	-58.599	-0.256	-0.140
-158.735	765.649	-0.127	-0.438
-157.720	195.789	-0.068	0.130
-156.706	-200.000	0.025	0.273
-155.691	-134.965	0.047	-0.007
-154.677	-43.190	-0.040	-0.025
-153.662	41.968	0.237	0.272
-152.647	-98.549	-0.216	-0.069
-151.633	800.000	-0.053	0.276
-150.618	-111.863	0.106	-0.027
-149.604	443.224	-0.185	0.515
-148.589	-200.000	0.078	-0.456
-147.574	-200.000	0.103	0.715
-146.560	800.000	0.069	0.325
-145.545	16.508	-0.071	-0.071
-144.531	-88.166	-0.128	-0.048
-143.516	47.825	-0.169	0.199
-142.502	45.036	-0.474	0.552
-141.487	800.000	-0.122	-0.482
-140.472	800.000	0.068	-0.318
-139.458	-8.574	-0.162	-0.137
-138.443	-5.947	0.230	-0.198
-137.429	259.374	-0.061	0.134
-136.414	-200.000	-0.038	-0.319
-135.399	-98.495	0.577	0.185
-134.385	-21.043	0.177	-0.136
-133.370	-162.008	-0.583	0.037
-132.356	-56.087	-0.094	0.053
-131.341	100.339	0.239	0.351
-130.326	113.514	0.364	-0.560
-129.312	800.000	0.050	-0.205
-128.297	71.866	-0.336	-0.442
-127.283	-70.115	-0.368	-0.176
-126.268	14.581	0.396	-0.391
-125.253	-175.735	-0.094	0.003
-124.239	-162.241	0.045	-0.003
-123.224	-69.820	-0.089	0.043
-122.210	-66.502	-0.090	0.045
-121.195	-106.810	0.141	-0.039
-120.180	269.359	-0.140	0.311
-119.166	209.446	0.143	0.283
-118.151	130.473	0.131	-0.212
-117.137	451.339	-0.014	-0.040
-116.122	169.770	-0.271	-0.490
-115.107	-145.049	-0.277	0.031
-114.093	-94.153	-0.585	0.201
-113.078	-78.402	-0.570	0.246
-112.064	-57.753	-0.465	0.256
-111.049	-21.655	-0.190	0.146
-110.034	-148.404	0.341	-0.035
-109.020	-104.405	0.537	0.156
-108.005	-200.000	-0.056	0.330
-106.991	-21.901	0.352	0.270
-105.976	583.702	0.043	-0.135
-104.962	625.345	0.032	-0.101
-103.947	159.076	0.145	-0.255
-102.932	29.186	-0.049	-0.053
-101.918	-124.373	0.224	-0.044
-100.903	37.988	-0.291	-0.327
-99.889	247.663	0.117	0.251
-98.874	664.314	-0.049	0.159
-97.859	800.000	0.057	0.223
-96.845	-152.445	-0.241	0.022
-95.830	47.822	-0.155	-0.182
-94.816	18.254	0.262	0.264
-93.801	-200.000	0.016	0.250
-92.786	-78.338	-0.327	-0.141
-91.772	-18.748	0.549	0.431
-90.757	-117.170	0.107	0.024
-89.743	194.396	0.109	-0.210
-88.728	37.355	0.097	0.109
-87.713	35.202	-0.206	0.228
-86.699	-40.018	0.397	0.261
-85.684	-125.546	0.507	0.096
-84.670	-30.173	0.237	0.170
-83.655	124.822	-0.183	-0.291
-82.640	-200.000	0.012	0.107
-81.626	-11.817	0.124	0.103
-80.611	-121.545	0.357	0.074
-79.597	-114.798	0.212	0.051
-78.582	9.552	0.309	-0.295
-77.567	-200.000	-0.079	-0.478
-76.553	-50.677	0.567	0.336
-75.538	-85.808	-0.183	-0.071
-74.524	59.202	0.248	0.308
-73.509	446.410	0.039	-0.108
-72.494	-22.300	-0.080	-0.061
-71.480	-119.722	0.469	0.101
-70.465	-166.768	0.081	0.004
-69.451	-134.700	0.395	-0.060
-68.436	584.636	-0.056	0.173
-67.422	-200.000	0.011	-0.103
-66.407	-149.742	0.229	0.022
-65.392	-152.218	0.294	-0.026
-64.378	-78.775	0.592	0.253
-63.363	800.000	-0.053	-0.240
-62.349	351.624	-0.260	0.652
-61.334	16.920	-2.064	-2.059
-60.319	200.378	0.521	1.012
-59.305	254.689	-3.358	-7.267
-58.290	31.980	3.643	3.955
-57.276	381.623	4.010	10.422
-56.261	-200.000	17.696	272.379
-55.246	424.534	1221.848	3327.643
-54.232	60.782	2823.667	3529.449
-53.217	70.988	2699.539	3526.988
-52.203	47.976	2433.778	2865.970
-51.188	37.292	2095.723	2339.325
-50.173	30.076	1975.567	2122.397
-49.159	28.703	1964.783	2094.992
-48.144	28.189	1961.205	2085.206
-47.130	28.130	1958.651	2081.739
-46.115	27.942	1957.318	2078.086
-45.100	27.999	1955.443	2076.666
-44.086	27.883	1954.355	2074.107
-43.071	27.857	1952.407	2071.655
-42.057	27.794	1951.826	2070.245
-41.042	27.742	1950.396	2068.056
-40.027	27.916	1948.259	2067.688
-39.013	27.836	1947.119	2065.482
-37.998	27.891	1944.983	2063.760
-36.984	27.879	1943.474	2061.940
-35.969	27.730	1943.018	2059.684
-34.954	27.704	1941.500	2057.694
-33.940	27.810	1940.559	2057.816
-32.925	27.849	1938.528	2056.019
-31.911	27.744	1937.262	2053.415
-30.896	27.836	1935.409	2052.411
-29.881	27.715	1935.301	2050.839
-28.867	27.755	1932.704	2048.466
-27.852	27.694	1932.123	2047.081
-26.838	27.674	1931.301	2045.896
-25.823	27.675	1929.527	2043.947
-24.809	27.701	1927.598	2042.123
-23.794	27.674	1926.684	2040.760
-22.779	27.667	1925.577	2039.434
-21.765	27.646	1924.380	2037.844
-20.750	27.609	1922.766	2035.640
-19.736	27.616	1921.831	2034.648
-18.721	27.682	1919.812	2033.176
-17.706	27.625	1919.538	2032.159
-16.692	27.720	1918.169	2031.694
-15.677	27.512	1917.690	2028.784
-14.663	27.582	1916.423	2028.140
-13.648	27.437	1914.853	2024.775
-12.633	27.590	1912.464	2023.880
-11.619	27.602	1911.124	2022.520
-10.604	27.565	1910.282	2021.131
-9.590	27.582	1909.617	2020.536
-8.575	27.411	1908.522	2017.389
-7.560	27.502	1907.246	2016.979
-6.546	27.538	1906.309	2016.302
-5.531	27.478	1905.182	2014.370
-4.517	27.504	1903.204	2012.491
-3.502	27.513	1902.712	2011.988
-2.487	27.536	1901.563	2010.945
-1.473	27.613	1898.364	2008.338
-0.458	27.747	1879.628	1989.907
0.556	24.354	2023.914	2090.240
1.571	23.472	2237.385	2298.935
2.586	24.694	2280.634	2359.320
3.600	24.826	2283.704	2363.969
4.615	24.756	2283.955	2363.011
5.629	24.775	2280.574	2359.486
6.644	24.800	2277.870	2356.731
7.659	24.797	2276.696	2355.197
8.673	24.918	2274.942	2354.702
9.688	24.579	2281.176	2356.372
10.702	22.336	2357.293	2403.946
11.717	19.992	2421.289	2435.811
12.731	10.007	2396.243	2269.952
13.746	1.656	2373.911	2131.329
14.761	0.371	2369.459	2109.026
15.775	0.243	2367.942	2105.624
16.790	0.147	2365.986	2102.288
17.804	0.137	2365.463	2101.426
18.819	0.247	2363.398	2100.883
19.834	0.084	2363.002	2097.999
20.848	0.176	2360.048	2096.412
21.863	0.062	2359.664	2094.219
22.877	0.233	2356.936	2093.940
23.892	0.151	2354.436	2090.320
24.907	0.144	2352.084	2087.885
25.921	0.094	2350.836	2085.824
26.936	0.120	2348.272	2083.667
27.950	0.218	2344.774	2081.673
28.965	0.116	2343.790	2079.134
29.980	0.149	2341.916	2077.678
30.994	0.292	2339.538	2077.303
32.009	4.835	2355.537	2154.548
33.023	17.080	2392.487	2360.157
34.038	23.103	2405.582	2457.159
35.053	23.878	2403.417	2465.455
36.067	23.948	2402.031	2464.707
37.082	23.773	2399.856	2459.757
38.096	23.463	2397.746	2452.985
39.111	23.786	2394.566	2453.927
40.126	24.249	2393.637	2459.099
41.140	24.667	2394.357	2465.337
42.155	24.296	2390.375	2455.804
43.169	23.980	2388.668	2449.391
44.184	24.185	2384.829	2447.989
45.199	24.045	2382.372	2443.251
46.213	23.964	2381.459	2440.897
47.228	23.955	2380.187	2439.174
48.242	23.959	2378.892	2437.620
49.257	24.105	2377.936	2438.347
50.271	24.176	2375.510	2436.548
51.286	24.000	2373.275	2431.556
52.301	24.017	2370.694	2428.842
53.315	23.727	2369.556	2423.408
54.330	23.364	2367.473	2416.020
55.344	23.138	2363.242	2408.320
56.359	23.239	2359.485	2405.587
57.374	23.093	2356.794	2400.562
58.388	23.033	2354.734	2397.355
59.403	23.254	2351.930	2397.218
60.417	23.420	2350.846	2398.087
61.432	23.738	2349.003	2400.242
62.447	23.646	2347.176	2396.844
63.461	23.551	2344.702	2392.744
64.476	23.442	2343.318	2389.568
65.490	23.779	2343.615	2394.144
66.505	24.076	2343.403	2397.667
67.520	24.039	2342.590	2396.046
68.534	23.869	2338.966	2389.756
69.549	23.880	2335.855	2386.437
70.563	24.113	2333.649	2387.043
71.578	24.060	2332.953	2385.332
72.593	24.185	2330.856	2384.578
73.607	24.273	2330.121	2384.719
74.622	24.378	2328.422	2384.105
75.636	24.081	2324.924	2376.264
76.651	24.051	2322.238	2372.825
77.666	24.095	2320.711	2371.566
78.680	24.173	2318.674	2370.253
79.695	24.217	2317.089	2368.939
80.709	24.251	2315.974	2367.968
81.724	24.303	2314.294	2366.663
82.739	24.215	2311.029	2361.861
83.753	24.101	2308.499	2357.481
84.768	23.954	2306.425	2353.120
85.782	23.842	2305.640	2350.555
86.797	23.890	2304.208	2349.445
87.812	23.829	2301.582	2345.677
88.826	23.734	2299.994	2342.515
89.841	23.946	2297.553	2342.567
90.855	24.217	2295.307	2343.570
91.870	23.973	2294.678	2339.431
92.884	24.027	2292.212	2337.340
93.899	24.107	2291.258	2337.153
94.914	23.760	2290.126	2331.133
95.928	23.688	2288.734	2328.492
96.943	23.526	2286.320	2323.632
97.957	23.573	2284.238	2321.848
98.972	23.781	2282.292	2322.333
99.987	23.783	2278.347	2318.064
101.001	23.722	2277.068	2315.689
102.016	23.891	2274.923	2315.432
103.030	23.862	2272.718	2312.540
104.045	23.981	2270.348	2311.404
105.060	24.201	2269.475	2313.109
106.074	24.071	2266.792	2308.400
107.089	23.847	2264.248	2302.622
108.103	23.908	2264.647	2303.546
109.118	23.910	2263.555	2302.183
110.133	24.106	2260.937	2301.786
111.147	24.273	2259.112	2301.826
112.162	24.263	2258.574	2300.877
113.176	24.142	2254.947	2295.333
114.191	23.960	2253.816	2291.553
115.206	23.971	2252.102	2289.682
116.220	23.958	2250.396	2287.496
117.235	23.954	2247.563	2284.301
118.249	23.852	2245.794	2280.909
119.264	24.186	2244.771	2283.898
120.279	24.314	2242.558	2283.028
121.293	24.124	2240.645	2278.362
122.308	24.079	2238.730	2275.558
123.322	24.125	2237.852	2274.991
124.337	23.824	2235.888	2268.854
125.352	23.731	2235.925	2267.432
126.366	23.852	2234.324	2267.087
127.381	23.692	2231.069	2261.464
128.395	23.782	2228.166	2259.396
129.410	24.023	2226.422	2260.445
130.424	24.220	2224.732	2260.967
131.439	23.936	2223.509	2255.833
132.454	23.739	2221.919	2251.442
133.468	24.040	2218.721	2251.762
134.483	24.009	2216.437	2248.780
135.497	23.758	2215.332	2244.203
136.512	23.899	2212.576	2242.924
137.527	23.890	2211.044	2240.997
138.541	23.887	2210.249	2239.874
139.556	23.686	2209.516	2236.325
140.570	23.721	2208.343	2235.309
141.585	23.784	2205.828	2233.292
142.600	23.726	2204.758	2231.217
143.614	23.666	2203.138	2228.550
144.629	23.796	2201.648	2228.418
145.643	23.691	2198.796	2223.937
146.658	23.706	2197.255	2222.304
147.673	23.835	2195.732	2222.116
148.687	24.018	2194.221	2222.613
149.702	23.973	2193.385	2220.935
150.716	23.787	2192.708	2217.663
151.731	23.860	2192.430	2218.031
152.746	24.224	2191.000	2220.879
153.760	24.026	2188.598	2215.700
154.775	23.463	2186.480	2206.251
155.789	23.084	2184.214	2198.965
156.804	23.213	2181.391	2197.466
157.819	23.553	2179.560	2199.601
158.833	23.930	2177.042	2201.483
159.848	23.973	2175.389	2200.077
160.862	24.220	2174.758	2202.245
161.877	24.185	2174.314	2201.105
162.892	24.235	2171.443	2198.556
163.906	24.134	2170.587	2196.170
164.921	24.130	2168.767	2194.020
165.935	24.094	2166.334	2190.842
166.950	24.007	2163.515	2186.664
167.964	23.855	2162.012	2183.004
168.979	23.773	2159.887	2179.586
169.994	23.915	2159.471	2180.657
171.008	24.000	2157.615	2179.566
172.023	23.872	2156.451	2176.555
173.037	23.968	2154.945	2175.957
174.052	23.898	2152.733	2172.596
175.067	23.716	2151.616	2168.975
176.081	23.858	2150.314	2169.154
177.096	24.028	2149.556	2170.204
178.110	23.763	2146.422	2163.535
179.125	23.724	2145.708	2162.086
180.140	23.916	2144.665	2163.126
181.154	23.853	2143.389	2160.801
182.169	23.862	2140.904	2158.153
183.183	23.740	2139.258	2154.744
184.198	23.278	2137.975	2147.566
185.213	23.192	2135.940	2144.224
186.227	23.704	2136.550	2150.805
187.242	24.033	2134.526	2152.509
188.256	23.999	2132.631	2149.929
189.271	24.218	2131.504	2151.193
190.286	24.201	2129.897	2149.109
191.300	23.881	2126.249	2141.296
192.315	23.806	2124.738	2138.617
193.329	24.041	2123.986	2140.446
194.344	24.215	2122.669	2140.956
195.359	24.182	2122.108	2139.737
196.373	24.191	2119.943	2137.410
197.388	24.016	2117.671	2132.754
198.402	24.010	2114.650	2129.387
199.417	23.887	2112.562	2125.553
200.432	23.952	2111.064	2124.565
201.446	24.047	2110.566	2124.949
202.461	24.093	2108.616	2123.292
203.475	23.930	2106.521	2118.967
204.490	24.020	2103.425	2116.685
205.504	23.849	2102.341	2113.293
206.519	23.697	2100.800	2109.673
207.534	23.716	2098.277	2107.114
208.548	23.781	2097.067	2106.426
209.563	23.721	2096.400	2104.789
210.577	23.433	2094.851	2099.552
211.592	23.763	2093.885	2102.260
212.607	23.726	2092.359	2100.030
213.621	22.953	2090.615	2088.854
214.636	22.960	2088.607	2086.682
215.650	23.560	2088.359	2093.294
216.665	23.858	2086.316	2094.534
217.680	24.040	2085.081	2095.189
218.694	24.052	2084.079	2094.081
219.709	23.990	2081.648	2090.650
220.723	23.940	2080.939	2089.096
221.738	24.016	2078.735	2087.537
222.753	23.898	2077.120	2084.273
223.767	23.994	2075.180	2083.202
224.782	23.874	2072.423	2078.778
225.796	23.684	2071.434	2075.302
226.811	24.061	2070.304	2078.353
227.826	24.242	2069.052	2078.964
228.840	24.292	2068.255	2078.506
229.855	24.134	2066.872	2075.011
230.869	23.995	2065.103	2071.360
231.884	24.010	2062.183	2068.359
232.899	23.795	2060.941	2064.360
233.913	23.788	2059.572	2062.661
234.928	23.789	2059.621	2062.473
235.942	24.097	2058.086	2064.276
236.957	24.125	2056.569	2062.831
237.972	24.018	2055.164	2059.936
238.986	24.168	2054.297	2060.562
240.001	24.078	2052.591	2057.560
241.015	23.830	2050.992	2052.828
242.030	23.945	2049.699	2052.619
243.045	23.771	2048.246	2048.910
244.059	23.639	2046.135	2045.021
245.074	23.944	2043.389	2045.555
246.088	24.008	2041.156	2043.811
247.103	23.962	2039.041	2040.926
248.117	24.026	2038.262	2040.634
249.132	24.081	2037.589	2040.349
250.147	24.107	2034.156	2036.972
251.161	23.754	2031.944	2030.459
252.176	23.760	2031.840	2030.178
253.190	23.657	2028.368	2025.283
254.205	22.841	2024.975	2012.308
255.220	22.629	2022.728	2007.413
256.234	22.789	2022.887	2009.157
257.249	22.843	2022.495	2009.146
258.263	22.712	2020.853	2005.782
259.278	22.513	2019.557	2001.976
260.293	22.776	2018.068	2003.264
261.307	23.174	2018.032	2007.529
262.322	23.855	2015.878	2012.899
263.336	23.573	2014.730	2008.301
264.351	23.605	2013.062	2006.767
265.366	23.851	2012.059	2008.317
266.380	23.912	2010.628	2007.342
267.395	23.721	2008.423	2002.732
268.409	23.726	2007.575	2001.710
269.424	23.952	2006.472	2002.921
270.439	24.081	2005.761	2003.441
271.453	23.812	2003.727	1998.121
272.468	23.364	2000.810	1989.916
273.482	23.256	1999.171	1986.835
274.497	23.614	1996.738	1988.210
275.512	23.810	1995.480	1988.926
276.526	23.920	1993.938	1988.381
277.541	23.908	1991.806	1985.885
278.555	23.962	1990.030	1984.479
279.570	23.520	1987.953	1977.224
280.585	23.485	1986.722	1975.366
281.599	23.744	1986.289	1977.606
282.614	23.888	1984.293	1976.993
283.628	23.260	1981.646	1967.099
284.643	22.932	1979.474	1961.052
285.657	23.112	1978.565	1961.923
286.672	23.024	1976.812	1958.973
287.687	22.843	1974.132	1954.063
288.701	22.542	1973.147	1949.511
289.716	22.546	1971.604	1947.796
290.730	22.486	1969.286	1944.610
291.745	22.550	1969.195	1945.001
292.760	22.654	1967.416	1944.166
293.774	22.969	1967.730	1947.725
294.789	23.522	1968.495	1954.374
295.803	23.777	1965.919	1954.404
296.818	23.849	1965.367	1954.415
297.833	24.024	1964.936	1955.693
298.847	24.121	1964.013	1955.614
299.862	24.146	1961.115	1952.767
300.876	24.010	1959.404	1949.329
301.891	23.493	1957.129	1941.146
302.906	23.581	1957.193	1941.948
303.920	24.165	1956.759	1947.704
304.935	24.157	1953.481	1944.116
305.949	24.102	1950.819	1940.635
306.964	24.058	1950.289	1939.393
307.979	23.731	1947.869	1933.174
308.993	23.330	1944.561	1925.285
310.008	23.102	1941.757	1919.794
311.022	22.880	1941.192	1916.580
312.037	22.934	1938.634	1914.413
313.052	22.600	1937.230	1909.162
314.066	22.268	1934.832	1902.958
315.081	22.258	1933.910	1901.714
316.095	22.208	1932.086	1899.155
317.110	22.085	1931.029	1896.546
318.125	22.399	1929.575	1898.302
319.139	22.500	1929.113	1898.709
320.154	22.810	1928.640	1901.378
321.168	23.046	1926.095	1901.194
322.183	23.407	1927.036	1905.792
323.197	23.619	1927.063	1907.889
324.212	23.660	1924.996	1906.056
325.227	23.792	1922.699	1904.974
326.241	23.957	1921.458	1905.286
327.256	24.050	1920.645	1905.255
328.270	23.851	1919.163	1901.420
329.285	23.921	1919.213	1901.991
330.300	23.862	1919.097	1901.017
331.314	23.358	1916.384	1892.695
332.329	23.184	1914.533	1888.775
333.343	23.659	1912.607	1891.730
334.358	24.260	1911.040	1896.389
335.373	24.181	1909.767	1894.050
336.387	24.111	1907.873	1891.200
337.402	24.084	1906.759	1889.578
338.416	23.977	1905.209	1886.679
339.431	24.088	1903.480	1885.928
340.446	24.261	1902.226	1886.298
341.460	23.756	1899.241	1877.748
342.475	22.825	1895.697	1864.138
343.489	22.462	1893.053	1857.468
344.504	22.521	1892.103	1856.938
345.519	22.623	1890.829	1856.551
346.533	22.448	1889.014	1852.695
347.548	22.501	1887.423	1851.467
348.562	22.527	1886.106	1850.233
349.577	22.559	1885.928	1850.170
350.592	22.725	1884.146	1849.953
351.606	22.902	1882.857	1850.332
352.621	22.844	1881.049	1847.724
353.635	22.982	1881.091	1848.993
354.650	23.295	1880.224	1851.210
355.665	23.575	1879.112	1852.827
356.679	23.926	1878.938	1856.123
357.694	24.099	1877.197	1855.992
358.708	24.046	1876.537	1854.559
359.723	23.988	1875.835	1853.037
360.738	23.617	1873.486	1846.616
361.752	23.408	1873.012	1843.742
362.767	23.859	1870.806	1846.058
363.781	23.982	1868.788	1845.134
364.796	23.796	1867.230	1841.430
365.810	23.781	1865.634	1839.480
366.825	23.697	1864.567	1837.342
367.840	23.859	1863.847	1838.090
368.854	23.829	1862.436	1836.165
369.869	23.349	1859.942	1828.511
370.883	22.596	1856.823	1817.422
371.898	22.268	1853.926	1810.977
372.913	21.980	1853.947	1807.796
373.927	22.098	1852.007	1806.918
374.942	22.180	1849.995	1805.583
375.956	22.097	1847.167	1801.747
376.971	21.762	1846.048	1796.989
377.986	21.827	1844.069	1795.518
379.000	22.342	1843.966	1800.498
380.015	23.327	1845.208	1811.632
381.029	24.022	1844.431	1817.788
382.044	24.156	1842.910	1817.449
383.059	24.172	1840.811	1815.319
384.073	23.980	1839.947	1812.287
385.088	23.783	1838.723	1808.848
386.102	23.671	1836.820	1805.616
387.117	23.537	1834.784	1802.033
388.132	23.623	1834.342	1802.254
389.146	23.659	1835.141	1803.192
390.161	23.313	1832.949	1797.300
391.175	23.147	1830.643	1793.130
392.190	23.614	1827.593	1794.677
393.205	23.511	1825.964	1791.818
394.219	23.748	1823.377	1791.465
395.234	23.778	1823.049	1791.228
396.248	23.787	1821.946	1790.023
397.263	23.751	1819.461	1787.006
398.278	23.734	1817.118	1784.317
399.292	23.652	1816.676	1782.842
400.307	23.811	1816.760	1784.316
401.321	23.777	1813.845	1780.901
402.336	22.602	1809.778	1764.873
403.350	21.989	1807.798	1756.564
404.365	22.212	1807.131	1757.949
405.380	22.425	1806.258	1759.028
406.394	22.425	1805.160	1757.751
407.409	22.404	1803.388	1755.602
408.423	22.205	1801.721	1751.774
409.438	22.298	1800.010	1750.835
410.453	22.918	1801.140	1757.929
411.467	23.359	1800.665	1761.659
412.482	23.538	1800.024	1762.611
413.496	23.674	1799.900	1763.639
414.511	23.826	1797.637	1762.725
415.526	23.725	1795.326	1759.245
416.540	23.847	1794.474	1759.416
417.555	23.869	1791.726	1756.723
418.569	23.686	1792.038	1755.004
419.584	23.838	1791.882	1756.151
420.599	23.811	1792.795	1756.562
421.613	23.758	1791.624	1754.681
422.628	23.934	1789.824	1754.451
423.642	24.240	1788.460	1755.938
424.657	24.065	1786.938	1752.502
425.672	24.016	1784.772	1749.683
426.686	23.837	1783.627	1746.584
427.701	23.889	1781.814	1745.111
428.715	24.047	1780.312	1744.990
429.730	24.131	1778.808	1744.137
430.745	24.062	1777.914	1742.367
431.759	23.962	1776.227	1739.524
432.774	23.475	1774.899	1733.235
433.788	22.686	1772.937	1723.360
434.803	22.456	1771.737	1719.729
435.818	22.458	1771.858	1719.662
436.832	22.478	1770.390	1718.228
437.847	21.270	1760.926	1697.046
438.861	12.015	1735.561	1582.933
439.876	2.239	1717.531	1472.008
440.890	0.413	1712.906	1450.224
441.905	0.331	1712.304	1448.756
442.920	0.110	1711.515	1445.782
443.934	0.215	1709.191	1444.655
444.949	0.213	1707.747	1443.241
445.963	0.052	1707.540	1441.346
446.978	0.074	1707.204	1441.098
447.993	0.128	1705.667	1440.144
449.007	0.114	1703.416	1437.936
450.022	0.211	1701.313	1436.926
451.036	0.129	1700.190	1435.015
452.051	0.778	1702.419	1442.957
453.066	8.449	1723.472	1534.894
454.080	18.977	1740.864	1652.380
455.095	22.073	1745.596	1686.612
456.109	23.109	1747.278	1698.036
457.124	23.462	1746.489	1700.469
458.139	23.284	1745.189	1697.280
459.153	22.860	1744.704	1692.527
460.168	23.066	1742.082	1691.763
461.182	23.101	1740.721	1690.576
462.197	23.102	1738.770	1688.481
463.212	23.187	1737.794	1688.147
464.226	23.257	1737.369	1688.206
465.241	23.359	1735.367	1687.030
466.255	23.307	1734.246	1685.248
467.270	23.279	1733.194	1683.757
468.285	23.308	1732.392	1683.050
469.299	23.266	1730.859	1680.955
470.314	23.386	1727.979	1679.101
471.328	23.361	1726.856	1677.570
472.343	23.233	1725.880	1675.208
473.358	23.132	1724.797	1672.993
474.372	23.265	1722.765	1672.083
475.387	23.265	1722.066	1671.206
476.401	23.193	1720.686	1668.989
477.416	23.119	1719.789	1667.211
478.430	23.105	1717.863	1665.016
479.445	23.226	1716.986	1665.108
480.460	23.210	1715.690	1663.506
481.474	23.214	1714.867	1662.547
482.489	23.289	1712.902	1661.146
483.503	23.049	1710.996	1656.835
484.518	22.952	1710.555	1655.300
485.533	22.986	1709.250	1654.157
486.547	23.094	1707.654	1653.429
487.562	23.041	1705.651	1650.796
488.576	23.004	1704.566	1649.202
489.591	23.113	1703.720	1649.211
490.606	23.155	1702.620	1648.343
491.620	23.198	1700.084	1646.089
492.635	23.014	1698.756	1642.892
493.649	22.933	1697.336	1640.563
494.664	22.960	1697.122	1640.415
495.679	23.102	1695.749	1640.208
496.693	23.229	1692.811	1638.357
497.708	23.171	1692.519	1637.340
498.722	23.137	1691.735	1636.068
499.737	23.085	1690.420	1634.120
500.752	23.226	1688.938	1633.792
501.766	23.363	1687.093	1633.087
502.781	23.219	1685.955	1630.450
503.795	23.298	1685.045	1630.112
504.810	23.245	1683.771	1628.193
505.825	23.222	1683.453	1627.477
506.839	23.331	1681.190	1626.102
507.854	23.152	1680.730	1623.810
508.868	23.002	1678.492	1620.074
509.883	23.040	1676.841	1618.635
510.898	22.985	1675.565	1616.701
511.912	22.999	1674.192	1615.309
512.927	22.955	1673.187	1613.742
513.941	22.929	1671.568	1611.757
514.956	23.239	1670.386	1613.255
515.971	23.501	1668.670	1613.809
516.985	23.340	1667.564	1611.071
518.000	22.994	1666.790	1606.969
519.014	22.977	1665.543	1605.417
520.029	22.836	1664.134	1602.579
521.043	22.948	1662.830	1602.158
522.058	22.888	1661.462	1600.100
523.073	22.855	1661.211	1599.370
524.087	22.762	1659.769	1596.940
525.102	23.046	1657.543	1597.184
526.116	23.229	1657.048	1598.177
527.131	23.220	1657.336	1598.183
528.146	23.139	1656.023	1595.995
529.160	22.888	1654.603	1592.158
530.175	23.003	1653.514	1591.957
531.189	23.094	1651.500	1590.656
532.204	22.997	1650.013	1588.155
533.219	22.959	1648.763	1586.416
534.233	23.050	1647.979	1586.293
535.248	22.981	1646.294	1583.861
536.262	22.714	1645.065	1580.086
537.277	22.777	1644.011	1579.452
538.292	22.898	1642.344	1578.748
539.306	22.827	1640.964	1576.602
540.321	22.840	1639.438	1575.054
541.335	23.067	1638.387	1575.891
542.350	23.012	1636.781	1573.665
543.365	22.674	1635.625	1569.350
544.379	22.778	1633.320	1567.880
545.394	22.734	1632.594	1566.600
546.408	22.785	1631.904	1566.206
547.423	23.081	1630.420	1567.225
548.438	23.135	1629.774	1566.900
549.452	22.998	1628.319	1564.097
550.467	22.948	1626.896	1562.102
551.481	23.040	1626.206	1562.065
552.496	22.999	1624.631	1560.002
553.511	22.890	1623.595	1557.851
554.525	22.829	1622.966	1556.519
555.540	22.824	1621.547	1554.928
556.554	22.814	1620.763	1553.910
557.569	22.901	1618.923	1552.723
558.583	23.053	1617.686	1552.691
559.598	22.891	1616.845	1550.271
560.613	22.858	1615.793	1548.787
561.627	22.896	1613.904	1547.123
562.642	22.787	1611.677	1543.844
563.656	22.588	1609.862	1540.173
564.671	22.458	1608.755	1537.790
565.686	22.580	1607.658	1537.627
566.700	22.628	1606.613	1536.869
567.715	22.800	1605.187	1536.820
568.729	22.706	1604.496	1535.151
569.744	23.085	1602.735	1536.596
570.759	23.137	1601.614	1535.792
571.773	23.032	1600.235	1533.366
572.788	22.847	1598.702	1530.103
573.802	22.689	1596.959	1526.879
574.817	22.586	1595.221	1524.138
575.832	22.319	1594.812	1521.244
576.846	22.523	1594.049	1522.108
577.861	22.728	1593.060	1522.760
578.875	22.794	1592.283	1522.411
579.890	22.616	1591.015	1519.471
580.905	22.638	1589.803	1518.324
581.919	22.712	1589.362	1518.360
582.934	22.602	1588.392	1516.303
583.948	22.589	1586.465	1514.166
584.963	22.521	1584.897	1511.901
585.978	22.607	1583.970	1511.578
586.992	22.528	1582.560	1509.377
588.007	22.465	1581.319	1507.468
589.021	22.581	1581.247	1508.213
590.036	22.748	1580.495	1508.749
591.051	22.773	1578.528	1506.909
592.065	22.412	1576.838	1502.017
593.080	22.321	1574.759	1499.080
594.094	22.358	1573.123	1497.661
595.109	22.609	1572.188	1498.740
596.123	22.728	1571.060	1498.499
597.138	22.695	1569.922	1496.954
598.153	22.672	1567.974	1494.718
599.167	22.578	1566.985	1492.800
600.182	22.418	1566.575	1490.870
601.196	22.539	1564.621	1489.859
602.211	22.623	1563.243	1489.080
603.226	22.491	1562.378	1486.959
604.240	22.375	1560.829	1484.321
605.255	22.374	1559.699	1483.058
606.269	22.406	1559.242	1482.715
607.284	22.585	1557.706	1482.598
608.299	22.507	1556.543	1480.649
609.313	22.554	1555.541	1479.915
610.328	22.669	1553.985	1479.226
611.342	22.607	1552.462	1477.085
612.357	22.179	1552.124	1472.975
613.372	22.279	1551.159	1472.728
614.386	22.319	1549.888	1471.683
615.401	22.508	1548.372	1471.649
616.415	22.320	1547.357	1468.937
617.430	22.206	1546.074	1466.581
618.445	22.070	1544.774	1464.035
619.459	22.022	1544.343	1463.053
620.474	22.345	1543.529	1464.810
621.488	22.708	1543.482	1467.622
622.503	22.842	1542.123	1467.272
623.518	22.338	1540.045	1460.917
624.532	22.045	1538.532	1456.860
625.547	22.058	1537.141	1455.484
626.561	21.833	1535.650	1452.026
627.576	21.713	1534.850	1450.092
628.591	22.078	1534.184	1452.328
629.605	22.352	1533.648	1453.924
630.620	22.574	1532.815	1454.798
631.634	22.710	1531.444	1454.447
632.649	22.695	1530.958	1453.688
633.663	22.331	1528.727	1448.384
634.678	22.036	1526.288	1443.470
635.693	21.757	1524.824	1439.603
636.707	21.817	1522.655	1437.877
637.722	21.700	1521.484	1435.638
638.736	21.958	1520.401	1436.568
639.751	22.025	1520.673	1437.206
640.766	22.249	1518.537	1436.855
641.780	22.023	1517.809	1434.133
642.795	22.247	1517.080	1435.112
643.809	22.178	1516.108	1433.459
644.824	22.181	1515.784	1433.006
645.839	22.284	1514.879	1432.816
646.853	22.250	1512.746	1430.353
647.868	22.248	1511.224	1428.730
648.882	22.078	1510.422	1426.407
649.897	22.152	1509.140	1425.629
650.912	22.040	1507.148	1422.671
651.926	22.049	1506.263	1421.736
652.941	22.096	1505.109	1420.858
653.955	22.224	1504.300	1420.966
654.970	22.603	1502.701	1422.362
655.985	22.548	1501.278	1420.391
656.999	22.452	1500.314	1418.539
658.014	22.306	1498.762	1415.717
659.028	22.046	1497.821	1412.559
660.043	21.908	1497.585	1411.052
661.058	22.028	1494.738	1409.167
662.072	21.967	1493.659	1407.490
663.087	21.951	1493.222	1406.780
664.101	21.949	1492.671	1406.075
665.116	21.967	1491.077	1404.552
666.131	22.027	1489.436	1403.321
667.145	22.015	1489.067	1402.711
668.160	21.958	1487.760	1400.850
669.174	21.795	1485.759	1397.496
670.189	21.698	1484.873	1395.715
671.204	22.095	1484.340	1398.225
672.218	22.081	1483.627	1397.275
673.233	22.062	1482.033	1395.455
674.247	21.821	1480.197	1391.636
675.262	21.793	1479.313	1390.412
676.276	21.717	1478.129	1388.533
677.291	21.871	1477.824	1389.304
678.306	22.182	1476.647	1390.507
679.320	22.094	1475.318	1388.386
680.335	21.919	1474.378	1385.949
681.349	21.789	1473.701	1384.113
682.364	21.748	1472.529	1382.521
683.379	21.688	1471.236	1380.666
684.393	21.734	1469.638	1379.366
685.408	21.579	1468.631	1377.033
686.422	21.678	1467.179	1376.284
687.437	21.666	1466.139	1375.050
688.452	21.319	1465.641	1371.684
689.466	21.485	1463.381	1370.708
690.481	21.497	1462.180	1369.518
691.495	21.641	1462.672	1370.943
692.510	21.956	1463.052	1373.612
693.525	22.273	1461.269	1374.272
694.539	22.052	1459.250	1370.469
695.554	21.561	1458.067	1365.345
696.568	21.342	1456.515	1362.019
697.583	21.192	1455.485	1359.718
698.598	21.380	1453.925	1359.563
699.612	21.349	1453.071	1358.364
700.627	21.416	1452.042	1357.760
701.641	21.598	1451.228	1358.258
702.656	21.557	1450.274	1356.878
703.671	21.450	1449.459	1355.122
704.685	21.505	1448.877	1354.844
705.700	21.414	1446.984	1352.200
706.714	21.568	1446.252	1352.558
707.729	21.601	1445.231	1351.690
708.744	21.508	1444.088	1349.742
709.758	21.436	1442.937	1347.947
710.773	21.710	1442.407	1349.413
711.787	21.917	1440.518	1349.086
712.802	21.825	1438.360	1346.188
713.816	21.552	1437.566	1343.181
714.831	21.674	1436.559	1343.017
715.846	21.474	1435.120	1339.974
716.860	21.194	1434.036	1336.645
717.875	21.481	1432.861	1337.596
718.889	21.497	1432.426	1337.152
719.904	21.398	1431.179	1335.073
720.919	21.362	1429.657	1333.213
721.933	21.243	1428.748	1331.297
722.948	21.305	1427.863	1330.784
723.962	21.299	1426.027	1328.870
724.977	21.156	1424.989	1326.653
725.992	21.095	1424.688	1325.750
727.006	21.376	1422.729	1325.911
728.021	21.260	1421.279	1323.512
729.035	21.241	1420.663	1322.640
730.050	21.225	1419.778	1321.531
731.065	21.426	1418.294	1321.525
732.079	21.348	1417.065	1319.629
733.094	21.253	1417.171	1318.846
734.108	21.657	1415.683	1320.366
735.123	21.519	1413.783	1317.392
736.138	21.482	1413.266	1316.473
737.152	21.515	1411.166	1314.608
738.167	21.334	1410.480	1312.446
739.181	21.247	1409.682	1310.891
740.196	21.258	1408.513	1309.731
741.211	21.106	1407.689	1307.662
742.225	21.190	1407.367	1307.836
743.240	21.171	1405.466	1305.768
744.254	21.042	1403.452	1302.772
745.269	21.038	1402.583	1301.784
746.284	20.940	1401.719	1300.090
747.298	21.110	1400.979	1300.521
748.313	21.369	1400.734	1302.079
749.327	21.592	1400.311	1303.198
750.342	21.882	1400.578	1305.461
751.356	22.129	1399.519	1306.163
752.371	22.018	1397.265	1303.071
753.386	21.431	1394.960	1296.396
754.400	21.200	1393.846	1293.484
755.415	21.151	1392.717	1291.918
756.429	21.165	1391.344	1290.594
757.444	21.196	1390.393	1289.784
758.459	21.014	1389.530	1287.479
759.473	21.007	1387.882	1285.750
760.488	21.072	1386.372	1284.680
761.502	21.065	1384.877	1283.084
762.517	20.787	1384.726	1280.740
763.532	21.248	1383.321	1282.692
764.546	21.091	1383.150	1281.220
765.561	21.343	1383.010	1282.792
766.575	21.898	1382.651	1286.400
767.590	22.132	1380.907	1286.349
768.605	21.532	1379.012	1280.013
769.619	21.304	1377.185	1276.493
770.634	21.258	1375.792	1274.711
771.648	21.164	1374.243	1272.439
772.663	20.920	1373.847	1270.127
773.678	20.983	1373.510	1270.130
774.692	20.962	1373.299	1269.629
775.707	20.877	1372.561	1268.167
776.721	21.091	1371.191	1268.318
777.736	20.948	1369.687	1265.726
778.751	21.076	1368.695	1265.598
779.765	21.060	1367.975	1264.661
780.780	21.077	1366.913	1263.650
781.794	21.118	1365.728	1262.702
782.809	21.020	1364.664	1260.859
783.824	20.813	1363.556	1258.180
784.838	21.053	1363.058	1259.310
785.853	21.545	1362.887	1262.573
786.867	21.334	1362.190	1260.247
787.882	21.208	1361.280	1258.341
788.897	20.974	1359.532	1254.882
789.911	20.933	1357.901	1252.925
790.926	20.757	1357.087	1250.756
791.940	20.713	1355.504	1248.828
792.955	20.557	1354.458	1246.594
793.969	20.580	1353.429	1245.664
794.984	20.671	1352.640	1245.439
795.999	20.706	1351.373	1244.378
797.013	20.819	1349.890	1243.671
798.028	20.758	1348.323	1241.647
799.042	20.845	1347.459	1241.325
800.057	20.747	1346.839	1239.899
801.072	20.705	1345.123	1237.876
802.086	20.893	1343.481	1237.558
803.101	20.828	1342.062	1235.636
804.115	20.879	1341.813	1235.625
805.130	20.851	1340.323	1233.906
806.145	20.874	1338.780	1232.499
807.159	20.753	1337.887	1230.668
808.174	21.011	1336.978	1231.515
809.188	20.880	1336.528	1230.028
810.203	21.090	1334.745	1229.724
811.218	21.298	1333.530	1229.934
812.232	21.286	1333.215	1229.405
813.247	21.509	1332.075	1229.787
814.261	21.127	1330.938	1225.890
815.276	20.960	1329.482	1223.230
816.291	20.708	1328.415	1220.323
817.305	20.828	1326.620	1219.376
818.320	20.788	1325.176	1217.617
819.334	20.724	1324.874	1216.748
820.349	20.786	1323.400	1215.678
821.364	20.541	1321.902	1212.442
822.378	20.583	1320.747	1211.530
823.393	20.617	1318.880	1209.915
824.407	20.676	1317.314	1208.740
825.422	20.645	1316.959	1208.055
826.437	20.809	1316.167	1208.326
827.451	20.521	1315.023	1205.125
828.466	21.057	1314.447	1208.189
829.480	21.323	1312.195	1207.823
830.495	21.095	1310.392	1204.432
831.509	20.725	1309.585	1200.983
832.524	20.621	1308.218	1198.867
833.539	20.617	1307.126	1197.695
834.553	20.729	1305.916	1197.218
835.568	20.605	1304.621	1195.026
836.582	20.646	1303.722	1194.343
837.597	20.672	1302.528	1193.290
838.612	20.771	1300.715	1192.166
839.626	20.780	1300.181	1191.597
840.641	20.888	1299.525	1191.593
841.655	21.022	1298.967	1191.858
842.670	21.372	1298.720	1193.895
843.685	21.661	1298.187	1195.245
844.699	21.490	1295.974	1191.892
845.714	20.941	1294.196	1186.362
846.728	20.815	1292.895	1184.167
847.743	20.801	1292.100	1183.197
848.758	20.591	1290.736	1180.373
849.772	20.641	1289.022	1179.007
850.787	20.577	1287.495	1177.037
851.801	20.468	1286.647	1175.374
852.816	20.506	1285.225	1174.196
853.831	20.357	1284.308	1172.205
854.845	20.504	1282.336	1171.262
855.860	20.546	1280.736	1169.943
856.874	20.612	1280.091	1169.663
857.889	20.770	1278.915	1169.515
858.904	20.995	1278.323	1170.351
859.918	21.207	1277.328	1170.727
860.933	21.411	1275.912	1170.663
861.947	21.222	1274.369	1167.835
862.962	20.987	1273.122	1164.974
863.977	20.619	1271.819	1161.176
864.991	20.453	1271.247	1159.401
866.006	20.590	1269.888	1158.941
867.020	20.545	1268.590	1157.317
868.035	20.621	1267.721	1156.891
869.049	20.487	1266.792	1155.014
870.064	20.594	1265.350	1154.273
871.079	20.740	1264.725	1154.538
872.093	20.549	1264.552	1152.967
873.108	20.576	1263.750	1152.281
874.122	20.621	1263.647	1152.344
875.137	21.026	1263.274	1154.567
876.152	21.200	1261.486	1153.951
877.166	21.214	1259.621	1152.195
878.181	20.921	1257.970	1148.605
879.195	20.826	1257.602	1147.506
880.210	20.725	1256.765	1145.939
881.225	20.682	1254.975	1143.884
882.239	20.678	1253.661	1142.520
883.254	20.507	1253.205	1140.840
884.268	20.573	1252.336	1140.349
885.283	20.717	1250.671	1139.641
886.298	20.448	1249.540	1136.709
887.312	20.681	1248.400	1137.063
888.327	20.745	1247.232	1136.287
889.341	20.806	1245.348	1134.833
890.356	20.593	1245.461	1133.406
891.371	20.662	1245.395	1133.659
892.385	20.454	1244.642	1131.477
893.400	20.510	1243.616	1130.772
894.414	20.480	1242.664	1129.581
895.429	21.006	1241.231	1131.573
896.444	21.430	1240.464	1133.499
897.458	21.923	1239.564	1135.750
898.473	21.403	1238.623	1131.370
899.487	20.958	1237.433	1127.260
900.502	20.647	1235.422	1123.270
901.517	20.477	1234.282	1120.998
902.531	20.562	1233.541	1120.744
903.546	20.613	1233.203	1120.634
904.560	20.632	1232.249	1119.755
905.575	20.776	1230.939	1119.358
906.589	20.825	1230.094	1118.772
907.604	20.741	1229.783	1117.815
