DTS Sentinel unit serial number:	SN409020Multiplexer serial number:	ORYXHardware model number:	OX4-SRSoftware version number:	ORYX F/W v3.00 Oryx Data Collector v3.7.2.0data status	okinstallation	HaddamTimeLapsedifferential loss correction	single-endedforward channel	channel 3reverse channel	N/Adate	2011/06/21time	23:26:17forward acquisition time	30.00reverse acquisition time	0.00gamma	498.7831k internal	0.1754k external	0.1754temperature offset calibration	1.0074default loss term (dB/km)	0.3790temperature slope calibration	1.3530multiplexer offset coefficient	1.0000multiplexer slope coefficient	1.0000fibre end	0.00T internal ref (°C)	23.28T ext. ref 1 (°C)	18.66T ext. ref 2 (°C)	0.06length (m)	temperature (°C)	Stokes	anti-Stokes-747.200	-30.432	0.095	-0.072
-746.185	-58.492	0.211	0.121
-745.171	-17.995	0.396	-0.329
-744.156	77.658	-0.249	0.353
-743.142	-146.634	-0.498	-0.057
-742.127	-32.248	-0.438	0.323
-741.112	-13.770	0.018	0.015
-740.098	281.268	0.108	0.258
-739.083	-96.546	-0.047	-0.016
-738.069	111.455	-0.200	0.321
-737.054	-88.241	-0.324	-0.128
-736.039	-46.665	-0.188	0.122
-735.025	15.991	-0.005	-0.005
-734.010	-158.567	0.416	-0.031
-732.996	67.992	0.055	0.074
-731.981	-55.351	0.169	-0.101
-730.966	1.250	-0.172	-0.164
-729.952	-112.571	0.447	-0.117
-728.937	-41.632	0.303	-0.206
-727.923	113.591	-0.253	-0.407
-726.908	-10.810	-0.230	0.202
-725.894	-200.000	-0.010	-0.285
-724.879	800.000	-0.027	0.149
-723.864	484.262	0.048	-0.145
-722.850	65.007	0.174	-0.233
-721.835	65.943	-0.182	0.245
-720.821	53.601	0.162	-0.206
-719.806	-200.000	0.046	-0.333
-718.791	-91.654	-0.692	0.260
-717.777	-173.177	0.267	0.011
-716.762	99.555	0.146	0.225
-715.748	277.154	0.042	0.098
-714.733	-106.032	0.414	0.123
-713.718	-131.288	-0.353	-0.061
-712.704	-19.536	-0.134	-0.109
-711.689	-32.820	-0.199	-0.146
-710.675	-83.793	0.229	-0.096
-709.660	-171.967	-0.130	-0.005
-708.645	179.766	0.302	-0.587
-707.631	-154.810	-0.244	-0.021
-706.616	397.458	0.217	-0.605
-705.602	-178.497	0.253	-0.008
-704.587	800.000	-0.110	-0.424
-703.572	-125.868	-0.676	-0.134
-702.558	-120.217	0.241	-0.054
-701.543	-167.823	-0.267	-0.014
-700.529	170.937	0.174	0.331
-699.514	294.057	-0.164	0.399
-698.499	-107.409	-0.223	0.064
-697.485	443.506	-0.154	0.448
-696.470	-94.674	-0.100	-0.036
-695.456	-119.150	-0.224	-0.051
-694.441	-167.437	0.402	0.021
-693.426	25.153	0.338	0.371
-692.412	-200.000	-0.013	-0.232
-691.397	-114.067	-0.533	0.136
-690.383	18.733	-0.365	0.386
-689.368	-31.276	-0.053	-0.039
-688.354	115.148	0.158	0.255
-687.339	-75.787	-0.406	0.190
-686.324	800.000	-0.055	0.303
-685.310	-29.284	0.300	0.227
-684.295	-39.002	0.111	0.077
-683.281	-200.000	-0.018	-0.178
-682.266	-14.146	0.301	-0.257
-681.251	-200.000	0.050	-0.301
-680.237	217.115	0.132	-0.278
-679.222	-200.000	-0.034	-0.228
-678.208	-130.974	-0.456	-0.080
-677.193	-52.963	-0.070	0.043
-676.178	23.632	0.251	0.274
-675.164	-60.900	0.213	-0.119
-674.149	-200.000	-0.089	-0.642
-673.135	-200.000	0.041	-0.240
-672.120	215.474	0.178	0.376
-671.105	-141.168	-0.283	-0.038
-670.091	-52.245	-0.262	-0.160
-669.076	154.562	-0.303	-0.552
-668.062	82.882	-0.165	-0.238
-667.047	-145.861	-0.446	-0.052
-666.032	-51.065	-0.489	0.302
-665.018	507.275	-0.058	0.180
-664.003	729.295	0.081	0.287
-662.989	-42.909	0.071	0.047
-661.974	-143.564	-0.375	0.047
-660.959	197.119	0.186	-0.376
-659.945	-83.568	-0.446	-0.188
-658.930	-123.954	-0.554	0.114
-657.916	422.354	-0.156	-0.444
-656.901	-89.184	-0.347	-0.135
-655.886	-146.451	0.220	-0.025
-654.872	158.438	-0.214	0.393
-653.857	-130.687	-0.474	-0.083
-652.843	18.278	0.050	-0.053
-651.828	112.546	0.143	0.230
-650.814	-82.267	-0.054	0.023
-649.799	48.781	-0.179	0.222
-648.784	-200.000	-0.021	-0.324
-647.770	-31.097	0.292	-0.217
-646.755	-108.256	-0.561	0.159
-645.741	149.470	0.131	0.235
-644.726	698.274	-0.052	-0.181
-643.711	-200.000	0.065	-0.402
-642.697	-97.398	0.616	-0.211
-641.682	800.000	0.051	0.241
-640.668	-101.677	-0.256	-0.081
-639.653	233.251	0.051	-0.112
-638.638	34.193	0.421	-0.485
-637.624	-200.000	0.081	0.523
-636.609	-84.052	0.215	0.090
-635.595	179.564	0.125	0.243
-634.580	17.349	-0.216	0.227
-633.565	76.139	-0.150	-0.210
-632.551	-125.389	-0.152	-0.030
-631.536	274.620	-0.147	-0.345
-630.522	-49.288	-0.455	0.286
-629.507	-52.788	-0.511	-0.310
-628.492	311.323	0.103	-0.255
-627.478	-200.000	0.003	0.150
-626.463	313.200	-0.107	-0.266
-625.449	-200.000	-0.039	-0.519
-624.434	67.508	0.323	-0.436
-623.419	119.097	-0.280	0.457
-622.405	-129.202	-0.180	-0.033
-621.390	-54.092	0.540	-0.323
-620.376	-93.248	-0.380	-0.139
-619.361	150.528	0.115	0.206
-618.346	-93.720	-0.222	-0.080
-617.332	800.000	-0.057	0.290
-616.317	54.141	-0.219	-0.278
-615.303	-200.000	-0.041	0.450
-614.288	89.900	0.210	-0.310
-613.273	800.000	-0.068	0.267
-612.259	800.000	0.075	-0.292
-611.244	-110.710	0.429	0.116
-610.230	-23.745	0.038	-0.030
-609.215	319.775	-0.074	-0.185
-608.201	-111.737	0.314	-0.083
-607.186	800.000	-0.109	0.451
-606.171	-124.767	-0.179	-0.036
-605.157	-46.740	-0.142	0.091
-604.142	-145.282	-0.022	0.003
-603.128	72.496	-0.202	-0.278
-602.113	-191.487	-0.397	-0.005
-601.098	-46.278	0.212	-0.137
-600.084	800.000	0.017	0.085
-599.069	-104.293	-0.228	-0.069
-598.055	-130.569	0.113	0.020
-597.040	-200.000	0.010	0.388
-596.025	318.746	-0.097	0.244
-595.011	17.576	0.136	0.143
-593.996	-160.707	-0.780	0.054
-592.982	-156.446	-0.210	0.017
-591.967	240.925	-0.190	0.419
-590.952	-148.068	0.394	0.043
-589.938	33.688	0.256	-0.293
-588.923	-200.000	-0.010	0.460
-587.909	107.105	-0.105	-0.165
-586.894	360.033	0.105	-0.279
-585.879	-69.715	-0.143	0.072
-584.865	800.000	-0.063	0.288
-583.850	-10.102	-0.437	0.382
-582.836	273.732	-0.111	0.259
-581.821	-90.134	-0.410	-0.156
-580.806	50.345	0.261	-0.325
-579.792	-200.000	0.014	0.283
-578.777	-71.050	-0.491	-0.243
-577.763	658.091	-0.125	-0.426
-576.748	-105.173	0.331	0.099
-575.733	100.189	-0.214	0.328
-574.719	-3.551	-0.362	-0.331
-573.704	-62.328	-0.584	0.319
-572.690	-59.858	-0.434	0.244
-571.675	-112.066	0.101	-0.027
-570.661	19.009	0.188	-0.199
-569.646	-58.079	0.221	-0.127
-568.631	-200.000	0.073	-0.428
-567.617	-95.429	0.417	0.147
-566.602	-58.933	-0.404	-0.229
-565.588	800.000	0.078	-0.393
-564.573	20.529	0.162	-0.172
-563.558	95.022	0.211	-0.317
-562.544	-6.339	-0.368	0.330
-561.529	-22.352	0.270	-0.215
-560.515	-133.078	0.109	0.018
-559.500	-25.702	0.077	-0.059
-558.485	50.399	0.082	0.103
-557.471	21.015	-0.012	-0.013
-556.456	800.000	-0.050	0.188
-555.442	-102.093	-0.208	0.066
-554.427	-57.070	-0.282	-0.163
-553.412	-37.004	-0.319	-0.225
-552.398	28.534	-0.387	-0.431
-551.383	-80.725	-0.156	-0.068
-550.369	-55.677	-0.445	-0.261
-549.354	166.012	0.128	-0.239
-548.339	1.640	0.219	0.207
-547.325	-78.827	-0.136	0.061
-546.310	-8.118	0.248	0.220
-545.296	-200.000	-0.000	0.205
-544.281	129.168	0.197	-0.331
-543.266	-174.678	-0.223	0.008
-542.252	-140.064	0.230	-0.032
-541.237	-11.703	0.135	0.116
-540.223	97.570	0.113	0.171
-539.208	-26.066	-0.469	-0.362
-538.193	800.000	0.064	-0.291
-537.179	-120.373	0.468	0.104
-536.164	186.786	-0.178	-0.349
-535.150	-87.489	0.341	-0.135
-534.135	-23.248	-0.272	-0.215
-533.121	414.456	0.137	-0.387
-532.106	-58.015	0.258	-0.148
-531.091	43.641	0.226	-0.272
-530.077	163.340	0.184	0.341
-529.062	71.022	-0.040	-0.054
-528.048	135.624	-0.075	0.128
-527.033	-178.386	-0.250	0.008
-526.018	0.223	-0.205	0.192
-525.004	10.180	0.121	-0.121
-523.989	-200.000	-0.027	0.221
-522.975	-200.000	-0.007	0.362
-521.960	-200.000	-0.032	-0.225
-520.945	53.614	-0.334	0.421
-519.931	-200.000	-0.019	-0.177
-518.916	95.635	0.209	0.314
-517.902	-200.000	0.004	-0.074
-516.887	96.174	0.159	0.240
-515.872	800.000	-0.028	-0.134
-514.858	-127.098	-0.168	-0.032
-513.843	-73.837	-0.292	0.139
-512.829	-200.000	-0.048	0.332
-511.814	1.411	0.320	0.302
-510.799	-82.052	0.349	0.149
-509.785	-83.995	0.362	-0.151
-508.770	342.590	0.196	-0.507
-507.756	-112.770	-0.524	-0.136
-506.741	466.343	0.124	0.368
-505.726	-68.951	-0.219	-0.110
-504.712	-43.465	-0.205	0.136
-503.697	-86.253	0.283	0.114
-502.683	-39.507	-0.458	0.315
-501.668	-110.915	-0.422	-0.113
-500.653	-82.850	-0.205	-0.087
-499.639	134.636	-0.311	0.531
-498.624	-167.636	-0.563	0.029
-497.610	163.096	0.008	-0.014
-496.595	-152.846	-0.289	-0.027
-495.581	-65.062	-0.192	-0.102
-494.566	-94.311	-0.310	0.110
-493.551	-118.779	-0.566	0.130
-492.537	-180.129	-0.270	0.007
-491.522	43.039	-0.063	-0.076
-490.508	55.506	0.073	0.092
-489.493	-147.084	0.710	-0.079
-488.478	539.413	0.103	-0.323
-487.464	147.228	0.081	-0.143
-486.449	-118.371	0.160	0.037
-485.435	-35.293	-0.613	0.437
-484.420	-73.527	0.679	-0.324
-483.405	-94.525	-0.312	-0.111
-482.391	20.958	-0.059	-0.063
-481.376	-164.337	-0.148	0.009
-480.362	494.748	-0.024	-0.072
-479.347	-144.309	0.243	-0.029
-478.332	-200.000	0.027	0.234
-477.318	-18.857	-0.161	-0.131
-476.303	-167.672	0.285	0.015
-475.289	-92.986	-0.175	0.064
-474.274	-21.829	-0.419	0.334
-473.259	-70.799	-0.156	-0.077
-472.245	-161.860	0.744	-0.049
-471.230	-90.341	0.318	0.120
-470.216	13.996	0.449	0.458
-469.201	102.660	-0.142	-0.218
-468.186	-9.143	0.079	-0.070
-467.172	-31.346	0.100	0.074
-466.157	-38.015	-0.377	0.262
-465.143	800.000	-0.044	-0.240
-464.128	-142.967	0.640	-0.080
-463.113	22.809	0.453	0.487
-462.099	60.876	0.457	0.595
-461.084	-24.162	0.408	0.319
-460.070	-91.448	0.530	0.197
-459.055	-200.000	-0.027	-0.190
-458.040	-167.271	-0.425	0.022
-457.026	14.045	-0.130	-0.132
-456.011	-161.005	-0.451	0.031
-454.997	-185.750	-0.277	0.005
-453.982	-200.000	-0.002	0.205
-452.968	-200.000	0.050	0.683
-451.953	48.748	0.364	-0.448
-450.938	-118.165	-0.179	0.042
-449.924	196.057	-0.118	0.237
-448.909	137.372	-0.083	-0.142
-447.895	800.000	-0.146	0.545
-446.880	355.756	-0.200	-0.524
-445.865	800.000	0.053	-0.270
-444.851	32.766	0.136	-0.154
-443.836	-53.013	-0.399	0.240
-442.822	-100.859	0.260	0.083
-441.807	120.886	-0.423	0.690
-440.792	114.611	-0.135	0.216
-439.778	68.684	0.111	0.150
-438.763	145.250	-0.090	-0.158
-437.749	41.645	0.148	0.176
-436.734	376.214	-0.094	-0.253
-435.719	800.000	-0.070	-0.284
-434.705	-180.695	0.467	-0.012
-433.690	-61.302	0.160	0.088
-432.676	800.000	-0.146	-0.660
-431.661	-97.882	-0.428	-0.144
-430.646	-27.921	0.350	0.265
-429.632	-130.195	0.155	-0.027
-428.617	89.339	0.167	0.245
-427.603	40.244	-0.206	0.243
-426.588	-166.829	-0.352	-0.019
-425.573	-200.000	-0.003	0.067
-424.559	-108.917	0.213	-0.059
-423.544	-115.408	-0.415	0.102
-422.530	54.458	0.254	0.320
-421.515	800.000	-0.108	-0.511
-420.500	-200.000	-0.007	-0.402
-419.486	-200.000	0.033	0.323
-418.471	181.562	-0.222	-0.429
-417.457	325.177	0.097	0.244
-416.442	-21.747	0.316	-0.251
-415.428	-137.635	-0.436	0.064
-414.413	608.033	-0.170	-0.559
-413.398	134.571	0.158	-0.269
-412.384	5.752	0.057	0.056
-411.369	187.989	0.256	0.503
-410.355	-126.416	0.500	0.097
-409.340	-64.910	0.228	-0.120
-408.325	211.798	-0.173	-0.358
-407.311	-166.081	0.253	-0.014
-406.296	35.138	-0.259	-0.297
-405.282	-0.193	-0.057	-0.053
-404.267	-39.429	0.203	-0.139
-403.252	-100.576	-0.400	0.129
-402.238	-41.637	0.335	0.225
-401.223	-102.962	-0.171	0.053
-400.209	-128.003	0.189	0.035
-399.194	800.000	0.036	-0.207
-398.179	-200.000	0.267	0.001
-397.165	800.000	-0.093	-0.389
-396.150	800.000	-0.072	0.327
-395.136	57.836	0.301	0.386
-394.121	24.147	0.039	-0.042
-393.106	48.065	-0.205	0.251
-392.092	800.000	0.102	0.515
-391.077	-71.750	-0.422	-0.205
-390.063	-200.000	0.008	0.130
-389.048	107.139	0.174	0.272
-388.033	-132.706	0.230	-0.038
-387.019	-71.447	0.431	0.210
-386.004	-98.646	0.062	-0.021
-384.990	800.000	-0.040	-0.224
-383.975	-83.267	0.221	-0.092
-382.960	695.905	0.054	-0.188
-381.946	-200.000	0.023	-0.465
-380.931	86.205	-0.159	-0.229
-379.917	-107.785	0.653	-0.185
-378.902	488.471	-0.029	-0.086
-377.888	-200.000	-0.036	0.308
-376.873	-73.708	-0.403	0.191
-375.858	-200.000	0.003	-0.250
-374.844	-107.866	-0.397	0.112
-373.829	-20.889	-0.078	-0.062
-372.815	-118.370	-0.111	0.026
-371.800	-153.137	0.427	0.039
-370.785	-175.212	0.410	-0.015
-369.771	-26.030	0.340	0.261
-368.756	-200.000	-0.027	0.230
-367.742	129.512	-0.226	0.379
-366.727	57.312	-0.165	-0.211
-365.712	97.968	-0.214	-0.322
-364.698	-69.655	-0.109	0.054
-363.683	37.949	-0.034	-0.039
-362.669	-94.953	0.445	0.157
-361.654	-30.505	0.155	0.115
-360.639	-37.928	0.243	0.169
-359.625	-70.101	0.026	-0.013
-358.610	-19.240	0.520	-0.421
-357.596	-200.000	-0.002	-0.110
-356.581	-139.554	0.443	-0.061
-355.566	-200.000	0.013	-0.439
-354.552	-134.687	0.344	0.054
-353.537	-90.697	-0.425	-0.160
-352.523	104.972	0.124	-0.192
-351.508	-109.945	-0.496	0.135
-350.493	800.000	0.048	-0.260
-349.479	800.000	-0.059	-0.236
-348.464	-38.524	0.183	-0.126
-347.450	-119.147	0.391	0.089
-346.435	120.581	-0.048	-0.078
-345.420	414.127	-0.080	0.223
-344.406	2.534	-0.131	0.124
-343.391	-123.464	-0.155	-0.032
-342.377	-102.093	-0.554	0.173
-341.362	-126.428	-0.190	-0.037
-340.348	-6.562	0.148	-0.132
-339.333	-77.036	0.148	-0.067
-338.318	124.541	0.100	-0.165
-337.304	-200.000	-0.017	0.181
-336.289	-200.000	0.056	-0.624
-335.275	-99.968	-0.092	0.030
-334.260	-200.000	0.067	-0.500
-333.245	800.000	-0.114	-0.538
-332.231	2.984	0.290	-0.274
-331.216	-98.454	-0.274	0.091
-330.202	-11.087	-0.239	0.206
-329.187	52.403	0.378	0.472
-328.172	44.117	0.164	0.196
-327.158	47.720	0.053	-0.064
-326.143	79.913	-0.294	-0.413
-325.129	33.774	0.348	0.395
-324.114	-93.318	0.243	-0.088
-323.099	-35.514	0.270	0.191
-322.085	-49.608	-0.466	-0.288
-321.070	127.966	0.106	-0.177
-320.056	3.462	-0.089	-0.085
-319.041	800.000	0.020	0.074
-318.026	-14.643	0.191	0.160
-317.012	36.274	0.169	0.194
-315.997	78.051	0.081	0.113
-314.983	800.000	-0.077	-0.335
-313.968	-74.930	0.163	-0.076
-312.953	800.000	0.076	-0.327
-311.939	-8.453	0.178	-0.156
-310.924	-147.814	0.268	-0.029
-309.910	317.358	0.184	-0.456
-308.895	-96.255	0.123	-0.042
-307.880	-69.687	0.554	0.275
-306.866	368.277	0.056	0.149
-305.851	378.398	-0.047	-0.126
-304.837	-140.083	0.524	-0.071
-303.822	-37.967	0.200	-0.138
-302.807	-82.958	0.282	-0.118
-301.793	19.959	0.363	-0.381
-300.778	38.925	0.203	-0.237
-299.764	800.000	0.131	-0.547
-298.749	12.087	0.328	0.329
-297.735	-74.547	0.254	0.119
-296.720	84.298	0.089	0.128
-295.705	-38.516	0.320	0.220
-294.691	-77.369	-0.583	0.263
-293.676	-200.000	0.026	-0.227
-292.662	106.633	-0.130	0.201
-291.647	-200.000	-0.030	0.192
-290.632	-86.004	-0.336	-0.135
-289.618	2.716	0.477	-0.450
-288.603	-200.000	-0.015	-0.104
-287.589	426.043	0.117	-0.330
-286.574	800.000	-0.109	0.467
-285.559	221.222	-0.120	0.251
-284.545	8.231	-0.193	-0.189
-283.530	-51.398	0.430	-0.261
-282.516	-14.288	-0.179	0.150
-281.501	68.290	0.069	-0.092
-280.486	17.125	0.130	0.134
-279.472	-38.679	0.195	-0.134
-278.457	19.282	-0.304	-0.318
-277.443	-6.948	-0.220	-0.194
-276.428	-138.170	-0.156	-0.022
-275.413	-200.000	-0.044	-0.766
-274.399	-150.136	0.153	-0.015
-273.384	-143.526	0.694	0.085
-272.370	-38.329	0.408	0.281
-271.355	-164.078	-0.120	-0.007
-270.340	-200.000	-0.045	0.356
-269.326	-70.334	0.319	0.157
-268.311	-92.985	0.208	-0.075
-267.297	-200.000	-0.002	-0.032
-266.282	92.048	-0.056	-0.082
-265.267	120.191	0.234	0.379
-264.253	52.053	-0.333	0.413
-263.238	424.137	0.070	0.197
-262.224	-141.603	-0.577	-0.075
-261.209	3.312	0.381	0.361
-260.195	-133.337	-0.158	-0.026
-259.180	63.621	-0.145	0.189
-258.165	142.189	0.289	0.500
-257.151	668.339	-0.156	0.527
-256.136	56.454	0.075	-0.095
-255.122	528.079	-0.051	0.159
-254.107	217.471	0.078	0.162
-253.092	-200.000	0.007	0.138
-252.078	329.889	0.109	0.275
-251.063	28.300	-0.122	0.134
-250.049	16.261	0.246	-0.253
-249.034	-90.435	0.167	-0.063
-248.019	-177.443	-0.564	0.018
-247.005	-66.696	-0.430	-0.221
-245.990	-5.701	-0.404	-0.360
-244.976	-200.000	0.062	-0.497
-243.961	-120.266	0.092	0.020
-242.946	800.000	-0.083	0.330
-241.932	294.875	0.088	-0.211
-240.917	308.141	-0.258	0.629
-239.903	61.482	0.177	-0.229
-238.888	-200.000	0.017	-0.132
-237.873	61.429	-0.319	-0.413
-236.859	-200.000	-0.031	0.180
-235.844	235.269	-0.099	-0.214
-234.830	-120.566	0.412	0.090
-233.815	-108.217	0.231	0.064
-232.800	-14.071	-0.226	-0.189
-231.786	212.082	0.108	-0.221
-230.771	-86.456	-0.224	0.089
-229.757	50.601	0.240	0.296
-228.742	671.128	0.043	-0.144
-227.727	-200.000	0.003	0.091
-226.713	558.226	0.071	-0.225
-225.698	-65.098	0.709	0.370
-224.684	360.331	-0.069	0.180
-223.669	173.361	-0.197	-0.370
-222.655	-104.944	0.259	-0.077
-221.640	-200.000	-0.438	-0.002
-220.625	7.859	0.324	-0.315
-219.611	-107.690	0.098	-0.028
-218.596	506.447	-0.085	0.258
-217.582	-26.139	-0.420	-0.320
-216.567	-200.000	0.032	-0.314
-215.552	146.597	0.374	0.654
-214.538	800.000	0.116	0.514
-213.523	4.388	-0.139	-0.132
-212.509	-165.184	-0.778	-0.044
-211.494	538.382	-0.083	-0.257
-210.479	-46.476	-0.298	0.189
-209.465	-200.000	-0.006	0.374
-208.450	70.704	-0.096	-0.129
-207.436	126.436	-0.216	-0.356
-206.421	-190.082	0.271	-0.004
-205.406	-180.822	0.334	0.009
-204.392	-61.667	-0.234	-0.127
-203.377	619.033	0.028	0.093
-202.363	-27.207	0.215	-0.162
-201.348	800.000	-0.114	-0.458
-200.333	-10.105	-0.230	0.198
-199.319	-164.005	-0.387	-0.023
-198.304	800.000	0.101	0.434
-197.290	358.909	0.035	-0.092
-196.275	-51.597	-0.416	0.251
-195.260	-21.346	0.188	0.149
-194.246	75.458	-0.183	-0.252
-193.231	25.840	0.573	-0.620
-192.217	-96.401	-0.151	0.052
-191.202	-132.365	-0.223	-0.037
-190.187	-107.486	-0.181	0.051
-189.173	23.490	-0.308	0.329
-188.158	-43.925	0.337	0.219
-187.144	73.812	0.441	0.600
-186.129	-82.058	-0.503	0.212
-185.114	81.367	-0.045	0.063
-184.100	-200.000	0.008	0.484
-183.085	800.000	-0.022	0.104
-182.071	122.577	0.140	0.228
-181.056	-200.000	0.026	0.337
-180.042	-177.785	0.143	0.004
-179.027	138.689	-0.301	0.514
-178.012	276.188	-0.127	0.293
-176.998	800.000	0.026	0.147
-175.983	-132.899	-0.186	-0.031
-174.969	105.560	-0.205	-0.315
-173.954	330.902	0.121	-0.303
-172.939	-120.981	0.099	0.021
-171.925	150.063	0.054	-0.096
-170.910	269.107	-0.143	0.326
-169.896	-22.020	-0.372	0.293
-168.881	-197.620	0.521	-0.004
-167.866	-200.000	-0.053	-0.510
-166.852	29.253	-0.254	-0.280
-165.837	68.899	0.292	0.389
-164.823	-106.503	-0.500	-0.144
-163.808	-111.021	0.614	0.162
-162.793	-200.000	-0.000	0.089
-161.779	-57.773	-0.306	0.173
-160.764	57.954	-0.141	0.179
-159.750	-51.128	0.396	0.240
-158.735	41.581	0.201	0.236
-157.720	-16.681	-0.122	0.100
-156.706	192.188	-0.136	-0.267
-155.691	387.158	0.085	-0.229
-154.677	67.880	0.068	-0.091
-153.662	243.732	-0.189	-0.413
-152.647	63.328	0.036	-0.046
-151.633	-91.002	-0.488	0.181
-150.618	66.209	-0.298	0.392
-149.604	143.691	-0.054	0.094
-148.589	414.399	-0.061	-0.169
-147.574	24.037	-0.191	-0.204
-146.560	-80.203	-0.511	-0.221
-145.545	121.450	-0.119	0.193
-144.531	-140.348	0.311	-0.042
-143.516	-98.208	0.296	0.098
-142.502	-57.285	0.147	-0.084
-141.487	-94.652	0.321	-0.112
-140.472	-108.021	0.183	0.051
-139.458	320.568	-0.163	-0.402
-138.443	-200.000	0.026	-0.239
-137.429	362.408	0.042	0.110
-136.414	639.643	0.122	-0.404
-135.399	4.433	-0.411	-0.390
-134.385	-58.550	0.263	0.147
-133.370	-158.020	0.214	0.016
-132.356	-149.966	0.239	-0.024
-131.341	-199.439	-0.032	-0.000
-130.326	-200.000	0.024	0.177
-129.312	800.000	-0.036	-0.168
-128.297	800.000	-0.100	0.430
-127.283	227.155	-0.033	0.069
-126.268	-56.012	0.350	0.201
-125.253	-200.000	0.005	-0.155
-124.239	-72.267	-0.072	0.034
-123.224	-96.928	-0.166	-0.056
-122.210	-200.000	0.003	0.029
-121.195	47.154	0.334	-0.403
-120.180	337.402	0.225	0.569
-119.166	-21.913	0.362	-0.284
-118.151	160.666	-0.302	-0.548
-117.137	315.647	-0.183	-0.448
-116.122	-99.347	-0.199	-0.064
-115.107	26.863	0.138	0.150
-114.093	81.038	-0.152	0.213
-113.078	-50.926	0.192	-0.116
-112.064	-135.083	0.029	0.005
-111.049	800.000	-0.028	-0.106
-110.034	29.963	0.479	0.528
-109.020	-200.000	-0.001	0.141
-108.005	-63.750	0.186	-0.098
-106.991	29.594	0.341	-0.375
-105.976	-56.656	0.241	-0.137
-104.962	750.486	0.157	-0.550
-103.947	-17.815	0.263	-0.213
-102.932	233.894	-0.206	0.441
-101.918	-114.691	0.533	0.131
-100.903	-168.559	0.381	-0.018
-99.889	-118.435	0.161	0.037
-98.874	-200.000	0.017	-0.137
-97.859	-15.460	-0.429	-0.354
-96.845	15.532	-0.064	-0.065
-95.830	800.000	-0.077	0.332
-94.816	196.539	-0.250	-0.494
-93.801	71.100	0.194	0.261
-92.786	-112.522	0.064	-0.016
-91.772	800.000	-0.069	-0.250
-90.757	-122.271	0.106	-0.022
-89.743	800.000	0.149	0.729
-88.728	7.241	-0.249	0.240
-87.713	800.000	-0.049	0.183
-86.699	329.386	-0.144	-0.360
-85.684	-200.000	0.001	-0.083
-84.670	800.000	0.007	-0.032
-83.655	157.084	-0.129	-0.231
-82.640	-74.273	0.270	-0.125
-81.626	-177.532	-0.258	-0.008
-80.611	-25.792	0.235	-0.178
-79.597	19.036	0.346	0.359
-78.582	-157.352	0.677	-0.052
-77.567	-52.791	0.333	-0.198
-76.553	-40.899	0.205	-0.137
-75.538	95.981	-0.141	-0.208
-74.524	-27.204	-0.091	-0.069
-73.509	0.079	-0.269	-0.248
-72.494	-17.666	-0.277	-0.225
-71.480	-160.432	0.295	0.020
-70.465	800.000	0.002	0.008
-69.451	106.571	0.190	0.292
-68.436	-200.000	0.049	0.389
-67.422	-109.222	-0.553	-0.151
-66.407	-107.184	-0.254	-0.072
-65.392	289.185	0.089	-0.209
-64.378	202.632	0.079	0.159
-63.363	-46.072	-0.297	0.188
-62.349	800.000	-0.021	0.108
-61.334	9.139	-2.170	-2.116
-60.319	80.429	1.295	1.804
-59.305	271.856	-3.378	-7.720
-58.290	50.272	4.215	5.146
-57.276	406.948	3.680	10.087
-56.261	-200.000	22.390	318.795
-55.246	360.455	1294.738	3362.169
-54.232	53.110	2844.442	3518.487
-53.217	51.882	2661.782	3273.449
-52.203	32.583	2392.507	2670.548
-51.188	28.459	2058.389	2246.827
-50.173	25.065	1944.901	2083.282
-49.159	24.122	1932.436	2058.893
-48.144	23.625	1928.975	2049.357
-47.130	23.506	1926.542	2045.315
-46.115	23.433	1925.492	2043.265
-45.100	23.539	1923.356	2042.150
-44.086	23.468	1922.393	2040.217
-43.071	23.388	1920.837	2037.566
-42.057	23.458	1918.940	2036.284
-41.042	23.508	1917.398	2035.136
-40.027	23.518	1915.817	2033.494
-39.013	23.541	1913.506	2031.231
-37.998	23.451	1913.276	2029.868
-36.984	23.442	1912.153	2028.495
-35.969	23.554	1910.074	2027.495
-34.954	23.494	1909.195	2025.792
-33.940	23.488	1908.417	2024.821
-32.925	23.456	1906.561	2022.399
-31.911	23.283	1906.307	2020.062
-30.896	23.319	1905.040	2019.060
-29.881	23.361	1902.670	2016.948
-28.867	23.348	1901.129	2015.087
-27.852	23.401	1899.115	2013.468
-26.838	23.336	1898.353	2011.843
-25.823	23.326	1897.623	2010.877
-24.809	23.287	1896.175	2008.812
-23.794	23.252	1895.303	2007.419
-22.779	23.366	1894.071	2007.326
-21.765	23.153	1892.805	2003.484
-20.750	23.198	1891.180	2002.196
-19.736	23.269	1890.238	2001.927
-18.721	23.193	1889.342	2000.036
-17.706	23.229	1887.958	1998.900
-16.692	23.193	1885.848	1996.177
-15.677	23.195	1885.273	1995.512
-14.663	23.244	1884.002	1994.639
-13.648	23.206	1882.301	1992.334
-12.633	23.130	1881.394	1990.434
-11.619	23.020	1880.463	1988.128
-10.604	23.302	1877.454	1988.052
-9.590	23.200	1877.110	1986.454
-8.575	23.234	1876.159	1985.752
-7.560	23.224	1874.153	1983.440
-6.546	23.066	1874.223	1981.649
-5.531	23.007	1872.945	1979.562
-4.517	23.189	1871.005	1979.478
-3.502	23.041	1870.780	1977.494
-2.487	23.117	1869.949	1977.393
-1.473	23.308	1866.216	1975.508
-0.458	23.119	1847.700	1953.729
0.556	19.655	1993.103	2053.848
1.571	18.146	2196.830	2243.624
2.586	18.934	2236.551	2294.495
3.600	18.983	2238.935	2297.315
4.615	18.899	2238.117	2295.079
5.629	18.913	2236.381	2293.213
6.644	18.965	2234.183	2291.384
7.659	18.922	2232.590	2288.887
8.673	18.976	2230.470	2287.174
9.688	18.810	2239.167	2293.586
10.702	17.887	2318.905	2362.145
11.717	16.095	2382.866	2401.371
12.731	7.405	2363.181	2257.401
13.746	1.023	2345.222	2149.174
14.761	0.161	2342.840	2134.446
15.775	0.156	2340.160	2131.675
16.790	0.179	2337.718	2129.526
17.804	-0.032	2337.626	2126.186
18.819	0.007	2336.289	2125.275
19.834	0.088	2333.669	2123.787
20.848	0.128	2332.488	2123.017
21.863	0.118	2330.892	2121.170
22.877	0.039	2329.578	2118.607
23.892	0.024	2326.255	2115.107
24.907	0.027	2324.457	2113.268
25.921	0.015	2322.868	2111.400
26.936	0.028	2320.878	2109.526
27.950	0.095	2317.862	2107.479
28.965	0.041	2315.916	2104.695
29.980	0.079	2314.747	2103.917
30.994	0.191	2312.092	2102.816
32.009	3.916	2325.061	2166.873
33.023	13.209	2351.553	2323.140
34.038	17.134	2357.534	2384.261
35.053	17.068	2354.887	2380.366
36.067	16.966	2351.014	2374.736
37.082	17.120	2349.714	2375.306
38.096	17.129	2348.491	2373.902
39.111	17.264	2345.795	2372.793
40.126	17.540	2343.540	2374.091
41.140	17.580	2342.906	2373.728
42.155	17.584	2340.913	2371.487
43.169	17.522	2339.056	2368.457
44.184	17.307	2335.658	2361.729
45.199	17.199	2334.110	2358.373
46.213	17.330	2333.045	2358.834
47.228	17.490	2332.693	2360.424
48.242	17.589	2329.953	2358.751
49.257	17.606	2328.428	2357.160
50.271	17.753	2326.281	2356.748
51.286	17.444	2323.103	2348.967
52.301	17.241	2321.349	2344.091
53.315	18.065	2324.186	2358.115
54.330	20.962	2332.225	2406.240
55.344	22.742	2334.545	2433.042
56.359	23.085	2330.827	2433.617
57.374	23.210	2330.622	2434.835
58.388	23.308	2327.376	2432.514
59.403	23.023	2322.840	2423.556
60.417	22.790	2319.238	2416.297
61.432	22.788	2318.722	2415.439
62.447	23.084	2317.172	2417.607
63.461	23.086	2315.777	2415.893
64.476	23.298	2313.270	2415.898
65.490	22.966	2311.868	2409.591
66.505	22.074	2307.715	2392.769
67.520	20.024	2299.676	2356.149
68.534	17.755	2290.619	2315.652
69.549	17.225	2285.618	2303.094
70.563	17.177	2282.491	2299.019
71.578	17.086	2281.984	2296.997
72.593	17.140	2279.949	2295.411
73.607	17.375	2278.186	2296.539
74.622	17.303	2276.838	2293.934
75.636	17.271	2273.748	2290.118
76.651	17.241	2270.665	2286.326
77.666	17.146	2269.189	2283.288
78.680	16.998	2267.265	2279.082
79.695	16.860	2264.533	2274.198
80.709	16.755	2263.730	2271.703
81.724	16.747	2261.376	2268.966
82.739	16.760	2259.360	2266.836
83.753	16.780	2256.515	2263.990
84.768	16.697	2255.016	2261.090
85.782	16.634	2254.194	2259.149
86.797	16.670	2251.825	2256.996
87.812	16.735	2249.724	2255.484
88.826	16.961	2248.864	2257.386
89.841	16.916	2247.098	2254.738
90.855	17.074	2243.826	2253.289
91.870	17.136	2242.827	2252.839
92.884	17.066	2241.242	2250.048
93.899	17.176	2239.994	2249.989
94.914	17.840	2243.273	2261.861
95.928	20.365	2250.966	2303.063
96.943	21.133	2249.167	2311.166
97.957	18.611	2237.226	2265.190
98.972	17.157	2231.454	2239.823
99.987	16.947	2228.152	2233.463
101.001	16.959	2225.534	2230.728
102.016	16.880	2224.791	2228.666
103.030	16.930	2221.447	2225.716
104.045	16.910	2218.577	2222.303
105.060	16.982	2216.942	2221.356
106.074	16.926	2215.267	2218.674
107.089	16.856	2214.026	2216.247
108.103	16.862	2212.619	2214.642
109.118	16.991	2210.561	2214.012
110.133	17.051	2210.361	2214.340
111.147	16.936	2206.934	2209.135
112.162	16.926	2206.092	2207.895
113.176	17.084	2203.555	2207.156
114.191	17.224	2201.521	2206.688
115.206	16.973	2200.823	2202.450
116.220	16.923	2199.078	2199.781
117.235	17.051	2196.859	2198.969
118.249	17.112	2195.063	2197.692
119.264	17.081	2193.163	2195.128
120.279	16.928	2192.077	2191.793
121.293	17.028	2189.524	2190.274
122.308	17.117	2188.089	2189.725
123.322	16.985	2187.079	2186.744
124.337	17.468	2188.613	2194.283
125.352	20.178	2197.236	2237.867
126.366	20.998	2194.316	2245.244
127.381	18.281	2182.443	2197.805
128.395	17.165	2177.944	2178.629
129.410	16.967	2176.488	2174.364
130.424	16.978	2174.547	2172.305
131.439	17.110	2172.559	2171.759
132.454	17.159	2171.101	2170.665
133.468	17.350	2168.984	2170.740
134.483	17.341	2168.545	2169.927
135.497	17.368	2165.862	2167.330
136.512	17.378	2163.741	2165.076
137.527	17.241	2161.644	2160.972
138.541	16.871	2160.860	2155.197
139.556	17.046	2159.600	2155.912
140.570	16.887	2158.319	2152.346
141.585	16.742	2155.737	2147.670
142.600	16.765	2155.124	2147.090
143.614	16.701	2152.754	2143.670
144.629	16.720	2151.339	2142.242
145.643	16.617	2149.505	2138.852
146.658	16.771	2147.001	2138.059
147.673	16.677	2145.238	2134.849
148.687	16.715	2144.613	2134.459
149.702	16.993	2143.349	2136.456
150.716	16.924	2143.100	2135.079
151.731	16.983	2141.554	2134.040
152.746	17.018	2140.795	2133.461
153.760	17.844	2143.473	2146.324
154.775	20.485	2151.806	2187.887
155.789	21.508	2148.404	2197.080
156.804	18.896	2137.244	2152.568
157.819	17.188	2131.121	2124.684
158.833	17.001	2127.073	2118.053
159.848	16.926	2125.690	2115.479
160.862	17.058	2124.998	2116.195
161.877	17.029	2123.776	2114.362
162.892	17.231	2122.596	2115.460
163.906	17.159	2121.316	2113.026
164.921	17.189	2119.756	2111.595
165.935	17.248	2116.800	2109.138
166.950	17.297	2115.689	2108.388
167.964	17.264	2113.516	2105.567
168.979	17.072	2111.265	2100.682
169.994	16.903	2110.145	2097.209
171.008	16.907	2107.787	2094.671
172.023	16.845	2107.078	2092.936
173.037	16.983	2106.137	2093.475
174.052	17.061	2105.498	2093.552
175.067	17.073	2103.119	2091.085
176.081	16.909	2101.513	2087.202
177.096	17.004	2099.842	2086.472
178.110	17.141	2098.365	2086.444
179.125	17.189	2097.260	2085.688
180.140	17.339	2094.826	2084.868
181.154	17.100	2095.003	2081.849
182.169	17.302	2094.067	2083.163
183.183	18.047	2096.459	2094.475
184.198	21.120	2103.751	2139.435
185.213	21.643	2100.921	2142.725
186.227	18.650	2091.089	2095.762
187.242	17.357	2087.039	2075.602
188.256	17.244	2084.301	2071.248
189.271	17.068	2082.892	2067.444
190.286	16.987	2081.421	2064.744
191.300	17.136	2078.271	2063.192
192.315	17.063	2077.588	2061.370
193.329	17.229	2077.167	2062.737
194.344	17.470	2075.805	2064.071
195.359	17.530	2074.409	2063.171
196.373	17.296	2071.530	2057.217
197.388	17.109	2068.770	2051.948
198.402	16.962	2067.257	2048.423
199.417	16.831	2064.875	2044.233
200.432	16.922	2063.593	2043.821
201.446	17.012	2061.823	2042.915
202.461	16.935	2060.201	2040.122
203.475	16.881	2058.364	2037.409
204.490	16.807	2056.643	2034.570
205.504	16.783	2054.861	2032.272
206.519	16.976	2052.816	2032.335
207.534	17.056	2050.771	2031.027
208.548	16.958	2050.744	2029.586
209.563	17.025	2049.059	2028.479
210.577	17.149	2047.662	2028.343
211.592	17.148	2047.208	2027.637
212.607	18.448	2052.746	2048.511
213.621	21.664	2060.957	2095.185
214.636	21.236	2054.119	2082.858
215.650	18.169	2044.740	2036.447
216.665	17.318	2040.036	2021.348
217.680	17.167	2038.763	2018.042
218.694	17.035	2035.993	2013.491
219.709	16.965	2034.328	2010.763
220.723	17.066	2034.248	2011.648
221.738	17.164	2033.097	2011.435
222.753	17.306	2030.383	2010.196
223.767	17.187	2029.491	2007.659
224.782	17.156	2027.206	2004.787
225.796	17.142	2025.977	2003.170
226.811	17.170	2023.638	2000.954
227.826	17.105	2022.306	1998.620
228.840	17.064	2020.697	1996.314
229.855	16.965	2019.459	1993.679
230.869	17.103	2018.252	1993.880
231.884	16.995	2016.089	1990.231
232.899	17.107	2014.812	1990.050
233.913	16.975	2014.217	1987.664
234.928	17.053	2012.438	1986.591
235.942	17.040	2010.083	1983.873
236.957	16.909	2009.561	1981.586
237.972	17.051	2007.471	1980.955
238.986	16.992	2007.174	1979.727
240.001	16.989	2004.603	1976.923
241.015	17.078	2004.210	1977.346
242.030	17.949	2006.291	1989.358
243.045	20.625	2013.168	2027.343
244.059	20.930	2010.535	2028.012
245.074	18.369	1999.814	1987.121
246.088	17.401	1995.498	1971.334
247.103	17.556	1993.431	1970.851
248.117	17.384	1993.340	1968.529
249.132	17.137	1991.551	1963.661
250.147	17.151	1989.015	1961.088
251.161	17.070	1988.007	1958.914
252.176	17.303	1987.304	1960.687
253.190	17.648	1984.772	1961.945
254.205	17.696	1983.138	1960.659
255.220	17.656	1982.434	1959.264
256.234	17.540	1980.594	1955.868
257.249	17.265	1979.643	1951.526
258.263	17.138	1977.722	1947.932
259.278	17.378	1977.014	1949.760
260.293	17.047	1976.219	1944.941
261.307	16.972	1972.969	1940.641
262.322	17.043	1971.073	1939.365
263.336	16.924	1969.876	1936.586
264.351	16.932	1967.219	1933.833
265.366	16.771	1966.628	1931.181
266.380	16.898	1965.202	1931.002
267.395	16.918	1964.705	1930.513
268.409	17.040	1962.780	1929.778
269.424	17.011	1961.253	1927.721
270.439	17.030	1960.545	1927.010
271.453	17.987	1963.647	1940.758
272.468	20.983	1969.475	1980.546
273.482	21.141	1964.682	1977.294
274.497	18.256	1955.110	1934.681
275.512	17.126	1951.115	1917.684
276.526	16.972	1948.528	1913.164
277.541	17.002	1946.671	1911.446
278.555	16.796	1945.609	1907.842
279.570	16.807	1943.109	1905.290
280.585	16.856	1942.280	1904.804
281.599	16.982	1941.346	1905.078
282.614	17.136	1940.555	1905.809
283.628	17.374	1940.025	1907.747
284.643	17.574	1939.001	1908.769
285.657	17.527	1938.602	1907.613
286.672	17.699	1936.474	1907.230
287.687	17.557	1935.501	1904.443
288.701	17.494	1933.426	1901.464
289.716	17.348	1931.989	1898.195
290.730	17.560	1930.341	1898.717
291.745	17.704	1928.317	1898.117
292.760	17.681	1927.361	1896.693
293.774	17.467	1927.419	1894.121
294.789	17.383	1925.621	1891.192
295.803	17.259	1923.042	1887.044
296.818	17.255	1921.512	1885.273
297.833	17.240	1921.367	1884.745
298.847	17.258	1919.604	1882.984
299.862	17.245	1918.371	1881.404
300.876	18.078	1919.900	1891.958
301.891	20.974	1926.904	1930.922
302.906	21.419	1924.265	1932.991
303.920	18.413	1915.092	1890.253
304.935	17.464	1910.330	1874.825
305.949	17.312	1908.700	1871.316
306.964	17.348	1906.977	1869.803
307.979	17.394	1905.031	1868.183
308.993	17.522	1904.156	1868.507
310.008	17.744	1903.557	1870.150
311.022	17.775	1902.176	1868.911
312.037	17.642	1899.621	1864.712
313.052	17.848	1898.506	1865.658
314.066	18.256	1897.737	1869.153
315.081	17.889	1896.741	1863.928
316.095	17.604	1894.813	1858.683
317.110	17.259	1893.307	1853.198
318.125	17.246	1891.151	1850.729
319.139	17.251	1889.181	1848.633
320.154	17.343	1888.109	1848.364
321.168	17.253	1886.806	1845.894
322.183	17.210	1884.482	1842.921
323.197	17.092	1883.134	1840.101
324.212	16.991	1881.223	1836.913
325.227	16.843	1879.147	1833.057
326.241	16.820	1877.950	1831.416
327.256	16.921	1876.815	1831.193
328.270	16.810	1875.535	1828.525
329.285	16.869	1876.202	1829.590
330.300	17.943	1880.138	1844.880
331.314	21.335	1885.944	1887.238
332.329	21.188	1881.258	1880.734
333.343	18.120	1871.204	1837.362
334.358	16.915	1867.180	1820.202
335.373	16.811	1865.428	1817.150
336.387	16.588	1863.758	1812.908
337.402	16.616	1862.608	1811.877
338.416	16.731	1861.913	1812.215
339.431	16.898	1860.364	1812.287
340.446	16.979	1858.654	1811.276
341.460	17.193	1857.651	1812.370
342.475	17.460	1856.430	1813.825
343.489	17.571	1854.903	1813.302
344.504	17.518	1854.541	1812.163
345.519	17.530	1852.737	1810.315
346.533	17.736	1851.126	1810.727
347.548	18.107	1851.402	1814.732
348.562	19.000	1852.465	1825.091
349.577	19.192	1851.879	1826.345
350.592	18.271	1848.458	1812.947
351.606	17.988	1846.343	1807.648
352.621	17.911	1844.460	1804.770
353.635	17.689	1842.683	1800.452
354.650	17.480	1841.183	1796.555
355.665	17.491	1839.266	1794.588
356.679	17.279	1838.068	1790.955
357.694	17.366	1835.938	1789.591
358.708	17.370	1834.352	1787.871
359.723	18.448	1839.267	1803.864
360.738	21.581	1844.905	1842.366
361.752	21.117	1839.088	1831.451
362.767	18.477	1830.755	1795.176
363.781	17.540	1827.554	1781.965
364.796	17.471	1825.501	1779.031
365.810	17.348	1825.486	1777.506
366.825	17.409	1823.510	1776.016
367.840	17.446	1823.402	1776.080
368.854	17.561	1822.582	1776.280
369.869	17.885	1822.235	1779.116
370.883	18.644	1822.451	1787.065
371.898	19.032	1822.229	1790.697
372.913	18.363	1818.874	1780.197
373.927	18.293	1817.515	1777.922
374.942	18.488	1816.718	1778.963
375.956	18.247	1814.470	1774.039
376.971	17.689	1811.149	1764.774
377.986	17.496	1809.641	1761.091
379.000	17.386	1808.242	1758.373
380.015	17.386	1807.134	1757.083
381.029	17.099	1803.923	1750.780
382.044	16.833	1802.173	1746.111
383.059	16.750	1800.474	1743.399
384.073	16.879	1799.452	1743.537
385.088	16.938	1798.950	1743.448
386.102	16.872	1796.986	1740.655
387.117	16.833	1795.320	1738.436
388.132	16.816	1795.919	1738.630
389.146	18.037	1799.690	1754.680
390.161	21.414	1804.409	1793.962
391.175	20.971	1797.905	1782.724
392.190	18.101	1788.988	1744.274
393.205	17.195	1785.598	1731.485
394.219	17.048	1784.006	1728.228
395.234	16.939	1782.581	1725.524
396.248	17.047	1780.604	1724.515
397.263	16.915	1778.750	1721.162
398.278	16.994	1777.346	1720.405
399.292	17.014	1776.233	1719.326
400.307	17.021	1775.363	1718.351
401.321	17.093	1774.904	1718.429
402.336	17.126	1774.632	1718.302
403.350	17.353	1772.449	1718.284
404.365	17.672	1771.146	1720.056
405.380	18.274	1771.410	1726.206
406.394	18.258	1771.627	1726.050
407.409	18.261	1768.843	1723.156
408.423	18.154	1767.465	1720.526
409.438	18.240	1766.410	1720.166
410.453	18.295	1765.162	1719.297
411.467	18.124	1764.067	1716.297
412.482	17.879	1762.377	1711.984
413.496	17.566	1760.353	1706.661
414.511	17.642	1757.616	1704.563
415.526	17.588	1756.126	1702.371
416.540	17.352	1754.085	1697.821
417.555	17.258	1753.339	1695.960
418.569	17.442	1754.349	1698.579
419.584	17.548	1754.135	1699.227
420.599	17.458	1753.485	1697.492
421.613	17.382	1751.851	1694.946
422.628	17.263	1750.987	1692.712
423.642	17.081	1748.287	1688.088
424.657	17.169	1747.238	1687.751
425.672	17.403	1745.167	1687.882
426.686	17.291	1743.797	1685.237
427.701	17.201	1742.744	1683.121
428.715	17.322	1741.239	1682.673
429.730	17.463	1740.820	1683.462
430.745	17.445	1738.942	1681.269
431.759	17.711	1738.931	1683.703
432.774	17.801	1739.127	1684.578
433.788	18.408	1738.827	1690.109
434.803	18.595	1738.310	1691.254
435.818	18.462	1738.164	1689.594
436.832	18.444	1736.921	1688.004
437.847	17.591	1729.518	1672.195
438.861	9.714	1709.231	1575.304
439.876	1.770	1694.089	1483.607
440.890	0.393	1690.505	1466.827
441.905	0.152	1690.121	1463.972
442.920	0.080	1688.762	1461.914
443.934	0.040	1687.487	1460.245
444.949	0.113	1685.875	1459.382
445.963	0.089	1684.974	1458.198
446.978	0.182	1684.609	1458.607
447.993	0.205	1682.943	1457.213
449.007	0.097	1680.793	1454.136
450.022	0.193	1678.907	1453.261
451.036	0.139	1677.842	1451.643
452.051	1.151	1681.424	1464.388
453.066	9.083	1699.683	1557.725
454.080	16.736	1711.638	1643.405
455.095	18.408	1714.472	1662.254
456.109	19.166	1714.903	1669.857
457.124	19.158	1714.479	1669.168
458.139	19.247	1713.367	1668.753
459.153	19.466	1712.763	1670.098
460.168	19.602	1710.326	1668.839
461.182	19.526	1708.115	1665.743
462.197	19.309	1706.678	1662.047
463.212	19.263	1705.097	1659.860
464.226	19.442	1703.861	1660.193
465.241	19.415	1703.596	1659.470
466.255	19.618	1702.676	1660.341
467.270	19.626	1701.073	1658.655
468.285	19.352	1699.864	1654.635
469.299	19.115	1698.498	1650.823
470.314	19.300	1696.920	1650.868
471.328	19.387	1694.823	1649.467
472.343	19.476	1694.239	1649.559
473.358	19.605	1693.311	1649.699
474.372	19.576	1691.300	1647.265
475.387	19.375	1690.443	1644.303
476.401	19.288	1688.670	1641.547
477.416	19.242	1687.754	1640.022
478.430	19.369	1686.393	1639.722
479.445	19.334	1684.509	1637.357
480.460	19.168	1683.794	1634.883
481.474	19.268	1683.113	1634.979
482.489	19.558	1681.777	1636.245
483.503	19.570	1680.434	1634.858
484.518	19.665	1679.205	1634.369
485.533	19.658	1678.351	1633.276
486.547	19.595	1676.177	1630.368
487.562	19.935	1675.625	1632.862
488.576	19.820	1674.322	1630.303
489.591	19.675	1673.373	1627.817
490.606	19.577	1671.412	1624.783
491.620	19.755	1669.574	1624.488
492.635	19.898	1668.276	1624.377
493.649	19.912	1667.719	1623.773
494.664	19.626	1665.891	1619.105
495.679	19.275	1663.687	1613.469
496.693	19.381	1661.698	1612.339
497.708	19.702	1661.569	1615.031
498.722	20.012	1661.334	1617.526
499.737	19.955	1660.506	1615.994
500.752	19.702	1658.389	1611.362
501.766	19.611	1656.562	1608.549
502.781	19.691	1655.444	1608.015
503.795	19.710	1653.681	1606.286
504.810	19.673	1652.584	1604.687
505.825	19.829	1652.883	1606.237
506.839	19.778	1651.656	1604.379
507.854	19.817	1649.901	1602.844
508.868	19.876	1648.703	1602.043
509.883	19.856	1647.839	1600.818
510.898	19.993	1646.955	1601.045
511.912	19.910	1644.390	1597.587
512.927	19.724	1642.585	1593.922
513.941	19.719	1641.637	1592.767
514.956	19.519	1640.173	1589.299
515.971	19.542	1638.719	1587.918
516.985	19.664	1637.701	1587.863
518.000	19.674	1637.932	1587.996
519.014	20.060	1636.380	1589.858
520.029	19.990	1635.347	1588.019
521.043	20.034	1634.249	1587.172
522.058	19.908	1632.811	1584.424
523.073	20.086	1631.635	1584.730
524.087	20.296	1631.657	1586.493
525.102	20.327	1629.483	1584.469
526.116	19.937	1627.452	1578.731
527.131	19.886	1626.995	1577.635
528.146	20.124	1626.685	1579.319
529.160	20.155	1625.846	1578.604
530.175	20.148	1624.270	1576.822
531.189	20.167	1623.211	1575.773
532.204	20.351	1621.413	1575.523
533.219	19.996	1620.158	1570.880
534.233	19.756	1619.114	1567.490
535.248	20.119	1618.526	1570.034
536.262	20.298	1618.005	1570.971
537.277	20.301	1616.244	1569.104
538.292	19.993	1614.875	1564.789
539.306	19.986	1612.501	1562.240
540.321	20.074	1611.077	1561.470
541.335	19.943	1609.452	1558.525
542.350	20.332	1607.804	1560.255
543.365	20.306	1606.979	1559.034
544.379	20.366	1606.242	1558.674
545.394	20.299	1605.091	1556.769
546.408	20.094	1603.053	1552.760
547.423	19.752	1601.601	1548.088
548.438	19.792	1600.608	1547.301
549.452	19.981	1600.390	1548.605
550.467	20.113	1598.525	1547.800
551.481	20.109	1597.887	1546.959
552.496	20.248	1597.984	1548.111
553.511	20.632	1596.849	1550.275
554.525	20.519	1595.376	1547.648
555.540	20.543	1595.068	1547.378
556.554	20.648	1593.202	1546.318
557.569	20.508	1592.043	1543.762
558.583	20.358	1590.278	1540.526
559.598	20.305	1589.110	1538.734
560.613	20.272	1588.708	1537.867
561.627	20.534	1587.007	1538.371
562.642	20.502	1585.778	1536.710
563.656	20.594	1584.713	1536.308
564.671	20.721	1583.545	1536.117
565.686	20.649	1581.774	1533.578
566.700	20.547	1580.072	1530.840
567.715	20.228	1578.295	1526.120
568.729	20.136	1576.656	1523.543
569.744	19.991	1574.859	1520.340
570.759	19.999	1574.001	1519.400
571.773	20.095	1573.275	1519.361
572.788	20.154	1572.665	1519.109
573.802	20.306	1571.758	1519.396
574.817	20.528	1570.209	1519.666
575.832	20.604	1570.112	1520.052
576.846	20.724	1567.973	1518.860
577.861	20.733	1566.202	1517.042
578.875	20.572	1566.777	1516.003
579.890	20.779	1565.395	1516.296
580.905	20.755	1564.669	1515.204
581.919	20.871	1564.049	1515.434
582.934	21.018	1563.055	1515.573
583.948	20.916	1561.451	1512.943
584.963	20.922	1559.204	1510.637
585.978	20.682	1558.182	1507.376
586.992	20.629	1558.376	1506.929
588.007	20.731	1557.509	1506.794
589.021	20.395	1555.286	1501.542
590.036	19.958	1553.856	1496.190
591.051	20.189	1553.086	1497.275
592.065	20.551	1551.475	1498.679
593.080	20.693	1549.883	1498.192
594.094	20.681	1548.710	1496.773
595.109	20.397	1545.626	1491.161
596.123	20.252	1544.730	1488.865
597.138	20.555	1544.201	1490.796
598.153	20.621	1543.267	1490.284
599.167	20.652	1542.287	1489.427
600.182	20.851	1541.359	1490.060
601.196	20.839	1541.191	1489.615
602.211	20.688	1539.673	1486.675
603.226	20.962	1538.270	1487.489
604.240	21.157	1537.018	1487.777
605.255	21.143	1536.561	1487.033
606.269	20.922	1536.037	1484.456
607.284	20.978	1534.122	1482.907
608.299	21.006	1532.879	1481.766
609.313	20.929	1530.342	1478.485
610.328	20.936	1530.210	1478.232
611.342	21.075	1528.339	1477.435
612.357	21.166	1528.147	1477.846
613.372	21.195	1526.678	1476.494
614.386	21.053	1526.113	1474.565
615.401	21.075	1525.872	1474.346
616.415	21.122	1524.588	1473.322
617.430	21.075	1523.963	1472.148
618.445	21.220	1522.706	1471.988
619.459	21.162	1520.475	1469.160
620.474	20.836	1518.873	1464.678
621.488	20.381	1516.768	1458.633
622.503	20.253	1516.268	1456.897
623.518	20.560	1515.378	1458.457
624.532	20.977	1515.455	1461.872
625.547	21.150	1513.836	1461.595
626.561	21.329	1514.146	1463.224
627.576	21.353	1512.956	1462.103
628.591	20.840	1510.778	1455.512
629.605	20.595	1508.469	1451.063
630.620	20.529	1507.039	1448.962
631.634	20.397	1505.641	1446.335
632.649	20.363	1504.948	1445.209
633.663	20.489	1504.765	1445.914
634.678	21.040	1503.836	1449.455
635.693	21.251	1502.542	1449.795
636.707	21.317	1502.061	1449.706
637.722	21.450	1501.196	1449.808
638.736	21.490	1499.506	1448.335
639.751	21.601	1498.170	1447.791
640.766	21.517	1497.059	1445.849
641.780	21.567	1495.470	1444.558
642.795	21.328	1495.281	1442.219
643.809	21.508	1494.241	1442.534
644.824	21.500	1492.772	1440.876
645.839	21.401	1492.383	1439.509
646.853	21.450	1491.324	1438.720
647.868	21.477	1489.151	1436.673
648.882	21.400	1487.931	1434.689
649.897	21.220	1487.130	1432.260
650.912	21.242	1485.303	1430.515
651.926	21.239	1484.531	1429.576
652.941	21.045	1482.486	1425.839
653.955	20.636	1480.379	1420.288
654.970	20.345	1478.507	1415.937
655.985	20.451	1476.652	1414.859
656.999	20.628	1476.162	1415.664
658.014	20.790	1475.513	1416.203
659.028	20.985	1475.349	1417.467
660.043	21.061	1474.811	1417.397
661.058	21.219	1473.522	1417.285
662.072	21.315	1472.249	1416.672
663.087	21.170	1471.288	1414.397
664.101	21.233	1470.573	1414.052
665.116	21.408	1469.469	1414.243
666.131	21.409	1468.291	1412.949
667.145	21.465	1467.401	1412.375
668.160	21.764	1466.056	1413.338
669.174	21.866	1464.571	1412.562
670.189	21.794	1463.398	1410.682
671.204	21.615	1462.824	1408.506
672.218	21.547	1462.601	1407.579
673.233	21.685	1461.441	1407.405
674.247	21.784	1460.393	1407.028
675.262	21.726	1460.111	1406.118
676.276	21.833	1458.716	1405.471
677.291	21.745	1457.291	1403.220
678.306	21.565	1455.733	1400.107
679.320	21.610	1454.475	1399.089
680.335	21.684	1454.185	1399.238
681.349	21.817	1454.010	1399.970
682.364	21.907	1451.756	1398.349
683.379	21.782	1450.613	1396.081
684.393	21.591	1449.690	1393.496
685.408	21.724	1448.794	1393.538
686.422	21.759	1447.301	1392.213
687.437	21.814	1446.997	1392.190
688.452	21.834	1446.958	1392.145
689.466	21.807	1444.772	1389.664
690.481	21.694	1442.978	1386.867
691.495	21.309	1441.792	1382.504
692.510	20.808	1439.461	1376.126
693.525	20.526	1437.924	1372.250
694.539	20.702	1438.236	1373.784
695.554	21.433	1438.163	1379.345
696.568	21.824	1437.178	1381.332
697.583	21.806	1437.086	1380.940
698.598	21.822	1436.360	1380.201
699.612	21.987	1435.090	1380.117
700.627	22.029	1433.876	1379.120
701.641	21.836	1432.754	1376.353
702.656	22.050	1430.506	1375.710
703.671	22.165	1430.845	1376.782
704.685	22.044	1430.814	1375.633
705.700	22.034	1428.634	1373.297
706.714	21.875	1426.825	1370.140
707.729	21.637	1425.579	1366.918
708.744	21.549	1423.892	1364.442
709.758	21.330	1422.714	1361.434
710.773	21.006	1421.023	1357.118
711.787	21.086	1419.315	1355.955
712.802	21.239	1418.362	1356.072
713.816	21.443	1418.070	1357.227
714.831	21.567	1417.762	1357.734
715.846	21.677	1417.223	1357.911
716.860	21.841	1415.974	1357.826
717.875	21.862	1414.639	1356.550
718.889	21.884	1413.461	1355.424
719.904	21.940	1412.169	1354.461
720.919	22.000	1411.362	1353.991
721.933	22.163	1410.875	1354.620
722.948	22.239	1409.949	1354.163
723.962	22.158	1409.068	1352.528
724.977	22.142	1408.408	1351.611
725.992	22.270	1406.326	1350.440
727.006	22.202	1404.635	1348.124
728.021	22.101	1404.502	1347.058
729.035	22.306	1402.925	1346.962
730.050	22.268	1401.636	1345.274
731.065	22.229	1400.869	1344.076
732.079	22.280	1399.756	1343.240
733.094	22.099	1398.751	1340.724
734.108	21.991	1397.401	1338.440
735.123	22.298	1395.138	1338.463
736.138	22.195	1394.385	1336.793
737.152	22.176	1393.964	1336.084
738.167	22.261	1393.413	1336.041
739.181	22.369	1392.353	1335.691
740.196	22.303	1391.827	1334.523
741.211	22.209	1390.637	1332.509
742.225	22.226	1389.454	1331.344
743.240	22.309	1388.044	1330.464
744.254	22.399	1386.277	1329.295
745.269	22.314	1385.868	1328.101
746.284	22.157	1384.965	1325.885
747.298	21.822	1384.272	1322.519
748.313	21.633	1382.206	1318.961
749.327	21.127	1380.371	1313.224
750.342	20.867	1378.943	1309.742
751.356	20.689	1377.343	1306.727
752.371	20.877	1377.269	1307.920
753.386	21.516	1377.837	1313.124
754.400	21.995	1377.209	1315.975
755.415	22.513	1375.545	1318.125
756.429	22.447	1374.735	1316.693
757.444	22.352	1373.842	1314.968
758.459	22.430	1372.828	1314.423
759.473	22.519	1372.469	1314.595
760.488	22.443	1371.378	1312.824
761.502	22.451	1369.995	1311.396
762.517	22.386	1368.756	1309.567
763.532	22.193	1366.816	1306.114
764.546	21.907	1365.145	1302.229
765.561	21.483	1363.716	1297.549
766.575	21.033	1362.573	1292.951
767.590	21.121	1361.327	1292.272
768.605	21.422	1360.948	1293.995
769.619	21.808	1359.944	1295.759
770.634	22.068	1359.212	1296.831
771.648	22.394	1358.499	1298.418
772.663	22.494	1358.618	1299.112
773.678	22.522	1357.627	1298.223
774.692	22.565	1357.068	1297.849
775.707	22.475	1356.405	1296.391
776.721	22.564	1355.319	1295.858
777.736	22.589	1354.482	1295.090
778.751	22.715	1353.053	1294.491
779.765	22.563	1351.978	1292.192
780.780	22.469	1351.874	1291.246
781.794	22.552	1350.459	1290.349
782.809	22.264	1349.476	1287.135
783.824	22.242	1347.749	1285.171
784.838	21.815	1345.469	1279.713
785.853	21.265	1343.826	1273.969
786.867	21.291	1343.223	1273.436
787.882	21.544	1343.769	1275.652
788.897	21.844	1342.902	1276.872
789.911	22.148	1342.532	1278.590
790.926	22.218	1341.362	1277.838
791.940	22.414	1339.580	1277.416
792.955	22.400	1338.670	1276.295
793.969	22.447	1338.003	1275.848
794.984	22.449	1337.275	1275.014
795.999	22.579	1336.074	1274.659
797.013	22.589	1334.456	1273.038
798.028	22.748	1333.068	1272.711
799.042	22.479	1332.928	1270.479
800.057	22.735	1331.672	1270.982
801.072	22.646	1330.156	1268.743
802.086	22.777	1328.903	1268.337
803.101	22.722	1328.643	1267.543
804.115	22.772	1327.451	1266.616
805.130	22.668	1326.516	1264.823
806.145	22.864	1324.877	1264.518
807.159	22.736	1323.297	1261.938
808.174	22.507	1322.585	1259.465
809.188	22.481	1320.840	1257.463
810.203	22.329	1318.477	1253.976
811.218	22.027	1316.430	1249.720
812.232	21.553	1315.299	1245.104
813.247	21.231	1314.960	1242.330
814.261	21.725	1314.733	1245.498
815.276	22.231	1314.234	1248.494
816.291	22.485	1313.538	1249.494
817.305	22.759	1312.817	1250.606
818.320	22.595	1311.664	1248.193
819.334	22.645	1310.234	1247.039
820.349	22.823	1308.689	1246.681
821.364	22.932	1307.676	1246.345
822.378	22.806	1306.918	1244.580
823.393	22.688	1305.707	1242.437
824.407	22.803	1303.796	1241.285
825.422	22.751	1303.074	1240.085
826.437	22.616	1302.213	1238.164
827.451	22.593	1299.003	1234.796
828.466	21.912	1297.525	1228.455
829.480	21.567	1295.645	1224.101
830.495	21.722	1294.697	1224.147
831.509	22.087	1295.319	1227.153
832.524	22.511	1295.210	1229.883
833.539	22.538	1293.663	1228.450
834.553	22.752	1292.684	1228.876
835.568	22.687	1292.053	1227.675
836.582	22.846	1290.442	1227.109
837.597	22.935	1288.854	1226.070
838.612	22.716	1287.687	1223.289
839.626	22.732	1286.377	1222.008
840.641	22.338	1285.150	1217.959
841.655	22.038	1283.640	1214.296
842.670	21.777	1281.732	1210.533
843.685	21.118	1281.194	1205.303
844.699	21.792	1280.565	1209.244
845.714	22.265	1279.690	1211.548
846.728	22.531	1279.006	1212.601
847.743	22.671	1278.154	1212.615
848.758	22.846	1277.412	1212.972
849.772	22.810	1276.434	1211.646
850.787	22.949	1274.339	1210.471
851.801	22.903	1273.362	1209.087
852.816	22.735	1272.228	1206.705
853.831	22.607	1270.526	1204.067
854.845	22.700	1268.225	1202.382
855.860	22.518	1267.486	1200.290
856.874	22.168	1266.215	1196.549
857.889	22.076	1264.291	1193.957
858.904	21.592	1263.209	1189.487
859.918	21.285	1261.055	1185.223
860.933	21.124	1259.850	1182.857
861.947	21.639	1259.517	1185.908
862.962	22.068	1258.223	1187.465
863.977	22.016	1257.669	1186.442
864.991	22.238	1258.036	1188.160
866.006	22.347	1257.709	1188.449
867.020	22.628	1256.323	1188.902
868.035	22.744	1255.406	1188.676
869.049	22.877	1254.427	1188.508
870.064	22.906	1253.495	1187.673
871.079	22.766	1252.697	1185.829
872.093	22.839	1251.711	1185.252
873.108	22.938	1250.209	1184.355
874.122	22.419	1248.545	1179.139
875.137	21.913	1248.335	1175.394
876.152	21.993	1247.074	1174.606
877.166	21.958	1245.732	1172.964
878.181	22.455	1244.601	1175.094
879.195	22.739	1244.096	1176.384
880.210	22.875	1243.690	1176.769
881.225	22.650	1243.411	1174.858
882.239	22.654	1242.552	1173.933
883.254	22.755	1241.603	1173.570
884.268	22.877	1240.352	1173.062
885.283	22.833	1239.461	1171.783
886.298	22.897	1237.539	1170.251
887.312	22.907	1236.357	1169.060
888.327	22.988	1235.521	1168.668
889.341	22.965	1233.788	1166.736
890.356	22.792	1233.573	1165.249
891.371	22.740	1233.256	1164.462
892.385	22.693	1231.996	1162.824
893.400	22.573	1230.658	1160.627
894.414	22.243	1229.410	1157.125
895.429	22.083	1227.133	1153.789
896.444	21.490	1224.533	1147.298
897.458	21.027	1223.455	1143.103
898.473	21.535	1223.368	1146.227
899.487	21.990	1223.633	1149.339
900.502	22.353	1223.127	1151.111
901.517	22.523	1222.461	1151.464
902.531	22.593	1221.265	1150.660
903.546	22.739	1220.252	1150.526
904.560	22.895	1219.777	1150.960
905.575	22.979	1218.831	1150.481
906.589	22.865	1218.173	1148.971
907.604	22.810	1217.140	1147.500
