DTS Sentinel unit serial number:	SN409020Multiplexer serial number:	ORYXHardware model number:	OX4-SRSoftware version number:	ORYX F/W v3.00 Oryx Data Collector v3.7.2.0data status	okinstallation	HaddamTimeLapsedifferential loss correction	single-endedforward channel	channel 3reverse channel	N/Adate	2011/06/21time	15:26:17forward acquisition time	30.00reverse acquisition time	0.00gamma	498.7831k internal	0.1815k external	0.1815temperature offset calibration	1.0074default loss term (dB/km)	0.3790temperature slope calibration	1.3530multiplexer offset coefficient	1.0000multiplexer slope coefficient	1.0000fibre end	0.00T internal ref (°C)	37.81T ext. ref 1 (°C)	28.25T ext. ref 2 (°C)	0.25length (m)	temperature (°C)	Stokes	anti-Stokes-747.200	-63.909	-0.226	0.118
-746.185	-200.000	0.108	0.800
-745.171	-64.034	0.615	-0.321
-744.156	-28.590	-0.155	0.114
-743.142	-200.000	0.060	-0.420
-742.127	396.238	-0.034	0.092
-741.112	-89.454	-0.449	-0.168
-740.098	-31.192	-0.133	-0.096
-739.083	-200.000	0.052	-0.307
-738.069	-113.368	0.272	-0.068
-737.054	463.987	0.127	0.364
-736.039	592.909	-0.153	0.487
-735.025	800.000	-0.035	-0.169
-734.010	547.709	0.083	0.257
-732.996	56.629	0.093	0.116
-731.981	195.921	-0.124	-0.241
-730.966	-200.000	0.064	0.461
-729.952	-80.894	0.017	-0.007
-728.937	-81.747	0.305	0.127
-727.923	95.390	-0.068	-0.100
-726.908	6.635	-0.408	-0.389
-725.894	2.555	-0.120	-0.111
-724.879	-200.000	-0.094	0.692
-723.864	-200.000	-0.023	-0.233
-722.850	-200.000	0.016	0.209
-721.835	-158.031	-0.121	-0.009
-720.821	31.844	0.173	-0.190
-719.806	-200.000	0.044	0.365
-718.791	4.063	0.086	-0.080
-717.777	153.871	0.137	-0.240
-716.762	165.832	-0.094	0.170
-715.748	-70.597	-0.224	-0.108
-714.733	280.852	-0.081	-0.186
-713.718	-100.995	-0.164	0.051
-712.704	100.951	0.079	-0.118
-711.689	-76.629	0.400	-0.179
-710.675	254.016	-0.162	-0.355
-709.660	-57.732	0.629	-0.351
-708.645	-16.120	0.098	0.080
-707.631	-137.112	-0.260	0.038
-706.616	-140.220	-0.526	-0.070
-705.602	45.329	-0.327	-0.386
-704.587	122.224	0.106	-0.170
-703.572	730.952	-0.117	-0.404
-702.558	-79.233	0.421	0.182
-701.543	333.361	0.106	-0.262
-700.529	25.196	0.205	-0.218
-699.514	42.566	0.096	-0.111
-698.499	65.458	0.122	0.159
-697.485	-13.880	0.390	0.322
-696.470	86.984	0.273	0.387
-695.456	7.050	0.079	-0.075
-694.441	-137.854	0.263	-0.037
-693.426	-183.169	0.144	0.003
-692.412	112.641	0.076	-0.118
-691.397	4.304	0.333	0.312
-690.383	-88.988	-0.423	-0.159
-689.368	-200.000	0.035	-0.548
-688.354	19.874	0.136	0.140
-687.339	-200.000	-0.019	-0.148
-686.324	-200.000	0.013	-0.373
-685.310	-200.000	0.047	-0.346
-684.295	-89.410	-0.252	-0.094
-683.281	-200.000	-0.046	0.440
-682.266	-188.863	-0.286	-0.004
-681.251	-200.000	-0.026	0.364
-680.237	-50.844	0.298	0.178
-679.222	-200.000	-0.038	-0.296
-678.208	328.398	0.059	0.146
-677.193	50.214	-0.306	-0.369
-676.178	-90.171	-0.360	0.133
-675.164	310.130	0.139	-0.334
-674.149	-87.721	0.267	0.103
-673.135	248.634	-0.075	0.162
-672.120	-79.745	-0.452	-0.194
-671.105	-200.000	0.016	0.426
-670.091	699.756	-0.051	-0.172
-669.076	324.667	-0.138	-0.337
-668.062	-136.310	-0.101	-0.015
-667.047	-107.799	-0.904	-0.250
-666.032	9.432	-0.111	0.107
-665.018	800.000	0.120	-0.487
-664.003	-144.423	0.223	-0.026
-662.989	3.867	-0.209	0.195
-661.974	-101.961	0.221	-0.068
-660.959	-129.108	-0.157	0.028
-659.945	-24.860	0.157	-0.119
-658.930	-80.122	-0.287	0.122
-657.916	-200.000	0.048	0.406
-656.901	759.662	-0.015	0.052
-655.886	-102.546	0.478	-0.145
-654.872	87.368	-0.159	-0.225
-653.857	-3.205	-0.251	-0.223
-652.843	29.977	-0.143	-0.155
-651.828	11.261	-0.176	-0.172
-650.814	-65.017	0.163	-0.084
-649.799	-185.900	0.138	0.003
-648.784	-113.878	0.107	-0.026
-647.770	-154.611	0.230	-0.019
-646.755	500.051	0.081	0.241
-645.741	-6.378	-0.231	0.201
-644.726	-142.274	0.092	0.011
-643.711	-125.920	-0.409	0.078
-642.697	800.000	0.066	-0.255
-641.682	-80.268	-0.256	-0.109
-640.668	136.131	0.185	-0.308
-639.653	800.000	-0.016	0.076
-638.638	-21.966	-0.284	0.220
-637.624	-99.657	-0.707	0.225
-636.609	800.000	-0.065	0.335
-635.595	223.466	-0.149	-0.308
-634.580	-88.421	0.214	0.081
-633.565	605.137	-0.115	-0.369
-632.551	-60.014	0.398	-0.216
-631.536	-167.726	-0.184	-0.009
-630.522	-188.487	0.049	-0.001
-629.507	-135.058	0.071	-0.011
-628.492	509.041	-0.098	0.291
-627.478	-171.634	-0.165	-0.007
-626.463	800.000	0.081	0.327
-625.449	-139.330	0.366	0.050
-624.434	-115.945	0.632	-0.149
-623.419	267.541	-0.138	-0.309
-622.405	-31.808	0.077	-0.055
-621.390	258.067	0.039	0.085
-620.376	-200.000	0.038	-0.266
-619.361	430.003	0.076	-0.211
-618.346	372.082	0.142	0.371
-617.332	8.055	-0.274	-0.262
-616.317	-200.000	0.125	-0.883
-615.303	-185.136	0.301	0.006
-614.288	88.823	-0.120	0.170
-613.273	91.037	0.054	-0.078
-612.259	278.590	-0.245	-0.559
-611.244	-89.460	-0.599	-0.223
-610.230	117.879	0.175	0.275
-609.215	-5.017	-0.421	-0.369
-608.201	81.927	-0.249	0.344
-607.186	-177.766	0.472	-0.014
-606.171	290.945	0.124	0.289
-605.157	-200.000	-0.026	0.234
-604.142	-1.326	-0.369	0.332
-603.128	-1.130	-0.172	0.155
-602.113	-200.000	-0.027	-0.182
-601.098	47.248	0.172	-0.204
-600.084	-119.324	-0.510	-0.112
-599.069	-135.053	0.072	0.011
-598.055	-70.783	0.067	0.032
-597.040	-71.316	-0.065	-0.031
-596.025	800.000	-0.117	-0.533
-595.011	-55.134	0.163	-0.093
-593.996	-37.458	0.416	0.282
-592.982	100.066	0.145	0.214
-591.967	-200.000	0.060	-0.386
-590.952	-113.979	-0.316	0.078
-589.938	-92.109	0.040	0.014
-588.923	79.024	-0.227	0.310
-587.909	-87.746	-0.400	-0.153
-586.894	-200.000	0.049	-0.297
-585.879	38.066	-0.066	0.075
-584.865	-200.000	0.004	-0.039
-583.850	-141.743	0.202	0.026
-582.836	189.773	0.226	-0.432
-581.821	-26.204	-0.085	0.063
-580.806	-84.042	-0.456	-0.183
-579.792	-67.921	0.288	-0.143
-578.777	800.000	-0.026	-0.112
-577.763	221.550	-0.061	0.126
-576.748	-38.794	-0.072	-0.048
-575.733	54.451	0.123	0.151
-574.719	800.000	-0.057	0.256
-573.704	-35.090	0.208	-0.144
-572.690	128.170	0.139	0.226
-571.675	190.765	0.163	0.313
-570.661	38.341	-0.122	-0.138
-569.646	-40.075	-0.321	-0.213
-568.631	91.118	-0.082	0.117
-567.617	-97.749	0.307	-0.101
-566.602	315.973	-0.122	-0.294
-565.588	-200.000	-0.048	-0.500
-564.573	247.185	0.239	-0.516
-563.558	-146.810	0.459	-0.050
-562.544	800.000	-0.132	-0.636
-561.529	94.597	0.118	-0.172
-560.515	-171.197	0.260	0.011
-559.500	-200.000	-0.028	0.336
-558.485	-80.439	0.355	0.150
-557.471	-108.296	-0.167	-0.046
-556.456	30.056	-0.260	-0.282
-555.442	800.000	0.055	-0.224
-554.427	-200.000	0.042	-0.545
-553.412	52.535	0.459	-0.558
-552.398	-142.104	0.143	0.018
-551.383	-14.184	0.134	-0.110
-550.369	-200.000	-0.001	-0.452
-549.354	-127.131	-0.085	-0.016
-548.339	-100.599	-0.177	0.055
-547.325	800.000	0.077	-0.372
-546.310	800.000	-0.056	-0.306
-545.296	-64.215	0.375	-0.193
-544.281	128.919	0.061	-0.099
-543.266	800.000	-0.112	-0.536
-542.252	491.475	-0.020	-0.059
-541.237	800.000	0.127	-0.468
-540.223	-63.806	0.390	-0.202
-539.208	-23.305	-0.088	-0.067
-538.193	-21.758	0.360	-0.278
-537.179	-200.000	-0.020	0.218
-536.164	-173.415	0.251	0.009
-535.150	366.041	0.084	-0.217
-534.135	787.596	0.053	0.186
-533.121	176.751	-0.265	-0.492
-532.106	32.742	0.181	-0.199
-531.091	-73.018	-0.172	0.080
-530.077	-151.999	-0.183	0.017
-529.062	-200.000	-0.010	0.126
-528.048	176.158	-0.076	0.140
-527.033	-181.758	-0.217	-0.005
-526.018	-82.278	-0.161	0.066
-525.004	173.557	0.164	0.301
-523.989	177.558	0.134	0.249
-522.975	2.452	-0.423	-0.389
-521.960	109.905	-0.254	-0.388
-520.945	-200.000	0.012	-0.106
-519.931	800.000	-0.081	0.401
-518.916	-116.179	-0.040	-0.009
-517.902	434.593	0.171	0.473
-516.887	200.127	-0.172	0.336
-515.872	249.866	0.140	-0.304
-514.858	800.000	-0.067	0.284
-513.843	112.447	0.197	-0.303
-512.829	-148.109	0.616	-0.064
-511.814	249.589	0.245	0.530
-510.799	-28.972	-0.350	0.255
-509.785	283.229	0.073	0.167
-508.770	245.065	0.115	0.247
-507.756	-52.235	0.052	0.030
-506.741	-6.772	-0.098	0.084
-505.726	-24.841	-0.198	0.149
-504.712	-25.776	-0.084	-0.063
-503.697	-144.462	0.570	0.066
-502.683	-5.503	-0.419	0.365
-501.668	-85.200	-0.472	0.186
-500.653	53.135	0.210	-0.255
-499.639	71.145	-0.130	0.172
-498.624	-17.524	-0.170	0.135
-497.610	-98.403	0.259	-0.084
-496.595	-200.000	0.010	-0.106
-495.581	-166.864	-0.338	-0.017
-494.566	-4.250	0.364	0.319
-493.551	15.293	0.305	-0.304
-492.537	-172.932	-0.240	0.009
-491.522	-50.190	-0.336	0.201
-490.508	-120.671	0.458	0.098
-489.493	-130.227	-0.367	-0.063
-488.478	172.411	-0.219	0.400
-487.464	114.757	0.107	-0.165
-486.449	-58.886	0.207	-0.113
-485.435	-101.136	-0.145	0.045
-484.420	-89.197	-0.396	0.148
-483.405	229.344	-0.173	0.359
-482.391	149.785	-0.178	-0.307
-481.376	280.056	-0.176	-0.401
-480.362	-200.000	-0.029	-0.261
-479.347	-150.405	0.397	-0.038
-478.332	-38.866	-0.128	-0.085
-477.318	800.000	0.098	0.460
-476.303	-111.437	0.322	-0.083
-475.289	-114.421	0.283	-0.068
-474.274	-68.304	-0.172	0.085
-473.259	-95.895	-0.135	0.045
-472.245	-174.284	-0.578	-0.021
-471.230	-83.079	-0.386	0.157
-470.216	800.000	0.037	0.181
-469.201	-96.734	0.286	-0.095
-468.186	44.485	-0.370	0.431
-467.172	220.189	0.189	-0.384
-466.157	-113.384	0.141	-0.035
-465.143	-200.000	-0.042	0.241
-464.128	-110.896	-0.177	-0.046
-463.113	-83.027	-0.273	0.111
-462.099	-125.763	-0.107	-0.020
-461.084	176.198	0.131	0.243
-460.070	-31.196	-0.325	0.231
-459.055	-65.542	-0.412	-0.209
-458.040	1.888	-0.057	-0.052
-457.026	-200.000	-0.041	-0.420
-456.011	-200.000	-0.012	-0.255
-454.997	77.139	0.198	0.267
-453.982	-114.732	-0.087	-0.021
-452.968	-7.883	-0.433	-0.370
-451.953	800.000	-0.026	0.094
-450.938	31.327	0.306	-0.333
-449.924	28.491	0.207	-0.221
-448.909	-86.678	-0.149	-0.057
-447.895	435.000	-0.112	0.310
-446.880	-49.432	0.191	-0.115
-445.865	-200.000	0.015	-0.096
-444.851	-22.909	0.297	-0.227
-443.836	16.763	-0.260	-0.260
-442.822	-132.222	-0.603	0.098
-441.807	-17.697	-0.133	-0.106
-440.792	-120.203	0.463	0.099
-439.778	-135.799	-0.151	0.022
-438.763	39.155	-0.237	0.269
-437.749	29.145	-0.331	-0.355
-436.734	-36.638	0.066	0.045
-435.719	-32.639	-0.274	-0.193
-434.705	131.962	-0.058	-0.095
-433.690	-118.891	0.566	0.125
-432.676	132.014	0.199	0.325
-431.661	800.000	-0.078	0.357
-430.646	594.722	-0.119	-0.373
-429.632	-15.946	0.353	0.284
-428.617	-17.281	0.272	0.217
-427.603	800.000	-0.034	-0.122
-426.588	-84.335	0.254	0.101
-425.573	-79.169	-0.182	-0.078
-424.559	166.815	-0.174	0.314
-423.544	-200.000	0.017	0.560
-422.530	-16.292	-0.395	0.317
-421.515	-80.191	0.290	0.122
-420.500	65.910	-0.234	0.300
-419.486	-77.228	-0.107	-0.047
-418.471	-73.374	-0.052	0.024
-417.457	30.677	-0.318	-0.344
-416.442	148.921	-0.085	0.146
-415.428	-200.000	0.048	0.454
-414.413	800.000	-0.115	0.460
-413.398	192.401	-0.184	0.353
-412.384	-200.000	-0.047	-0.539
-411.369	800.000	0.019	0.087
-410.355	-150.985	0.193	-0.018
-409.340	33.642	0.022	0.024
-408.325	-78.120	0.305	-0.132
-407.311	-3.455	0.272	0.240
-406.296	195.660	0.090	0.174
-405.282	167.535	-0.125	0.225
-404.267	-146.999	0.646	0.069
-403.252	-6.477	0.210	-0.181
-402.238	-200.000	-0.024	-0.236
-401.223	-69.134	-0.138	-0.067
-400.209	-54.789	-0.266	0.151
-399.194	6.001	-0.422	0.395
-398.179	-135.554	-0.074	0.011
-397.165	-41.794	-0.302	0.195
-396.150	-99.833	-0.254	0.080
-395.136	-200.000	-0.057	-0.335
-394.121	-75.426	-0.392	0.176
-393.106	-200.000	-0.007	-0.133
-392.092	57.533	0.238	-0.295
-391.077	139.897	0.194	-0.323
-390.063	-116.430	0.071	0.016
-389.048	406.078	0.121	-0.325
-388.033	-119.516	0.092	-0.020
-387.019	160.475	0.078	-0.137
-386.004	63.389	0.232	0.294
-384.990	210.284	0.096	0.192
-383.975	-40.067	-0.156	0.103
-382.960	33.497	-0.220	-0.242
-381.946	-200.000	0.000	0.120
-380.931	14.990	-0.238	-0.235
-379.917	246.745	-0.156	-0.333
-378.902	283.186	0.188	0.427
-377.888	-44.792	-0.268	0.168
-376.873	-13.866	0.548	-0.447
-375.858	-200.000	-0.015	0.212
-374.844	-200.000	0.003	-0.378
-373.829	-166.783	0.493	0.025
-372.815	298.313	-0.161	0.376
-371.800	523.865	-0.031	0.093
-370.785	-166.730	0.334	0.017
-369.771	200.259	0.189	0.368
-368.756	-109.404	-0.313	-0.083
-367.742	800.000	-0.058	0.206
-366.727	56.939	0.311	0.383
-365.712	257.108	0.087	0.189
-364.698	120.308	0.183	-0.288
-363.683	-13.358	0.198	0.162
-362.669	-100.754	-0.221	0.068
-361.654	-32.307	-0.392	0.276
-360.639	117.865	-0.178	0.278
-359.625	3.943	-0.284	0.262
-358.610	496.494	0.032	0.093
-357.596	-53.923	-0.209	0.120
-356.581	194.665	0.054	0.103
-355.566	-171.116	-0.198	-0.008
-354.552	161.906	0.315	0.558
-353.537	-200.000	0.013	0.097
-352.523	29.760	0.270	-0.290
-351.508	-71.155	0.161	0.076
-350.493	577.691	0.100	-0.309
-349.479	-27.510	0.431	0.316
-348.464	800.000	0.077	-0.363
-347.450	-200.000	-0.037	-0.233
-346.435	-106.516	0.459	-0.128
-345.420	176.831	-0.160	-0.294
-344.406	123.924	-0.097	0.154
-343.391	-21.657	0.173	-0.133
-342.377	-47.691	0.262	0.160
-341.362	-44.556	-0.142	0.089
-340.348	-200.000	-0.020	0.220
-339.333	15.951	0.167	0.166
-338.318	-106.168	0.563	-0.158
-337.304	40.042	0.326	0.370
-336.289	-74.097	-0.308	0.140
-335.275	86.552	-0.040	-0.056
-334.260	-51.963	-0.312	0.182
-333.245	-104.110	0.165	-0.048
-332.231	-200.000	-0.016	0.205
-331.216	-56.133	0.441	0.247
-330.202	1.612	0.143	-0.129
-329.187	70.084	0.096	-0.124
-328.172	-104.204	0.099	-0.029
-327.158	20.294	0.243	-0.247
-326.143	-95.795	-0.057	0.019
-325.129	3.412	0.271	-0.248
-324.114	-142.193	-0.430	0.053
-323.099	-33.763	-0.347	-0.241
-322.085	8.756	-0.219	-0.208
-321.070	218.819	-0.135	-0.273
-320.056	24.674	0.054	0.056
-319.041	4.295	-0.170	0.156
-318.026	111.656	-0.116	0.177
-317.012	-200.000	0.021	0.132
-315.997	-50.764	0.206	-0.122
-314.983	-84.946	0.215	-0.085
-313.968	-157.867	-0.700	-0.051
-312.953	17.862	0.144	0.145
-311.939	118.616	0.224	-0.349
-310.924	-156.938	-0.373	0.028
-309.910	-55.837	-0.084	0.047
-308.895	-81.212	0.315	-0.131
-307.880	338.806	-0.017	0.043
-306.866	310.092	-0.060	0.142
-305.851	-62.570	0.421	0.219
-304.837	-200.000	0.007	0.309
-303.822	-200.000	0.036	-0.240
-302.807	356.700	0.093	0.233
-301.793	-44.412	0.438	0.275
-300.778	64.306	-0.390	0.496
-299.764	800.000	-0.104	0.392
-298.749	-51.280	0.178	-0.104
-297.735	-19.680	-0.291	0.226
-296.720	-200.000	-0.069	-0.644
-295.705	110.387	-0.223	-0.338
-294.691	-45.024	0.263	0.164
-293.676	800.000	0.065	0.294
-292.662	-76.562	-0.392	-0.172
-291.647	-128.548	-0.195	0.034
-290.632	-200.000	0.018	-0.610
-289.618	-88.494	0.417	-0.156
-288.603	-86.165	0.297	-0.115
-287.589	-157.266	-0.490	-0.037
-286.574	-160.002	-0.405	-0.027
-285.559	-125.457	-0.264	-0.050
-284.545	96.270	-0.091	-0.131
-283.530	-97.067	0.067	-0.022
-282.516	166.577	-0.189	-0.339
-281.501	-127.978	-0.442	-0.079
-280.486	151.717	-0.050	-0.086
-279.472	-76.342	-0.356	-0.157
-278.457	209.042	0.107	-0.211
-277.443	800.000	0.088	0.444
-276.428	304.518	0.042	0.098
-275.413	-200.000	0.023	-0.134
-274.399	-200.000	0.002	0.213
-273.384	-36.232	-0.117	0.079
-272.370	-80.984	-0.503	-0.208
-271.355	-155.540	-0.106	-0.008
-270.340	-120.436	0.159	-0.034
-269.326	-38.335	-0.246	-0.163
-268.311	-122.981	0.415	-0.083
-267.297	-102.249	0.125	-0.037
-266.282	-29.347	0.161	0.116
-265.267	-120.522	0.375	0.079
-264.253	223.213	0.099	0.202
-263.238	-124.405	0.268	0.052
-262.224	-200.000	-0.012	-0.314
-261.209	800.000	-0.047	-0.177
-260.195	800.000	-0.053	0.199
-259.180	-36.655	0.209	0.141
-258.165	-165.069	0.175	-0.010
-257.151	-128.504	-0.306	-0.054
-256.136	375.248	-0.166	-0.428
-255.122	123.028	0.171	-0.270
-254.107	-6.731	0.161	0.137
-253.092	-40.536	-0.352	0.229
-252.078	96.659	0.262	-0.377
-251.063	-44.561	-0.462	0.289
-250.049	-106.131	-0.530	-0.149
-249.034	561.884	0.126	-0.386
-248.019	-110.706	-0.303	-0.078
-247.005	63.699	0.274	-0.346
-245.990	-65.468	0.139	-0.070
-244.976	17.971	0.071	-0.071
-243.961	29.746	-0.262	0.281
-242.946	-113.741	-0.273	0.066
-241.932	-132.524	0.129	0.021
-240.917	-93.735	-0.165	0.057
-239.903	-58.629	-0.263	0.143
-238.888	-74.026	0.323	0.146
-237.873	106.903	-0.185	-0.276
-236.859	-28.925	0.494	0.356
-235.844	173.143	0.224	-0.408
-234.830	-89.180	-0.261	0.096
-233.815	800.000	-0.115	0.574
-232.800	-92.532	-0.393	-0.138
-231.786	-68.248	-0.364	-0.177
-230.771	-37.540	-0.037	-0.025
-229.757	98.304	0.107	-0.154
-228.742	300.949	-0.089	0.208
-227.727	-8.643	-0.421	0.354
-226.713	28.832	-0.262	-0.279
-225.698	800.000	-0.027	0.101
-224.684	305.581	-0.062	-0.145
-223.669	183.528	0.108	0.202
-222.655	134.288	-0.187	-0.305
-221.640	-71.028	0.547	-0.257
-220.625	-168.575	-0.617	0.029
-219.611	-50.055	-0.385	-0.229
-218.596	-200.000	0.028	0.204
-217.582	-200.000	-0.018	0.405
-216.567	798.969	0.096	0.333
-215.552	229.676	0.106	0.219
-214.538	-102.667	0.183	0.055
-213.523	-164.457	0.218	0.012
-212.509	-49.477	0.242	-0.144
-211.494	-43.235	0.226	0.143
-210.479	-85.583	0.454	-0.176
-209.465	800.000	-0.033	-0.143
-208.450	34.871	-0.159	0.174
-207.436	-200.000	0.047	-0.307
-206.421	800.000	0.094	-0.434
-205.406	-130.547	0.442	0.074
-204.392	-100.348	0.333	0.103
-203.377	18.237	-0.045	-0.046
-202.363	-83.470	0.598	0.239
-201.348	-200.000	0.004	0.473
-200.333	298.464	0.107	0.247
-199.319	-58.161	-0.110	-0.060
-198.304	-72.719	-0.158	0.073
-197.290	72.600	0.258	-0.337
-196.275	667.138	0.082	0.268
-195.260	9.303	-0.283	0.269
-194.246	66.397	0.029	0.037
-193.231	155.761	0.173	-0.300
-192.217	-104.030	-0.233	0.068
-191.202	-192.098	0.216	-0.003
-190.187	120.954	0.190	0.297
-189.173	-39.383	0.239	0.157
-188.158	40.875	-0.186	0.210
-187.144	-200.000	0.016	0.257
-186.129	195.403	0.131	-0.250
-185.114	-148.371	0.221	-0.022
-184.100	-160.048	0.407	0.027
-183.085	-200.000	0.002	0.140
-182.071	61.198	-0.117	0.146
-181.056	164.832	-0.235	0.417
-180.042	-200.000	-0.178	0.000
-179.027	-37.851	-0.348	0.232
-178.012	-78.324	-0.092	0.039
-176.998	-200.000	0.012	0.646
-175.983	-200.000	0.050	0.312
-174.969	-75.647	0.307	0.136
-173.954	-200.000	-0.008	-0.151
-172.939	-72.247	0.324	0.150
-171.925	-200.000	-0.065	0.372
-170.910	-200.000	0.005	-0.373
-169.896	211.898	-0.100	-0.199
-168.881	800.000	-0.077	0.349
-167.866	146.038	0.213	0.360
-166.852	14.096	-0.118	-0.115
-165.837	-200.000	-0.032	-0.667
-164.823	-147.382	0.337	-0.035
-163.808	-90.295	0.192	-0.069
-162.793	-147.166	0.176	0.019
-161.779	-21.232	-0.241	-0.184
-160.764	181.381	-0.117	0.217
-159.750	-110.662	-0.349	-0.090
-158.735	600.045	-0.034	0.107
-157.720	127.052	0.166	0.264
-156.706	800.000	-0.047	-0.183
-155.691	-70.513	0.382	0.180
-154.677	800.000	-0.046	0.212
-153.662	85.210	0.240	-0.330
-152.647	35.633	0.085	-0.093
-151.633	-50.907	0.191	-0.112
-150.618	786.721	0.084	0.290
-149.604	-166.340	-0.341	0.018
-148.589	60.992	0.182	0.227
-147.574	388.746	-0.132	0.343
-146.560	7.634	0.192	-0.180
-145.545	-94.323	0.238	0.081
-144.531	217.279	0.208	-0.416
-143.516	187.744	-0.092	-0.172
-142.502	-11.255	0.513	-0.422
-141.487	-200.000	0.046	-0.371
-140.472	39.437	0.142	-0.159
-139.458	171.933	0.158	-0.285
-138.443	-8.758	-0.353	0.296
-137.429	174.561	0.148	-0.269
-136.414	449.729	-0.096	-0.266
-135.399	730.983	-0.030	-0.100
-134.385	-67.891	0.517	-0.252
-133.370	-200.000	-0.002	0.399
-132.356	72.848	0.323	0.422
-131.341	17.515	-0.716	-0.712
-130.326	380.809	0.036	0.092
-129.312	-177.321	0.246	0.007
-128.297	-200.000	-0.016	0.109
-127.283	-200.000	-0.019	0.428
-126.268	-51.308	0.302	0.176
-125.253	-200.000	0.017	0.286
-124.239	-104.666	-0.233	0.067
-123.224	-76.970	0.350	-0.152
-122.210	359.203	0.135	-0.339
-121.195	-55.154	0.532	0.299
-120.180	-26.066	0.561	0.412
-119.166	-200.000	0.007	-0.143
-118.151	-129.797	0.514	-0.088
-117.137	76.877	0.370	0.491
-116.122	416.305	0.119	-0.319
-115.107	-45.139	-0.199	-0.124
-114.093	273.084	-0.160	0.354
-113.078	-154.690	0.256	0.021
-112.064	-53.371	-0.097	0.056
-111.049	430.769	0.253	-0.687
-110.034	237.942	0.199	-0.414
-109.020	-151.990	0.281	-0.025
-108.005	-44.467	-0.276	-0.172
-106.991	-56.913	0.289	-0.159
-105.976	-200.000	-0.002	0.110
-104.962	800.000	0.012	-0.052
-103.947	608.531	0.068	0.212
-102.932	800.000	-0.103	0.422
-101.918	34.354	0.139	-0.152
-100.903	46.446	-0.127	-0.147
-99.889	-38.172	-0.337	0.222
-98.874	-43.808	-0.162	0.101
-97.859	800.000	0.114	0.611
-96.845	-124.978	0.281	-0.053
-95.830	-200.000	-0.051	-0.365
-94.816	141.371	-0.216	-0.359
-93.801	-200.000	-0.046	-0.310
-92.786	-37.096	0.451	0.301
-91.772	-140.285	-0.337	-0.044
-90.757	-80.061	-0.428	0.179
-89.743	148.774	-0.037	-0.063
-88.728	-73.243	0.374	-0.170
-87.713	431.070	0.161	-0.439
-86.699	1.083	0.342	-0.306
-85.684	121.647	-0.180	0.281
-84.670	10.044	0.310	-0.294
-83.655	115.381	-0.365	-0.557
-82.640	-113.914	-0.165	0.040
-81.626	-38.513	0.148	0.098
-80.611	246.362	-0.184	-0.389
-79.597	7.100	-0.253	0.236
-78.582	-147.306	0.496	-0.052
-77.567	-200.000	-0.019	-0.278
-76.553	-168.144	-0.260	0.012
-75.538	-14.971	-0.139	-0.111
-74.524	-160.579	0.277	-0.018
-73.509	-200.000	0.012	-0.085
-72.494	120.103	0.229	-0.356
-71.480	-60.777	0.502	-0.264
-70.465	-200.000	-0.039	-0.306
-69.451	-200.000	-0.018	0.140
-68.436	-100.712	0.235	0.072
-67.422	100.912	0.036	0.053
-66.407	648.038	-0.103	0.331
-65.392	94.491	-0.509	-0.723
-64.378	-65.402	-0.261	-0.130
-63.363	113.263	0.018	0.027
-62.349	37.089	-0.137	-0.151
-61.334	-35.404	-1.328	-0.898
-60.319	-143.168	0.766	0.091
-59.305	267.679	-2.489	-5.456
-58.290	-8.694	2.954	2.470
-57.276	384.218	3.977	10.265
-56.261	-200.000	13.254	205.034
-55.246	475.648	1148.843	3253.125
-54.232	65.294	2797.930	3532.690
-53.217	72.582	2711.399	3531.306
-52.203	55.783	2438.115	2949.718
-51.188	47.755	2083.561	2426.835
-50.173	40.430	1951.508	2191.896
-49.159	38.571	1939.968	2158.273
-48.144	38.174	1936.181	2149.589
-47.130	38.324	1933.656	2148.361
-46.115	38.131	1932.955	2145.364
-45.100	38.187	1930.822	2143.521
-44.086	38.151	1928.944	2140.964
-43.071	38.100	1928.057	2139.331
-42.057	38.091	1925.550	2136.367
-41.042	38.116	1924.484	2135.370
-40.027	38.069	1923.309	2133.460
-39.013	38.019	1921.958	2131.328
-37.998	38.072	1920.310	2130.006
-36.984	37.992	1919.215	2127.823
-35.969	37.906	1918.537	2126.050
-34.954	38.020	1916.782	2125.270
-33.940	38.046	1915.855	2124.435
-32.925	38.004	1914.308	2122.178
-31.911	37.858	1913.844	2119.990
-30.896	37.982	1911.882	2119.079
-29.881	37.766	1910.928	2115.583
-28.867	37.986	1909.180	2115.965
-27.852	37.828	1907.640	2112.447
-26.838	37.825	1906.650	2111.240
-25.823	37.878	1904.669	2109.536
-24.809	37.971	1903.143	2108.775
-23.794	37.896	1902.409	2107.066
-22.779	37.899	1900.593	2105.001
-21.765	37.843	1899.883	2103.526
-20.750	37.836	1898.401	2101.717
-19.736	37.812	1897.286	2100.146
-18.721	37.698	1896.415	2097.862
-17.706	37.836	1895.169	2097.891
-16.692	37.687	1894.800	2095.790
-15.677	37.726	1892.865	2093.990
-14.663	37.754	1890.867	2091.999
-13.648	37.820	1889.372	2090.968
-12.633	37.753	1888.382	2089.076
-11.619	37.637	1887.646	2086.920
-10.604	37.650	1885.908	2085.055
-9.590	37.699	1884.414	2083.856
-8.575	37.679	1883.496	2082.541
-7.560	37.557	1882.265	2079.782
-6.546	37.459	1882.414	2078.809
-5.531	37.451	1881.738	2077.898
-4.517	37.604	1879.394	2076.873
-3.502	37.648	1877.742	2075.434
-2.487	37.590	1877.663	2074.644
-1.473	37.748	1874.254	2072.485
-0.458	37.208	1852.532	2042.677
0.556	32.186	1979.485	2113.292
1.571	30.150	2193.180	2315.623
2.586	31.538	2242.403	2385.103
3.600	31.777	2245.051	2390.697
4.615	31.977	2244.254	2392.136
5.629	31.900	2241.678	2388.115
6.644	31.817	2239.370	2384.309
7.659	32.044	2238.049	2385.510
8.673	32.185	2237.207	2386.128
9.688	31.644	2241.068	2383.041
10.702	28.265	2308.805	2410.154
11.717	24.693	2373.097	2428.296
12.731	12.783	2341.849	2234.592
13.746	2.184	2312.417	2062.968
14.761	0.518	2307.913	2036.118
15.775	0.270	2307.242	2031.922
16.790	0.249	2305.051	2029.464
17.804	0.293	2302.919	2027.935
18.819	0.331	2302.216	2027.586
19.834	0.310	2300.156	2025.256
20.848	0.302	2299.130	2023.994
21.863	0.302	2297.694	2022.493
22.877	0.293	2295.715	2020.385
23.892	0.194	2293.542	2016.894
24.907	0.155	2291.308	2014.173
25.921	0.305	2289.342	2014.212
26.936	0.209	2288.022	2011.520
27.950	0.263	2284.873	2009.240
28.965	0.234	2282.614	2006.622
29.980	0.234	2282.057	2005.892
30.994	0.428	2280.358	2006.749
32.009	6.741	2302.476	2111.019
33.023	21.560	2345.532	2351.817
34.038	28.295	2358.847	2456.026
35.053	29.322	2359.495	2470.237
36.067	29.467	2355.841	2468.076
37.082	29.093	2352.385	2459.130
38.096	29.067	2350.916	2456.950
39.111	29.324	2350.551	2459.723
40.126	29.933	2349.383	2466.367
41.140	30.404	2348.842	2471.815
42.155	30.070	2346.892	2464.999
43.169	29.992	2345.266	2461.956
44.184	30.168	2342.840	2461.462
45.199	30.251	2340.205	2459.503
46.213	30.056	2339.578	2455.954
47.228	30.078	2337.992	2454.287
48.242	30.064	2335.948	2451.659
49.257	30.081	2334.921	2450.517
50.271	30.625	2331.691	2454.045
51.286	30.465	2329.997	2449.856
52.301	29.902	2328.053	2440.059
53.315	29.956	2328.107	2440.531
54.330	30.833	2329.691	2453.529
55.344	31.339	2327.096	2457.185
56.359	31.409	2324.538	2455.112
57.374	31.212	2322.075	2449.622
58.388	30.937	2318.649	2442.091
59.403	31.079	2316.265	2441.164
60.417	31.205	2313.157	2439.253
61.432	31.483	2311.707	2441.068
62.447	31.246	2309.188	2435.014
63.461	31.103	2307.239	2430.803
64.476	30.973	2304.847	2426.289
65.490	31.543	2304.540	2433.129
66.505	31.609	2303.904	2433.019
67.520	30.717	2300.176	2417.161
68.534	29.367	2294.228	2393.029
69.549	29.179	2289.383	2385.232
70.563	29.232	2287.392	2383.560
71.578	29.436	2286.753	2385.260
72.593	29.615	2285.486	2385.979
73.607	29.912	2284.070	2388.069
74.622	29.771	2283.008	2384.847
75.636	29.519	2279.179	2377.303
76.651	29.499	2277.326	2374.828
77.666	29.430	2274.764	2370.980
78.680	29.438	2271.886	2367.798
79.695	29.438	2271.158	2366.753
80.709	29.515	2269.471	2365.706
81.724	29.499	2268.084	2363.766
82.739	29.648	2265.039	2362.233
83.753	29.833	2262.468	2361.646
84.768	29.567	2261.340	2356.772
85.782	29.399	2260.723	2353.690
86.797	29.331	2258.714	2350.438
87.812	29.245	2256.009	2346.246
88.826	29.152	2254.703	2343.420
89.841	29.227	2252.404	2341.703
90.855	29.474	2250.340	2342.434
91.870	29.104	2248.024	2335.030
92.884	29.043	2245.840	2331.702
93.899	29.213	2245.131	2332.846
94.914	29.228	2246.441	2334.116
95.928	29.643	2248.049	2340.795
96.943	30.018	2244.744	2341.838
97.957	29.355	2241.354	2329.614
98.972	29.105	2236.681	2321.302
99.987	28.914	2233.129	2314.929
101.001	29.005	2230.752	2313.343
102.016	29.067	2229.721	2312.776
103.030	29.155	2227.710	2311.524
104.045	29.425	2226.810	2313.709
105.060	29.780	2225.890	2316.948
106.074	29.893	2223.275	2315.371
107.089	29.383	2221.022	2306.342
108.103	29.384	2220.427	2305.466
109.118	29.641	2219.278	2307.214
110.133	29.546	2218.116	2304.542
111.147	29.454	2213.883	2298.722
112.162	29.312	2212.442	2295.172
113.176	29.374	2209.846	2292.978
114.191	29.345	2208.492	2290.939
115.206	29.302	2207.580	2289.181
116.220	29.483	2205.936	2289.451
117.235	29.461	2203.458	2286.342
118.249	29.474	2202.899	2285.642
119.264	29.894	2200.456	2288.056
120.279	29.731	2199.121	2284.375
121.293	29.674	2197.140	2281.333
122.308	29.687	2195.437	2279.446
123.322	29.478	2193.993	2275.086
124.337	29.230	2192.914	2270.629
125.352	30.123	2196.155	2284.787
126.366	30.997	2195.289	2294.425
127.381	30.026	2188.533	2275.105
128.395	29.434	2185.548	2264.433
129.410	29.620	2184.948	2265.837
130.424	29.777	2182.806	2265.280
131.439	29.737	2181.260	2262.913
132.454	29.662	2179.070	2259.438
133.468	29.743	2176.617	2257.628
134.483	29.861	2174.595	2256.707
135.497	29.809	2174.158	2255.345
136.512	30.003	2171.632	2254.830
137.527	29.690	2170.043	2249.082
138.541	29.367	2167.256	2241.976
139.556	29.252	2166.361	2239.376
140.570	29.261	2165.221	2238.035
141.585	29.370	2162.657	2236.444
142.600	29.480	2163.194	2238.075
143.614	29.509	2160.547	2235.422
144.629	29.686	2159.208	2235.924
145.643	29.567	2157.104	2232.028
146.658	29.377	2154.991	2227.276
147.673	29.080	2152.216	2220.541
148.687	29.247	2151.578	2221.635
149.702	29.438	2151.007	2223.095
150.716	29.434	2149.651	2221.374
151.731	29.461	2147.784	2219.511
152.746	29.362	2147.324	2217.568
153.760	29.119	2146.047	2213.052
154.775	29.540	2147.058	2218.920
155.789	29.960	2145.018	2221.610
156.804	29.211	2140.103	2207.235
157.819	28.767	2135.792	2197.194
158.833	28.843	2134.157	2196.160
159.848	29.315	2132.119	2199.458
160.862	29.685	2132.095	2203.602
161.877	29.790	2131.371	2203.851
162.892	30.118	2131.439	2207.586
163.906	30.167	2131.744	2208.220
164.921	30.321	2128.804	2206.762
165.935	30.150	2126.123	2201.672
166.950	30.075	2124.603	2198.940
167.964	29.769	2121.893	2192.232
168.979	29.608	2119.375	2187.447
169.994	29.605	2118.503	2186.250
171.008	29.736	2114.930	2183.861
172.023	29.496	2114.500	2180.303
173.037	29.696	2114.745	2182.664
174.052	29.951	2112.610	2183.227
175.067	29.934	2110.582	2180.663
176.081	29.719	2109.239	2176.480
177.096	29.717	2108.980	2175.922
178.110	29.684	2106.119	2172.316
179.125	29.711	2104.887	2171.114
180.140	29.748	2104.774	2171.169
181.154	29.864	2103.263	2170.720
182.169	29.819	2100.893	2167.477
183.183	29.886	2100.584	2167.695
184.198	30.585	2102.020	2177.141
185.213	30.572	2098.759	2173.360
186.227	29.929	2096.413	2163.116
187.242	29.620	2093.948	2156.693
188.256	29.762	2091.474	2155.551
189.271	29.843	2090.391	2155.117
190.286	30.021	2089.350	2155.867
191.300	29.728	2086.563	2149.316
192.315	29.604	2085.302	2146.317
193.329	29.995	2083.950	2149.224
194.344	30.358	2083.498	2152.736
195.359	30.512	2082.483	2153.221
196.373	30.637	2080.093	2151.951
197.388	30.199	2076.831	2143.223
198.402	29.883	2074.483	2136.874
199.417	29.732	2073.130	2133.477
200.432	29.999	2070.806	2133.920
201.446	29.909	2068.675	2130.438
202.461	29.682	2067.121	2125.950
203.475	29.349	2064.901	2119.566
204.490	29.243	2062.349	2115.474
205.504	29.310	2060.853	2114.457
206.519	29.288	2058.834	2111.882
207.534	29.264	2058.412	2110.922
208.548	29.532	2056.216	2111.490
209.563	29.077	2053.266	2102.989
210.577	29.042	2052.023	2101.063
211.592	29.497	2052.710	2106.731
212.607	29.521	2051.762	2105.781
213.621	28.996	2050.900	2098.625
214.636	29.027	2049.148	2096.946
215.650	28.996	2046.759	2093.888
216.665	29.084	2045.330	2093.181
217.680	29.371	2045.093	2095.972
218.694	29.616	2042.546	2095.903
219.709	29.474	2041.236	2092.689
220.723	29.785	2041.932	2096.697
221.738	30.116	2040.383	2098.626
222.753	30.033	2037.300	2094.255
223.767	29.803	2034.246	2088.264
224.782	29.544	2032.375	2083.154
225.796	29.551	2031.577	2082.162
226.811	29.936	2030.511	2085.176
227.826	30.047	2028.496	2084.120
228.840	29.974	2027.831	2082.363
229.855	29.826	2026.610	2079.188
230.869	29.619	2024.626	2074.565
231.884	29.528	2022.717	2071.333
232.899	29.647	2022.401	2072.101
233.913	29.919	2021.882	2074.391
234.928	30.148	2021.314	2076.140
235.942	30.189	2019.266	2074.249
236.957	29.945	2017.522	2069.468
237.972	29.964	2016.565	2068.452
238.986	30.093	2014.712	2067.746
240.001	29.684	2012.275	2060.421
241.015	29.481	2011.117	2056.710
242.030	29.863	2011.730	2061.366
243.045	30.746	2013.441	2072.760
244.059	31.101	2011.138	2074.117
245.074	30.584	2005.487	2062.277
246.088	29.877	2002.791	2051.384
247.103	30.116	2001.173	2052.141
248.117	29.963	2000.597	2049.604
249.132	30.058	1998.788	2048.560
250.147	29.900	1995.972	2043.673
251.161	29.783	1994.758	2040.888
252.176	29.997	1994.190	2042.429
253.190	30.065	1990.696	2039.364
254.205	29.726	1988.926	2033.556
255.220	29.913	1987.441	2033.861
256.234	29.591	1986.407	2029.004
257.249	29.264	1985.464	2024.193
258.263	29.374	1983.934	2023.607
259.278	29.530	1983.079	2024.210
260.293	29.521	1982.267	2023.038
261.307	29.514	1980.352	2020.764
262.322	29.560	1978.011	2018.639
263.336	29.226	1975.405	2012.070
264.351	28.933	1974.074	2007.266
265.366	29.168	1972.548	2008.046
266.380	29.278	1971.794	2008.239
267.395	28.915	1969.538	2001.731
268.409	28.885	1967.981	1999.588
269.424	29.265	1966.586	2002.074
270.439	29.332	1966.235	2002.209
271.453	29.491	1966.390	2003.869
272.468	30.090	1965.968	2009.730
273.482	29.992	1963.709	2006.104
274.497	29.282	1959.060	1993.405
275.512	29.160	1956.471	1989.206
276.526	29.212	1953.978	1986.993
277.541	29.243	1951.721	1984.805
278.555	29.005	1950.711	1980.959
279.570	28.813	1948.632	1976.541
280.585	28.831	1946.831	1974.669
281.599	28.913	1946.221	1974.700
282.614	29.254	1945.819	1977.732
283.628	29.750	1947.199	1984.249
284.643	30.146	1945.287	1986.330
285.657	30.005	1943.896	1983.157
286.672	29.750	1941.952	1978.198
287.687	29.603	1939.796	1974.182
288.701	29.440	1937.582	1969.947
289.716	29.452	1936.128	1968.357
290.730	29.644	1935.990	1970.043
291.745	29.891	1935.525	1971.971
292.760	30.083	1933.605	1971.838
293.774	29.850	1932.905	1968.392
294.789	30.013	1932.279	1969.261
295.803	30.172	1929.601	1967.999
296.818	29.981	1928.851	1964.960
297.833	30.091	1927.826	1964.852
298.847	30.212	1925.928	1963.973
299.862	30.017	1924.394	1960.100
300.876	30.049	1923.945	1959.742
301.891	30.844	1925.092	1969.130
302.906	30.801	1922.664	1965.960
303.920	30.238	1919.391	1956.412
304.935	30.006	1917.219	1951.506
305.949	30.062	1915.584	1950.197
306.964	30.534	1913.672	1953.004
307.979	30.181	1912.302	1947.645
308.993	29.500	1909.361	1937.235
310.008	29.497	1907.716	1935.302
311.022	29.952	1907.297	1939.444
312.037	29.998	1906.250	1938.629
313.052	29.946	1903.083	1934.624
314.066	29.511	1901.897	1928.623
315.081	29.676	1900.196	1928.403
316.095	29.617	1899.447	1926.791
317.110	29.439	1897.812	1923.041
318.125	29.353	1896.265	1920.337
319.139	29.234	1894.610	1917.186
320.154	29.436	1893.391	1917.834
321.168	29.429	1891.211	1915.327
322.183	29.446	1890.987	1915.047
323.197	29.726	1890.168	1916.907
324.212	29.722	1887.832	1914.266
325.227	29.486	1885.812	1909.536
326.241	29.368	1883.115	1905.348
327.256	29.330	1881.869	1903.464
328.270	29.154	1881.561	1901.101
329.285	29.188	1881.318	1900.979
330.300	29.348	1881.961	1903.064
331.314	29.904	1881.635	1908.265
332.329	30.058	1879.116	1907.078
333.343	29.353	1875.701	1896.108
334.358	29.311	1873.082	1892.801
335.373	29.479	1871.839	1893.048
336.387	29.517	1870.018	1891.371
337.402	29.359	1869.092	1888.574
338.416	29.394	1867.154	1886.759
339.431	29.461	1865.828	1885.874
340.446	29.786	1865.314	1888.472
341.460	29.848	1863.921	1887.465
342.475	30.057	1862.780	1888.226
343.489	29.520	1859.967	1879.661
344.504	29.188	1858.286	1874.334
345.519	29.365	1857.908	1875.540
346.533	29.353	1855.869	1873.136
347.548	29.490	1854.394	1872.819
348.562	29.504	1852.518	1870.843
349.577	29.650	1853.015	1872.609
350.592	30.116	1852.134	1876.241
351.606	30.303	1852.034	1877.811
352.621	30.279	1849.597	1874.876
353.635	29.997	1847.911	1870.080
354.650	29.660	1845.658	1864.158
355.665	29.499	1843.843	1860.468
356.679	29.704	1843.283	1861.758
357.694	29.801	1842.665	1861.892
358.708	29.925	1841.685	1861.936
359.723	30.207	1840.977	1863.848
360.738	30.282	1840.516	1863.914
361.752	30.184	1838.266	1860.428
362.767	29.993	1835.334	1855.313
363.781	29.877	1833.896	1852.466
364.796	29.928	1833.349	1852.202
365.810	30.028	1831.498	1851.118
366.825	29.833	1829.101	1846.520
367.840	29.560	1827.622	1842.064
368.854	29.362	1826.445	1838.672
369.869	29.352	1825.340	1837.245
370.883	29.489	1822.719	1835.756
371.898	29.358	1821.597	1833.099
372.913	29.494	1820.674	1833.306
373.927	29.391	1819.305	1830.686
374.942	29.296	1817.917	1828.118
375.956	29.290	1816.880	1826.799
376.971	29.020	1814.524	1821.529
377.986	29.371	1813.172	1823.436
379.000	29.543	1813.014	1824.772
380.015	29.643	1811.968	1824.492
381.029	29.643	1809.454	1821.744
382.044	29.522	1807.398	1818.251
383.059	29.618	1806.385	1817.969
384.073	29.291	1805.394	1813.522
385.088	28.980	1804.538	1809.369
386.102	29.288	1802.936	1810.590
387.117	29.488	1801.961	1811.366
388.132	29.508	1801.222	1810.605
389.146	29.426	1801.685	1810.043
390.161	29.662	1801.146	1811.608
391.175	30.084	1795.841	1810.205
392.190	29.491	1792.441	1800.743
393.205	29.361	1790.731	1797.534
394.219	29.271	1789.669	1795.371
395.234	29.151	1787.827	1792.139
396.248	29.051	1785.384	1788.496
397.263	29.004	1783.133	1785.568
398.278	28.861	1781.320	1782.152
399.292	28.752	1781.230	1780.786
400.307	29.352	1782.165	1787.348
401.321	29.579	1780.695	1787.876
402.336	29.586	1779.462	1786.488
403.350	29.510	1776.806	1782.874
404.365	29.635	1776.273	1783.339
405.380	29.804	1774.212	1782.693
406.394	29.669	1773.033	1779.985
407.409	29.453	1771.696	1776.336
408.423	29.378	1769.941	1773.640
409.438	29.368	1769.252	1772.641
410.453	29.425	1768.492	1772.217
411.467	29.538	1766.801	1771.400
412.482	29.515	1766.239	1770.408
413.496	29.713	1765.655	1771.514
414.511	29.787	1763.653	1770.010
415.526	29.861	1761.269	1768.113
416.540	29.937	1760.490	1767.855
417.555	29.780	1759.060	1764.693
418.569	29.746	1758.640	1763.742
419.584	30.013	1758.844	1766.295
420.599	29.953	1758.715	1765.372
421.613	29.602	1756.467	1759.547
422.628	29.383	1755.383	1756.160
423.642	29.889	1753.156	1758.549
424.657	29.595	1751.269	1753.647
425.672	29.217	1749.379	1747.935
426.686	29.441	1748.545	1749.028
427.701	29.785	1747.616	1751.162
428.715	30.059	1747.174	1753.118
429.730	30.413	1746.839	1755.941
430.745	30.653	1745.440	1756.604
431.759	30.149	1743.891	1750.047
432.774	29.195	1740.368	1737.269
433.788	27.793	1735.840	1719.278
434.803	26.950	1733.855	1709.124
435.818	26.904	1733.128	1707.770
436.832	26.778	1732.882	1706.134
437.847	26.290	1726.607	1695.152
438.861	17.013	1699.176	1581.509
439.876	3.897	1674.993	1436.989
440.890	0.562	1668.940	1400.554
441.905	0.367	1667.278	1397.183
442.920	0.263	1665.575	1394.618
443.934	0.214	1664.672	1393.238
444.949	0.291	1663.273	1392.615
445.963	0.165	1663.384	1391.370
446.978	0.193	1662.241	1390.511
447.993	0.429	1660.861	1391.381
449.007	0.357	1658.613	1388.658
450.022	0.419	1656.163	1387.013
451.036	0.343	1654.891	1385.085
452.051	1.403	1662.379	1401.011
453.066	12.659	1688.550	1528.437
454.080	24.599	1707.731	1657.652
455.095	28.180	1715.366	1698.341
456.109	30.857	1719.678	1727.401
457.124	31.858	1718.941	1735.777
458.139	31.108	1717.317	1726.954
459.153	30.549	1714.878	1719.097
460.168	30.533	1712.938	1716.803
461.182	30.532	1711.063	1714.701
462.197	30.612	1710.384	1714.562
463.212	30.646	1707.901	1712.177
464.226	30.676	1706.998	1711.346
465.241	31.035	1706.441	1713.897
466.255	31.253	1705.932	1715.193
467.270	31.397	1703.655	1714.030
468.285	31.202	1703.116	1711.486
469.299	30.836	1703.099	1707.891
470.314	31.242	1700.810	1709.127
471.328	31.338	1699.518	1708.507
472.343	31.244	1698.465	1706.381
473.358	31.330	1697.133	1705.628
474.372	31.373	1695.635	1704.316
475.387	31.228	1694.878	1702.018
476.401	31.444	1692.938	1701.840
477.416	31.074	1692.175	1697.488
478.430	31.509	1690.787	1699.867
479.445	31.508	1689.952	1698.816
480.460	31.265	1687.772	1694.204
481.474	31.275	1686.677	1692.990
482.489	31.420	1686.351	1693.784
483.503	31.507	1684.464	1692.481
484.518	31.486	1683.057	1690.671
485.533	31.713	1682.487	1691.957
486.547	31.710	1681.381	1690.616
487.562	32.001	1680.825	1692.493
488.576	32.089	1679.849	1692.108
489.591	32.161	1678.524	1691.220
490.606	32.117	1676.994	1689.077
491.620	32.013	1676.190	1687.129
492.635	32.180	1673.255	1685.479
493.649	31.864	1671.482	1680.644
494.664	31.148	1669.692	1672.192
495.679	30.831	1667.450	1666.896
496.693	31.027	1666.934	1667.942
497.708	31.417	1666.415	1670.733
498.722	31.679	1666.583	1673.048
499.737	32.012	1665.276	1674.524
500.752	31.729	1663.275	1669.775
501.766	31.438	1661.492	1665.182
502.781	31.639	1659.976	1665.264
503.795	31.636	1657.971	1663.022
504.810	31.524	1657.374	1661.228
505.825	31.796	1656.526	1662.606
506.839	31.659	1655.119	1659.769
507.854	31.563	1653.534	1657.130
508.868	31.475	1651.752	1654.361
509.883	31.107	1649.793	1648.932
510.898	31.030	1648.950	1647.210
511.912	30.992	1646.046	1643.780
512.927	30.652	1644.107	1638.631
513.941	30.533	1644.515	1637.792
514.956	31.193	1644.610	1643.529
515.971	32.120	1643.923	1650.840
516.985	31.774	1642.339	1646.002
518.000	31.169	1640.814	1638.940
519.014	31.074	1638.668	1635.758
520.029	31.001	1637.028	1633.288
521.043	30.918	1635.451	1630.786
522.058	30.801	1634.191	1628.306
523.073	30.975	1633.607	1629.057
524.087	31.305	1632.969	1631.126
525.102	31.396	1631.851	1630.605
526.116	31.423	1630.470	1629.270
527.131	31.470	1630.013	1629.029
528.146	31.756	1629.838	1631.165
529.160	31.952	1629.205	1632.048
530.175	32.094	1628.535	1632.425
531.189	32.077	1627.808	1631.349
532.204	32.297	1626.161	1631.422
533.219	32.071	1623.698	1626.789
534.233	31.616	1622.272	1621.207
535.248	31.567	1620.962	1619.276
536.262	31.897	1621.330	1622.320
537.277	32.469	1621.191	1626.956
538.292	32.668	1619.503	1626.798
539.306	32.685	1618.079	1625.315
540.321	32.442	1616.507	1621.444
541.335	31.928	1614.442	1614.733
542.350	32.402	1613.141	1617.331
543.365	32.802	1612.266	1619.712
544.379	32.968	1611.309	1619.989
545.394	32.987	1609.414	1618.056
546.408	32.320	1606.763	1609.460
547.423	31.582	1605.024	1601.182
548.438	31.530	1604.103	1599.624
549.452	31.694	1603.157	1599.897
550.467	32.000	1601.935	1601.108
551.481	32.079	1601.640	1601.299
552.496	32.158	1601.275	1601.419
553.511	32.484	1599.542	1602.283
554.525	32.505	1598.644	1601.375
555.540	32.387	1597.937	1599.464
556.554	32.320	1597.358	1598.126
557.569	32.180	1595.459	1594.837
558.583	32.009	1593.108	1590.841
559.598	32.041	1591.847	1589.660
560.613	31.768	1591.716	1587.019
561.627	32.000	1589.404	1586.498
562.642	31.656	1587.274	1581.255
563.656	31.623	1585.141	1578.663
564.671	31.403	1583.936	1575.413
565.686	31.235	1582.705	1572.579
566.700	31.138	1581.706	1570.577
567.715	31.064	1580.851	1568.914
568.729	31.344	1580.575	1570.817
569.744	32.101	1579.971	1576.424
570.759	32.480	1578.260	1577.722
571.773	32.068	1576.809	1572.608
572.788	31.776	1575.620	1568.777
573.802	31.331	1573.252	1562.494
574.817	31.066	1571.545	1558.387
575.832	31.152	1570.814	1558.194
576.846	31.592	1569.771	1560.663
577.861	31.980	1568.738	1562.698
578.875	31.967	1568.950	1562.616
579.890	32.211	1568.503	1564.022
580.905	32.372	1567.105	1563.785
581.919	32.481	1567.160	1564.567
582.934	32.653	1566.401	1565.057
583.948	32.544	1564.562	1562.122
584.963	32.450	1563.215	1559.809
585.978	32.239	1561.324	1555.984
586.992	31.997	1560.762	1553.220
588.007	32.363	1560.859	1556.178
589.021	32.171	1558.732	1552.273
590.036	31.478	1555.905	1543.526
591.051	32.081	1556.614	1549.047
592.065	32.792	1555.445	1553.590
593.080	32.951	1554.372	1553.644
594.094	33.222	1552.326	1553.649
595.109	32.577	1549.197	1545.020
596.123	32.207	1547.290	1539.887
597.138	32.243	1547.297	1540.001
598.153	32.334	1545.958	1539.234
599.167	32.219	1544.343	1536.498
600.182	32.150	1543.615	1535.026
601.196	32.376	1543.140	1536.224
602.211	32.470	1541.837	1535.515
603.226	32.295	1540.835	1532.900
604.240	32.563	1539.515	1533.596
605.255	32.589	1538.588	1532.697
606.269	32.593	1537.428	1531.391
607.284	32.498	1536.001	1529.017
608.299	32.504	1534.306	1527.195
609.313	32.386	1533.005	1524.755
610.328	32.185	1531.759	1521.696
611.342	32.329	1530.783	1521.714
612.357	32.250	1529.732	1519.843
613.372	32.081	1529.027	1517.591
614.386	31.962	1526.706	1514.139
615.401	31.969	1526.479	1513.791
616.415	31.871	1525.658	1511.996
617.430	31.558	1523.502	1507.145
618.445	31.331	1522.748	1504.389
619.459	31.291	1521.136	1502.291
620.474	31.369	1520.099	1501.713
621.488	31.741	1520.445	1504.883
622.503	32.426	1520.256	1510.039
623.518	32.060	1517.827	1504.500
624.532	31.388	1515.599	1496.706
625.547	31.221	1514.572	1494.166
626.561	31.146	1513.515	1492.345
627.576	31.302	1512.436	1492.358
628.591	31.526	1512.190	1493.727
629.605	32.094	1512.379	1498.293
630.620	32.591	1511.246	1500.979
631.634	33.149	1510.647	1504.664
632.649	33.211	1510.251	1504.589
633.663	32.725	1508.177	1498.459
634.678	31.927	1505.161	1488.919
635.693	31.574	1502.427	1483.227
636.707	31.316	1500.548	1479.144
637.722	31.253	1500.614	1478.527
638.736	31.583	1500.052	1480.420
639.751	31.952	1500.125	1483.248
640.766	32.135	1497.898	1482.322
641.780	32.189	1495.947	1480.645
642.795	32.148	1496.012	1480.205
643.809	32.295	1496.115	1481.289
644.824	32.466	1495.196	1481.556
645.839	32.658	1494.347	1482.058
646.853	32.777	1492.331	1480.818
647.868	32.516	1491.515	1477.772
648.882	32.328	1489.920	1474.537
649.897	32.471	1488.552	1474.132
650.912	32.343	1487.588	1471.995
651.926	32.738	1486.794	1474.136
652.941	32.777	1485.596	1473.076
653.955	32.439	1482.824	1467.506
654.970	31.755	1480.705	1459.880
655.985	31.495	1479.032	1456.014
656.999	31.410	1477.735	1453.901
658.014	31.580	1476.892	1454.231
659.028	32.139	1476.873	1458.395
660.043	32.765	1477.358	1463.587
661.058	32.996	1475.629	1463.498
662.072	32.751	1475.435	1461.223
663.087	32.512	1473.304	1457.081
664.101	32.137	1472.191	1452.887
665.116	32.343	1471.372	1453.506
666.131	32.352	1470.514	1452.558
667.145	32.468	1469.135	1451.923
668.160	32.440	1467.705	1450.115
669.174	32.200	1466.369	1446.763
670.189	32.426	1465.285	1447.268
671.204	32.569	1465.057	1447.980
672.218	32.477	1464.544	1446.586
673.233	32.630	1462.663	1445.730
674.247	32.639	1461.192	1444.178
675.262	32.454	1459.617	1441.022
676.276	32.355	1458.616	1439.100
677.291	32.244	1457.849	1437.320
678.306	32.497	1456.361	1437.622
679.320	32.447	1454.549	1435.277
680.335	31.990	1454.020	1431.079
681.349	31.883	1454.408	1430.475
682.364	32.226	1452.816	1431.359
683.379	32.099	1451.261	1428.683
684.393	31.831	1450.408	1425.626
685.408	31.759	1448.624	1423.152
686.422	31.678	1446.996	1420.767
687.437	31.544	1445.618	1418.221
688.452	31.275	1444.501	1414.912
689.466	31.160	1443.450	1412.835
690.481	31.215	1441.921	1411.587
691.495	31.508	1442.540	1414.250
692.510	32.419	1443.811	1422.253
693.525	33.175	1442.670	1426.691
694.539	32.857	1440.161	1421.637
695.554	31.692	1438.351	1410.864
696.568	31.083	1436.444	1404.218
697.583	31.111	1435.373	1403.213
698.598	31.319	1434.835	1404.094
699.612	31.492	1433.156	1403.584
700.627	31.637	1432.604	1403.969
701.641	32.034	1431.689	1405.894
702.656	32.281	1430.267	1406.190
703.671	32.132	1430.655	1405.282
704.685	32.120	1429.937	1404.312
705.700	32.323	1428.766	1404.518
706.714	32.187	1427.230	1401.822
707.729	32.200	1425.717	1400.270
708.744	32.294	1424.685	1399.788
709.758	32.282	1423.705	1398.567
710.773	31.791	1420.828	1391.909
711.787	31.382	1419.363	1387.261
712.802	32.033	1419.807	1392.382
713.816	32.442	1419.511	1394.976
714.831	32.496	1418.055	1393.777
715.846	32.335	1416.989	1391.364
716.860	32.286	1415.390	1389.264
717.875	32.156	1414.044	1386.815
718.889	31.946	1413.397	1384.457
719.904	32.088	1411.660	1383.639
720.919	32.008	1410.360	1381.607
721.933	31.942	1409.918	1380.522
722.948	31.630	1409.113	1377.263
723.962	31.717	1408.368	1377.012
724.977	31.734	1407.008	1375.644
725.992	31.931	1405.649	1375.600
727.006	32.106	1405.024	1376.111
728.021	32.147	1403.009	1374.275
729.035	32.160	1401.764	1372.987
730.050	32.171	1400.134	1371.310
731.065	32.169	1399.313	1370.324
732.079	31.849	1398.309	1366.836
733.094	31.961	1398.009	1367.198
734.108	32.200	1397.121	1367.917
735.123	31.839	1395.274	1363.304
736.138	31.676	1394.173	1360.877
737.152	31.815	1392.898	1360.478
738.167	31.577	1391.581	1357.300
739.181	31.710	1391.035	1357.574
740.196	31.684	1390.339	1356.537
741.211	31.623	1389.703	1355.313
742.225	31.502	1388.706	1353.299
743.240	31.472	1386.903	1351.160
744.254	31.459	1384.544	1348.605
745.269	31.235	1383.284	1345.599
746.284	31.032	1382.772	1343.464
747.298	31.107	1381.508	1342.625
748.313	31.315	1381.558	1344.010
749.327	31.869	1381.943	1348.235
750.342	32.668	1382.331	1354.219
751.356	33.210	1381.239	1356.902
752.371	32.912	1379.315	1352.705
753.386	31.834	1376.139	1341.676
754.400	31.406	1375.126	1337.450
755.415	31.680	1374.234	1338.387
756.429	31.822	1373.269	1338.313
757.444	32.004	1372.250	1338.464
758.459	31.782	1371.917	1336.383
759.473	31.751	1369.724	1333.867
760.488	31.562	1367.874	1330.553
761.502	31.298	1367.052	1327.714
762.517	31.492	1366.807	1328.701
763.532	31.820	1365.893	1329.989
764.546	32.049	1364.058	1329.679
765.561	31.336	1362.898	1323.314
766.575	30.879	1361.464	1318.512
767.590	30.618	1360.767	1315.819
768.605	31.588	1360.204	1322.008
769.619	31.974	1359.577	1323.980
770.634	31.942	1358.480	1322.530
771.648	31.537	1357.157	1318.218
772.663	31.302	1355.655	1314.937
773.678	31.439	1355.232	1315.340
774.692	31.693	1354.127	1315.900
775.707	31.566	1354.180	1314.901
776.721	31.580	1353.261	1313.946
777.736	31.431	1351.335	1310.871
778.751	31.333	1350.249	1308.972
779.765	31.542	1349.828	1309.876
780.780	31.385	1349.370	1308.167
781.794	31.560	1347.901	1307.822
782.809	31.192	1346.526	1303.745
783.824	30.753	1345.188	1299.214
784.838	31.183	1344.645	1301.547
785.853	32.123	1345.093	1308.410
786.867	32.019	1343.932	1306.396
787.882	31.414	1342.901	1301.012
788.897	31.052	1341.225	1296.700
789.911	30.770	1339.659	1293.066
790.926	30.855	1337.646	1291.560
791.940	30.958	1336.730	1291.235
792.955	30.885	1335.656	1289.539
793.969	30.926	1334.716	1288.762
794.984	30.829	1333.914	1287.158
795.999	31.031	1333.453	1287.964
797.013	31.203	1331.227	1286.846
798.028	31.202	1329.823	1285.332
799.042	31.207	1329.023	1284.439
800.057	31.176	1327.635	1282.726
801.072	31.158	1326.594	1281.443
802.086	31.178	1325.222	1280.103
803.101	31.041	1324.662	1278.467
804.115	30.990	1324.410	1277.720
805.130	31.226	1323.333	1278.149
806.145	30.983	1322.622	1275.638
807.159	31.049	1320.850	1274.234
808.174	31.187	1320.017	1274.225
809.188	31.493	1319.429	1275.601
810.203	31.329	1318.054	1272.998
811.218	31.352	1315.837	1270.861
812.232	30.921	1314.068	1266.057
813.247	30.568	1313.297	1262.754
814.261	30.999	1313.648	1265.883
815.276	31.358	1312.508	1267.076
816.291	31.098	1310.774	1263.480
817.305	30.765	1310.187	1260.501
818.320	30.854	1308.909	1259.722
819.334	31.144	1307.396	1260.088
820.349	30.986	1306.587	1258.080
821.364	30.879	1305.064	1255.738
822.378	31.036	1303.512	1255.161
823.393	30.940	1301.743	1252.661
824.407	30.933	1300.200	1250.976
825.422	30.874	1300.372	1250.593
826.437	30.953	1299.634	1250.264
827.451	30.716	1298.045	1246.995
828.466	31.146	1298.299	1249.981
829.480	32.090	1296.921	1254.855
830.495	31.488	1294.046	1247.885
831.509	30.797	1292.867	1241.968
832.524	30.656	1291.980	1240.022
833.539	30.700	1291.013	1239.240
834.553	30.742	1289.920	1238.324
835.568	30.524	1288.638	1235.484
836.582	30.787	1286.909	1235.437
837.597	31.019	1285.258	1235.251
838.612	30.740	1284.012	1232.044
839.626	30.663	1283.305	1230.709
840.641	30.897	1283.015	1231.838
841.655	30.871	1282.106	1230.646
842.670	30.629	1280.266	1227.128
843.685	30.176	1278.833	1222.606
844.699	30.422	1278.865	1224.118
845.714	30.727	1277.635	1224.817
846.728	30.700	1275.790	1222.719
847.743	30.633	1275.003	1221.375
848.758	30.463	1274.347	1219.483
849.772	30.687	1272.973	1219.495
850.787	30.453	1271.556	1216.454
851.801	30.626	1270.534	1216.467
852.816	30.595	1269.628	1215.252
853.831	30.699	1267.926	1214.158
854.845	30.606	1266.446	1211.987
855.860	30.578	1264.749	1210.036
856.874	30.532	1263.718	1208.604
857.889	31.082	1263.282	1211.636
858.904	31.400	1263.810	1214.073
859.918	32.012	1263.427	1217.553
860.933	32.385	1261.892	1218.352
861.947	31.927	1259.809	1213.218
862.962	31.105	1258.022	1206.017
863.977	30.774	1256.727	1202.477
864.991	30.668	1255.081	1200.074
866.006	30.454	1254.674	1198.156
867.020	30.578	1253.072	1197.285
868.035	30.462	1251.775	1195.153
869.049	30.458	1251.454	1194.676
870.064	30.538	1250.091	1193.749
871.079	30.607	1249.391	1193.384
872.093	30.449	1249.125	1191.966
873.108	30.478	1247.288	1190.256
874.122	30.419	1246.030	1188.531
875.137	30.278	1246.122	1187.574
876.152	30.222	1245.091	1186.090
877.166	30.265	1243.426	1184.633
878.181	30.221	1241.264	1182.150
879.195	30.313	1241.005	1182.354
880.210	30.278	1240.851	1181.840
881.225	30.418	1239.455	1181.263
882.239	30.369	1238.426	1179.831
883.254	30.270	1237.417	1178.099
884.268	30.369	1236.792	1177.994
885.283	30.430	1235.549	1177.057
886.298	30.442	1234.075	1175.584
887.312	30.323	1232.939	1173.605
888.327	30.393	1232.162	1173.173
889.341	30.195	1231.245	1170.904
890.356	30.298	1230.170	1170.390
891.371	30.279	1229.867	1169.842
892.385	30.293	1229.707	1169.638
893.400	30.308	1228.798	1168.731
894.414	30.433	1227.201	1167.864
895.429	30.861	1226.837	1170.077
896.444	31.806	1226.603	1175.676
897.458	32.655	1226.210	1180.508
898.473	32.131	1224.379	1175.311
899.487	31.323	1222.262	1168.059
900.502	30.600	1220.414	1161.619
901.517	30.227	1219.145	1157.932
902.531	30.215	1218.154	1156.777
903.546	30.280	1217.068	1156.015
904.560	30.250	1216.331	1154.989
905.575	30.209	1215.533	1153.831
906.589	30.267	1214.505	1153.085
907.604	30.120	1213.881	1151.436
