DTS Sentinel unit serial number:	SN409020Multiplexer serial number:	ORYXHardware model number:	OX4-SRSoftware version number:	ORYX F/W v3.00 Oryx Data Collector v3.7.2.0data status	okinstallation	HaddamTimeLapsedifferential loss correction	single-endedforward channel	channel 3reverse channel	N/Adate	2011/06/22time	07:06:17forward acquisition time	30.00reverse acquisition time	0.00gamma	498.7831k internal	0.1752k external	0.1752temperature offset calibration	1.0074default loss term (dB/km)	0.3790temperature slope calibration	1.3530multiplexer offset coefficient	1.0000multiplexer slope coefficient	1.0000fibre end	0.00T internal ref (°C)	22.84T ext. ref 1 (°C)	19.46T ext. ref 2 (°C)	0.12length (m)	temperature (°C)	Stokes	anti-Stokes-747.200	211.160	0.132	-0.276
-746.185	-200.000	-0.019	-0.165
-745.171	-15.355	0.285	-0.242
-744.156	-20.257	-0.317	0.259
-743.142	-200.000	0.027	-0.177
-742.127	-200.000	0.034	0.356
-741.112	-123.294	-0.276	-0.058
-740.098	-200.000	-0.022	0.266
-739.083	-200.000	-0.020	0.501
-738.069	-200.000	0.032	0.470
-737.054	-106.593	0.074	-0.022
-736.039	800.000	-0.028	-0.109
-735.025	-80.175	-0.446	0.197
-734.010	-15.326	-0.332	0.281
-732.996	623.090	0.105	0.353
-731.981	-26.631	0.457	-0.354
-730.966	40.495	0.202	-0.242
-729.952	-129.858	-0.327	0.059
-728.937	800.000	-0.160	-0.619
-727.923	177.316	0.096	-0.187
-726.908	-89.890	0.235	-0.091
-725.894	-158.609	-0.609	0.046
-724.879	-121.922	-0.544	0.118
-723.864	-127.436	0.099	0.019
-722.850	-200.000	-0.034	0.293
-721.835	168.407	0.202	0.383
-720.821	-57.242	0.383	-0.223
-719.806	730.717	0.079	-0.282
-718.791	-200.000	-0.007	0.134
-717.777	708.562	0.085	0.299
-716.762	-100.204	-0.040	-0.013
-715.748	-124.384	0.278	0.057
-714.733	-165.770	0.505	0.028
-713.718	-200.000	0.052	0.364
-712.704	800.000	0.141	0.697
-711.689	800.000	-0.137	0.641
-710.675	42.453	-0.102	-0.123
-709.660	-200.000	-0.034	-0.223
-708.645	110.796	-0.125	0.200
-707.631	166.296	0.084	0.158
-706.616	169.877	-0.116	0.220
-705.602	-200.000	0.027	0.229
-704.587	-94.691	0.328	-0.117
-703.572	301.972	0.099	0.245
-702.558	-200.000	-0.052	-0.373
-701.543	-63.708	0.236	-0.128
-700.529	-46.493	0.411	0.266
-699.514	28.912	-0.252	-0.283
-698.499	185.081	0.165	-0.326
-697.485	53.304	0.350	-0.445
-696.470	186.475	-0.058	-0.114
-695.456	-62.407	-0.351	-0.193
-694.441	-73.745	0.089	-0.043
-693.426	-200.000	0.010	0.109
-692.412	21.542	0.279	0.301
-691.397	-16.658	-0.281	0.235
-690.383	404.272	-0.057	-0.159
-689.368	11.560	0.036	-0.036
-688.354	-112.387	-0.571	-0.150
-687.339	-82.389	0.056	0.024
-686.324	-71.899	-0.288	0.142
-685.310	-56.716	-0.286	-0.167
-684.295	800.000	-0.104	0.413
-683.281	292.196	-0.190	0.461
-682.266	-8.641	-0.241	-0.214
-681.251	-88.860	-0.498	0.195
-680.237	-105.709	-0.072	0.021
-679.222	-45.493	0.232	0.152
-678.208	-200.000	-0.004	0.769
-677.193	93.475	-0.037	-0.056
-676.178	-200.000	0.002	-0.043
-675.164	312.042	-0.135	-0.337
-674.149	-108.809	0.213	0.060
-673.135	7.340	0.622	-0.614
-672.120	-168.452	-0.510	0.025
-671.105	37.059	0.285	0.334
-670.091	54.472	0.103	0.132
-669.076	36.423	-0.255	-0.297
-668.062	-146.663	-0.148	-0.017
-667.047	-15.030	0.260	0.221
-666.032	-105.262	-0.554	-0.166
-665.018	-200.000	-0.014	0.103
-664.003	140.704	-0.256	-0.449
-662.989	230.901	-0.055	0.120
-661.974	-109.902	-0.163	-0.045
-660.959	65.615	0.252	0.338
-659.945	-85.793	0.240	0.098
-658.930	0.084	-0.249	-0.234
-657.916	-200.000	-0.029	0.278
-656.901	77.523	-0.398	0.561
-655.886	-36.439	-0.117	-0.083
-654.872	-159.683	0.383	0.028
-653.857	-60.697	-0.100	0.056
-652.843	-74.037	-0.477	0.228
-651.828	-106.557	-0.409	0.120
-650.814	409.252	0.222	0.623
-649.799	-71.852	0.128	-0.063
-648.784	-200.000	0.004	-0.211
-647.770	484.630	-0.112	0.338
-646.755	800.000	-0.015	0.060
-645.741	-200.000	0.007	-0.624
-644.726	69.664	0.138	0.188
-643.711	-93.303	0.406	0.148
-642.697	800.000	0.078	-0.324
-641.682	492.653	-0.231	-0.703
-640.668	-15.000	0.154	0.131
-639.653	289.745	0.108	0.259
-638.638	84.338	-0.056	-0.081
-637.624	172.414	-0.132	0.251
-636.609	-200.000	-0.008	-0.072
-635.595	49.485	-0.247	0.308
-634.580	237.995	0.073	-0.161
-633.565	-200.000	0.001	0.188
-632.551	143.051	0.275	-0.484
-631.536	34.780	0.135	0.157
-630.522	-48.090	-0.316	-0.201
-629.507	-26.004	-0.145	-0.112
-628.492	800.000	0.002	0.010
-627.478	141.908	-0.219	-0.385
-626.463	20.434	0.479	0.512
-625.449	-25.815	-0.247	0.192
-624.434	-94.515	-0.383	0.137
-623.419	800.000	-0.054	0.250
-622.405	-39.472	-0.159	-0.110
-621.390	52.217	0.083	-0.105
-620.376	0.667	0.088	-0.083
-619.361	-60.171	-0.120	0.067
-618.346	1.041	-0.125	0.118
-617.332	-6.322	0.270	0.243
-616.317	-8.945	0.136	0.120
-615.303	-96.875	-0.600	-0.207
-614.288	-44.072	-0.370	0.245
-613.273	-168.063	0.210	0.011
-612.259	-88.532	-0.448	0.176
-611.244	95.346	-0.082	0.124
-610.230	-5.830	0.093	0.084
-609.215	-151.537	-0.206	0.020
-608.201	-120.414	0.185	-0.041
-607.186	-200.000	-0.036	0.576
-606.171	-200.000	0.041	-0.467
-605.157	79.030	-0.294	0.417
-604.142	800.000	0.155	0.578
-603.128	-13.190	0.157	-0.135
-602.113	129.413	0.097	-0.164
-601.098	751.477	0.183	0.655
-600.084	676.960	-0.084	-0.289
-599.069	-62.086	0.239	-0.131
-598.055	230.638	-0.065	0.141
-597.040	61.095	0.182	-0.239
-596.025	-146.899	0.066	0.007
-595.011	18.960	0.292	-0.308
-593.996	-200.000	0.026	-0.339
-592.982	-171.893	-0.341	0.014
-591.967	-200.000	-0.036	0.262
-590.952	-139.637	0.396	0.055
-589.938	205.135	0.037	-0.077
-588.923	-5.898	0.247	-0.223
-587.909	91.886	0.174	-0.259
-586.894	-10.349	-0.293	0.256
-585.879	52.562	-0.156	0.196
-584.865	416.217	0.054	-0.152
-583.850	123.004	0.207	0.342
-582.836	184.973	-0.363	0.712
-581.821	-143.310	0.368	0.046
-580.806	-8.439	0.276	0.244
-579.792	4.748	0.330	0.320
-578.777	-175.170	0.088	-0.003
-577.763	-75.121	-0.544	-0.256
-576.748	78.731	-0.224	0.317
-575.733	-115.162	0.399	-0.099
-574.719	-25.636	0.221	0.172
-573.704	-147.409	0.307	-0.034
-572.690	119.426	0.341	-0.558
-571.675	10.953	-0.208	-0.210
-570.661	-94.519	-0.489	0.175
-569.646	37.964	0.274	0.321
-568.631	155.594	0.312	0.569
-567.617	-142.898	0.288	0.037
-566.602	127.344	0.183	0.307
-565.588	116.306	-0.127	0.205
-564.573	800.000	0.038	0.187
-563.558	105.919	0.156	-0.243
-562.544	113.035	0.240	-0.385
-561.529	157.601	-0.035	0.065
-560.515	800.000	0.093	-0.492
-559.500	-176.707	-0.298	0.010
-558.485	-87.419	0.407	-0.162
-557.471	-144.169	-0.295	-0.036
-556.456	800.000	0.091	0.359
-555.442	800.000	0.035	-0.143
-554.427	103.821	0.154	-0.239
-553.412	-90.939	-0.247	0.093
-552.398	193.969	-0.248	0.496
-551.383	-24.536	0.113	0.089
-550.369	22.494	0.349	0.376
-549.354	-20.945	0.319	0.257
-548.339	800.000	-0.011	-0.044
-547.325	10.195	0.251	0.252
-546.310	34.832	0.333	-0.384
-545.296	1.679	-0.299	-0.283
-544.281	216.786	-0.164	0.345
-543.266	-200.000	-0.059	-0.449
-542.252	-29.442	-0.115	-0.087
-541.237	17.862	-0.203	-0.213
-540.223	-20.473	-0.382	-0.309
-539.208	-106.539	-0.659	-0.192
-538.193	173.924	0.100	0.191
-537.179	55.026	0.151	-0.192
-536.164	-160.056	-0.217	-0.015
-535.150	-114.106	-0.148	-0.037
-534.135	152.716	0.082	0.148
-533.121	-61.237	0.249	0.138
-532.106	35.246	0.232	-0.268
-531.091	-52.629	-0.166	0.101
-530.077	-19.085	0.109	-0.089
-529.062	-179.895	0.219	0.006
-528.048	128.693	-0.123	-0.206
-527.033	453.592	-0.140	-0.410
-526.018	-140.588	0.291	0.039
-525.004	19.780	0.188	-0.199
-523.989	-50.931	-0.392	0.242
-522.975	-200.000	-0.008	0.205
-521.960	287.736	0.056	0.135
-520.945	-9.537	0.018	-0.016
-519.931	-166.231	-0.154	-0.008
-518.916	124.019	-0.227	-0.376
-517.902	-200.000	0.052	0.393
-516.887	800.000	-0.119	0.672
-515.872	56.007	-0.152	0.194
-514.858	-200.000	-0.071	0.609
-513.843	-95.679	-0.079	-0.028
-512.829	-80.412	-0.597	-0.261
-511.814	-178.579	-0.316	-0.009
-510.799	-62.207	0.187	-0.102
-509.785	-68.001	-0.366	-0.187
-508.770	48.551	0.251	-0.309
-507.756	-200.000	-0.038	-0.580
-506.741	-200.000	-0.053	-0.317
-505.726	-200.000	0.028	-0.455
-504.712	-15.284	0.389	-0.327
-503.697	-140.572	-0.445	-0.060
-502.683	-98.027	-0.368	0.124
-501.668	247.092	0.035	-0.079
-500.653	39.196	0.357	0.420
-499.639	196.164	0.159	0.319
-498.624	-30.246	-0.234	0.174
-497.610	60.383	-0.169	-0.220
-496.595	750.912	0.026	0.093
-495.581	-122.876	-0.140	-0.029
-494.566	-96.403	-0.277	-0.096
-493.551	-130.726	0.522	0.091
-492.537	-60.444	-0.433	0.241
-491.522	-133.797	0.207	0.034
-490.508	-109.111	-0.216	0.060
-489.493	-139.512	-0.340	-0.047
-488.478	-97.408	0.251	-0.085
-487.464	-105.949	-0.168	-0.049
-486.449	485.631	-0.007	-0.022
-485.435	800.000	0.081	-0.302
-484.420	16.368	0.071	0.074
-483.405	-180.367	0.179	-0.005
-482.391	-98.702	0.623	-0.207
-481.376	-13.835	-0.394	-0.334
-480.362	-83.282	-0.101	0.042
-479.347	34.439	-0.277	0.318
-478.332	-21.158	0.126	-0.101
-477.318	800.000	0.178	0.759
-476.303	113.283	-0.369	0.589
-475.289	-124.152	0.245	-0.050
-474.274	-14.771	-0.073	0.062
-473.259	-41.839	0.172	-0.115
-472.245	133.911	-0.140	0.239
-471.230	5.114	0.081	0.078
-470.216	-31.186	-0.111	-0.082
-469.201	-44.896	0.494	-0.323
-468.186	82.491	0.167	0.238
-467.172	-200.000	-0.000	-0.164
-466.157	-111.933	-0.766	-0.201
-465.143	-34.308	0.170	-0.123
-464.128	-103.309	0.273	0.084
-463.113	-200.000	-0.022	-0.151
-462.099	132.559	-0.090	-0.153
-461.084	8.319	0.234	0.230
-460.070	-186.939	-0.251	-0.004
-459.055	-126.525	-0.239	-0.046
-458.040	-105.088	-0.321	0.096
-457.026	-150.803	0.149	-0.015
-456.011	157.572	-0.039	-0.071
-454.997	612.555	0.061	-0.201
-453.982	-128.567	0.490	0.090
-452.968	-35.689	-0.200	0.142
-451.953	-111.281	0.519	-0.138
-450.938	-136.621	-0.248	0.037
-449.924	317.716	-0.057	0.142
-448.909	362.911	0.143	0.379
-447.895	800.000	0.040	-0.216
-446.880	136.564	-0.092	0.158
-445.865	387.433	-0.037	0.101
-444.851	246.914	-0.179	-0.399
-443.836	800.000	0.087	-0.433
-442.822	432.053	0.097	-0.276
-441.807	-49.963	0.232	-0.144
-440.792	55.603	0.033	0.042
-439.778	61.555	-0.021	-0.028
-438.763	770.242	0.085	0.306
-437.749	-200.000	0.023	-0.206
-436.734	77.914	0.294	-0.412
-435.719	14.882	-0.266	-0.272
-434.705	-11.996	-0.120	0.103
-433.690	91.782	-0.182	-0.269
-432.676	-200.000	0.034	0.335
-431.661	78.024	-0.297	0.416
-430.646	-95.601	0.204	0.071
-429.632	268.690	-0.233	0.539
-428.617	800.000	0.071	-0.299
-427.603	27.922	-0.371	-0.410
-426.588	180.466	0.083	0.160
-425.573	68.204	0.312	0.420
-424.559	38.676	0.093	0.109
-423.544	-101.381	0.176	-0.056
-422.530	151.287	0.099	0.178
-421.515	-147.397	-0.166	0.018
-420.500	-84.789	0.440	0.181
-419.486	800.000	0.056	-0.313
-418.471	800.000	0.080	-0.361
-417.457	-149.147	-0.195	0.020
-416.442	181.150	-0.179	-0.345
-415.428	-54.175	0.348	0.207
-414.413	-32.251	-0.078	0.057
-413.398	-24.295	0.141	-0.110
-412.384	800.000	0.050	-0.274
-411.369	-105.908	0.193	0.057
-410.355	-200.000	0.016	-0.318
-409.340	800.000	-0.117	-0.534
-408.325	9.719	0.348	-0.346
-407.311	-200.000	0.027	-0.438
-406.296	-119.699	0.494	-0.111
-405.282	502.945	0.091	-0.277
-404.267	-200.000	0.040	0.261
-403.252	104.804	-0.188	-0.291
-402.238	70.464	0.080	0.108
-401.223	104.686	-0.095	-0.147
-400.209	-1.336	-0.249	0.230
-399.194	-51.042	-0.559	0.342
-398.179	-70.822	-0.158	0.078
-397.165	-24.426	0.323	0.252
-396.150	-166.436	-0.162	-0.009
-395.136	-200.000	0.009	0.310
-394.121	-44.590	0.084	-0.055
-393.106	-62.465	-0.181	-0.098
-392.092	-200.000	-0.405	-0.001
-391.077	51.012	-0.067	0.083
-390.063	-84.515	0.109	-0.045
-389.048	85.553	0.233	0.336
-388.033	128.175	0.151	-0.253
-387.019	800.000	0.076	0.297
-386.004	-149.243	-0.273	-0.028
-384.990	6.027	0.021	0.020
-383.975	800.000	0.106	0.487
-382.960	186.889	-0.232	0.454
-381.946	234.048	-0.115	0.248
-380.931	500.563	-0.007	-0.020
-379.917	-200.000	0.037	0.233
-378.902	-138.455	-0.334	0.048
-377.888	-162.255	-0.574	0.037
-376.873	-200.000	-0.076	0.600
-375.858	-200.000	-0.066	-0.395
-374.844	-71.588	0.180	-0.087
-373.829	261.497	0.094	-0.214
-372.815	-13.839	-0.180	-0.152
-371.800	-7.866	-0.299	0.264
-370.785	-37.701	-0.262	-0.182
-369.771	-200.000	-0.003	0.456
-368.756	-9.640	0.269	0.234
-367.742	-103.775	-0.209	-0.064
-366.727	-45.266	-0.390	0.253
-365.712	210.005	-0.192	0.395
-364.698	341.280	0.043	-0.111
-363.683	266.295	-0.062	-0.142
-362.669	800.000	0.095	0.437
-361.654	-13.843	-0.092	-0.077
-360.639	800.000	0.034	-0.191
-359.625	800.000	0.097	-0.503
-358.610	-200.000	-0.018	-0.218
-357.596	355.384	-0.050	-0.131
-356.581	800.000	0.058	0.290
-355.566	35.143	0.062	0.071
-354.552	-1.618	0.524	-0.482
-353.537	83.672	-0.119	0.170
-352.523	-53.021	-0.289	-0.173
-351.508	316.404	0.252	0.624
-350.493	-9.142	0.142	0.124
-349.479	346.147	-0.053	0.137
-348.464	-30.092	-0.489	-0.363
-347.450	-135.150	0.198	0.031
-346.435	-74.290	-0.697	0.328
-345.420	646.298	-0.035	-0.118
-344.406	76.050	-0.194	-0.269
-343.391	-200.000	0.030	-0.476
-342.377	-200.000	-0.109	0.636
-341.362	-80.120	-0.497	-0.217
-340.348	-4.417	-0.409	-0.369
-339.333	-66.280	0.088	0.046
-338.318	-159.035	0.153	0.011
-337.304	800.000	-0.092	-0.359
-336.289	-36.051	-0.518	0.365
-335.275	-43.514	0.197	-0.130
-334.260	-106.106	-0.357	-0.104
-333.245	432.658	0.184	0.523
-332.231	-168.227	-0.271	0.013
-331.216	-128.232	-0.314	0.058
-330.202	-61.005	0.329	0.181
-329.187	17.836	-0.105	-0.109
-328.172	418.638	0.017	0.047
-327.158	-184.397	0.781	-0.016
-326.143	-2.788	0.196	-0.179
-325.129	-116.476	-0.217	0.052
-324.114	54.463	0.132	0.166
-323.099	104.877	-0.214	0.330
-322.085	-92.015	-0.358	0.131
-321.070	101.156	-0.098	0.150
-320.056	19.962	0.148	0.156
-319.041	146.277	0.369	0.649
-318.026	-77.420	0.265	0.120
-317.012	-200.000	0.011	0.431
-315.997	112.035	-0.274	-0.432
-314.983	117.799	0.108	0.175
-313.968	6.997	-0.462	-0.449
-312.953	533.990	0.131	0.407
-311.939	-176.224	0.153	-0.005
-310.924	0.065	-0.112	0.104
-309.910	800.000	0.075	0.391
-308.895	-136.764	0.093	-0.014
-307.880	129.743	0.316	0.529
-306.866	120.536	0.311	-0.505
-305.851	-107.669	-0.338	0.096
-304.837	-200.000	-0.018	-0.249
-303.822	-196.933	0.439	-0.004
-302.807	-133.951	-0.223	-0.036
-301.793	403.335	0.141	0.389
-300.778	-77.824	0.523	-0.235
-299.764	-200.000	0.006	0.591
-298.749	-98.073	0.109	0.036
-297.735	15.278	0.137	0.141
-296.720	-200.000	-0.023	-0.241
-295.705	470.621	0.179	-0.528
-294.691	-99.319	0.125	-0.041
-293.676	-61.224	-0.651	0.357
-292.662	-124.585	-0.204	0.041
-291.647	-57.868	0.438	-0.249
-290.632	97.768	0.233	-0.350
-289.618	-0.514	0.057	0.053
-288.603	119.580	-0.297	0.481
-287.589	-200.000	0.006	0.098
-286.574	-126.900	0.207	-0.039
-285.559	-25.949	0.302	0.231
-284.545	-51.259	0.327	0.199
-283.530	137.381	0.118	0.201
-282.516	-88.613	-0.174	0.067
-281.501	267.592	-0.214	-0.491
-280.486	-165.934	0.188	0.010
-279.472	-200.000	0.053	0.305
-278.457	-35.678	0.270	-0.190
-277.443	-59.517	0.200	-0.111
-276.428	-90.102	-0.551	0.208
-275.413	-146.664	-0.434	-0.048
-274.399	-200.000	0.013	-0.228
-273.384	114.603	0.110	-0.175
-272.370	587.423	0.088	0.283
-271.355	-200.000	-0.006	0.100
-270.340	-200.000	-0.042	0.358
-269.326	-148.315	-0.288	-0.030
-268.311	6.867	-0.176	0.171
-267.297	-125.960	-0.126	-0.025
-266.282	-8.119	-0.185	-0.163
-265.267	-8.176	0.202	-0.177
-264.253	89.996	-0.193	-0.281
-263.238	-177.080	-0.366	-0.012
-262.224	800.000	0.041	-0.168
-261.209	-68.686	-0.158	-0.079
-260.195	274.724	-0.072	0.167
-259.180	69.921	0.178	0.239
-258.165	-136.028	0.209	0.032
-257.151	-169.856	0.497	0.023
-256.136	409.298	0.137	-0.380
-255.122	-110.683	-0.149	0.040
-254.107	296.581	0.132	-0.316
-253.092	-56.582	0.399	0.230
-252.078	289.097	-0.124	0.295
-251.063	800.000	0.093	-0.361
-250.049	-141.113	-0.485	0.064
-249.034	-200.000	-0.009	-0.237
-248.019	-104.588	0.471	-0.141
-247.005	-18.356	0.475	0.386
-245.990	-95.192	-0.313	-0.109
-244.976	-145.171	0.369	-0.043
-243.961	-20.896	0.579	0.461
-242.946	777.683	0.105	0.377
-241.932	467.496	-0.051	-0.149
-240.917	-16.210	-0.244	0.201
-239.903	-96.017	0.158	-0.055
-238.888	800.000	0.088	0.318
-237.873	-51.850	-0.198	-0.119
-236.859	-6.530	-0.160	-0.142
-235.844	101.379	0.245	-0.372
-234.830	-138.278	0.343	-0.049
-233.815	35.005	0.142	0.162
-232.800	-115.877	0.521	-0.126
-231.786	-200.000	-0.022	-0.175
-230.771	251.630	0.065	-0.144
-229.757	286.941	0.145	-0.343
-228.742	-53.124	-0.291	0.174
-227.727	800.000	-0.017	0.095
-226.713	-200.000	-0.020	0.248
-225.698	79.890	0.176	-0.247
-224.684	102.905	-0.298	-0.455
-223.669	3.722	-0.123	0.117
-222.655	-95.043	-0.046	0.016
-221.640	-109.959	0.076	-0.021
-220.625	216.812	0.097	0.201
-219.611	55.017	0.060	-0.075
-218.596	549.502	-0.075	-0.235
-217.582	-10.143	-0.319	0.275
-216.567	-103.663	-0.189	0.057
-215.552	318.870	0.108	-0.268
-214.538	-0.570	-0.266	-0.245
-213.523	-71.829	0.195	0.094
-212.509	117.396	0.115	0.185
-211.494	-78.941	-0.611	0.269
-210.479	-28.310	0.329	0.247
-209.465	-110.721	-0.195	-0.052
-208.450	91.012	-0.121	0.176
-207.436	169.387	-0.036	0.066
-206.421	-90.431	0.398	-0.149
-205.406	47.485	-0.407	-0.493
-204.392	-101.276	0.310	0.098
-203.377	14.528	-0.100	0.102
-202.363	-172.084	0.104	-0.004
-201.348	600.902	-0.086	0.280
-200.333	-31.231	-0.131	-0.096
-199.319	457.545	0.148	-0.430
-198.304	-13.768	-0.145	-0.121
-197.290	-35.231	0.173	-0.122
-196.275	-29.503	0.090	-0.067
-195.260	292.184	0.084	-0.200
-194.246	-198.769	0.261	-0.002
-193.231	-103.584	-0.323	-0.098
-192.217	-56.735	-0.327	0.187
-191.202	-118.549	-0.046	-0.011
-190.187	798.452	-0.070	0.252
-189.173	-32.698	0.326	0.235
-188.158	-150.498	-0.141	-0.014
-187.144	800.000	0.032	0.145
-186.129	-51.581	0.342	-0.207
-185.114	-159.598	0.162	0.011
-184.100	-200.000	0.003	-0.449
-183.085	-200.000	-0.001	-0.410
-182.071	-95.386	-0.382	-0.133
-181.056	89.488	-0.335	-0.486
-180.042	214.021	0.205	-0.422
-179.027	70.004	-0.204	-0.273
-178.012	192.655	0.082	-0.161
-176.998	124.762	-0.287	-0.469
-175.983	800.000	0.139	-0.670
-174.969	223.943	0.208	-0.437
-173.954	63.978	0.241	0.315
-172.939	49.463	-0.312	-0.381
-171.925	-200.000	-0.070	-0.573
-170.910	354.911	0.092	0.239
-169.896	-179.320	-0.169	0.005
-168.881	-123.143	-0.184	-0.038
-167.866	63.483	0.116	0.151
-166.852	-34.822	-0.341	0.241
-165.837	800.000	0.128	-0.731
-164.823	-200.000	0.009	-0.112
-163.808	-48.021	0.546	-0.341
-162.793	-21.117	-0.185	-0.146
-161.779	-176.821	0.138	-0.004
-160.764	-96.834	0.412	0.140
-159.750	-30.931	0.588	0.430
-158.735	-50.649	0.056	-0.034
-157.720	-200.000	-0.015	-0.209
-156.706	-100.160	-0.342	-0.110
-155.691	-82.644	0.132	-0.055
-154.677	714.941	-0.088	0.305
-153.662	-40.680	0.107	0.072
-152.647	268.727	0.054	-0.123
-151.633	-83.069	-0.038	0.016
-150.618	106.182	0.191	-0.295
-149.604	146.812	0.059	0.104
-148.589	-188.222	-0.513	-0.008
-147.574	-175.758	0.246	-0.008
-146.560	35.477	-0.149	-0.169
-145.545	-160.846	0.287	0.019
-144.531	-51.651	-0.252	-0.152
-143.516	205.174	0.079	-0.159
-142.502	-112.930	0.307	0.078
-141.487	-200.000	0.009	0.223
-140.472	-77.928	0.491	-0.218
-139.458	-34.960	0.221	-0.156
-138.443	268.697	-0.127	-0.291
-137.429	71.597	0.163	0.220
-136.414	267.380	0.107	-0.244
-135.399	-200.000	-0.002	0.198
-134.385	243.872	-0.201	0.439
-133.370	-8.498	0.160	-0.140
-132.356	-57.145	0.168	-0.096
-131.341	-26.157	0.060	0.046
-130.326	58.709	-0.262	-0.334
-129.312	-101.308	-0.265	0.083
-128.297	-56.184	0.209	0.120
-127.283	-67.252	-0.210	0.107
-126.268	295.168	0.147	0.351
-125.253	-200.000	0.000	-0.029
-124.239	-59.202	0.162	-0.090
-123.224	473.425	-0.120	0.353
-122.210	-14.081	0.218	0.182
-121.195	98.920	0.113	-0.169
-120.180	216.169	-0.218	-0.450
-119.166	46.824	-0.088	-0.107
-118.151	-54.706	-0.314	0.183
-117.137	412.961	-0.088	0.242
-116.122	-82.073	-0.272	0.114
-115.107	800.000	-0.061	0.220
-114.093	57.059	-0.211	0.266
-113.078	14.593	-0.289	-0.292
-112.064	-92.683	-0.112	0.040
-111.049	-56.133	-0.071	0.041
-110.034	-25.428	0.259	0.198
-109.020	-70.577	-0.377	0.184
-108.005	-200.000	0.065	0.463
-106.991	-54.338	0.202	0.118
-105.976	-110.002	0.287	-0.077
-104.962	149.130	-0.266	0.467
-103.947	-58.183	-0.500	0.281
-102.932	56.843	0.138	0.174
-101.918	95.169	0.129	0.190
-100.903	256.371	0.094	0.211
-99.889	-14.307	0.152	0.127
-98.874	-68.096	0.525	-0.264
-97.859	430.777	-0.048	0.134
-96.845	367.651	-0.257	-0.675
-95.830	-200.000	-0.027	-0.295
-94.816	545.524	-0.135	0.418
-93.801	583.576	-0.168	0.538
-92.786	228.729	-0.173	0.367
-91.772	79.973	-0.188	0.262
-90.757	-200.000	0.031	-0.220
-89.743	-40.503	-0.494	-0.331
-88.728	-68.374	0.281	0.141
-87.713	-157.781	0.468	0.036
-86.699	-58.593	0.107	0.060
-85.684	-200.000	-0.012	0.109
-84.670	215.798	-0.041	0.085
-83.655	514.135	0.048	-0.145
-82.640	-138.158	0.176	-0.025
-81.626	119.818	0.071	-0.114
-80.611	-158.850	0.047	0.003
-79.597	21.156	0.432	0.453
-78.582	598.031	-0.168	0.541
-77.567	41.436	-0.342	0.400
-76.553	-64.498	-0.131	0.069
-75.538	-93.981	0.127	0.045
-74.524	-102.188	-0.315	0.097
-73.509	6.222	0.354	-0.339
-72.494	-17.236	0.306	0.249
-71.480	-98.942	-0.102	-0.033
-70.465	-200.000	-0.094	0.770
-69.451	44.787	0.166	0.197
-68.436	800.000	-0.069	-0.365
-67.422	700.653	0.136	0.466
-66.407	-200.000	0.019	0.596
-65.392	4.896	0.372	0.353
-64.378	-10.177	-0.061	-0.053
-63.363	-34.356	0.203	0.143
-62.349	800.000	0.098	0.548
-61.334	6.524	-2.261	-2.171
-60.319	73.085	1.389	1.878
-59.305	212.950	-3.486	-7.137
-58.290	60.597	4.148	5.316
-57.276	439.854	3.779	10.723
-56.261	-200.000	23.041	312.460
-55.246	364.810	1286.102	3360.941
-54.232	53.958	2833.471	3522.192
-53.217	52.095	2659.140	3276.611
-52.203	32.591	2389.999	2670.397
-51.188	28.149	2056.176	2242.725
-50.173	24.618	1942.921	2077.913
-49.159	23.555	1931.821	2053.608
-48.144	23.134	1927.312	2043.845
-47.130	23.021	1925.209	2040.220
-46.115	23.093	1923.392	2039.046
-45.100	22.965	1922.172	2036.194
-44.086	23.055	1921.394	2036.328
-43.071	22.949	1919.451	2032.959
-42.057	23.009	1917.264	2031.257
-41.042	23.026	1916.355	2030.412
-40.027	23.023	1914.464	2028.294
-39.013	23.020	1912.816	2026.427
-37.998	22.937	1911.945	2024.473
-36.984	23.097	1909.911	2024.084
-35.969	23.080	1908.401	2022.207
-34.954	22.964	1907.729	2020.077
-33.940	23.001	1906.983	2019.629
-32.925	23.065	1904.851	2018.030
-31.911	22.938	1904.393	2016.004
-30.896	22.957	1902.996	2014.661
-29.881	22.869	1901.618	2012.113
-28.867	22.977	1899.548	2011.081
-27.852	22.869	1898.828	2009.005
-26.838	22.932	1897.196	2007.923
-25.823	22.874	1895.641	2005.528
-24.809	22.788	1895.115	2003.915
-23.794	22.905	1893.528	2003.490
-22.779	22.953	1891.353	2001.654
-21.765	22.798	1891.609	2000.089
-20.750	22.808	1889.922	1998.334
-19.736	22.688	1889.132	1996.053
-18.721	22.816	1887.776	1995.999
-17.706	22.843	1886.180	1994.540
-16.692	22.901	1884.297	1993.127
-15.677	22.768	1883.591	1990.790
-14.663	22.850	1881.330	1989.256
-13.648	22.671	1880.993	1986.788
-12.633	22.714	1879.381	1985.494
-11.619	22.765	1878.336	1984.882
-10.604	22.664	1877.549	1982.838
-9.590	22.612	1877.302	1981.906
-8.575	22.654	1875.341	1980.232
-7.560	22.717	1873.515	1978.933
-6.546	22.745	1871.845	1977.406
-5.531	22.656	1871.239	1975.695
-4.517	22.712	1869.523	1974.424
-3.502	22.652	1869.744	1973.910
-2.487	22.720	1868.002	1972.753
-1.473	22.817	1864.526	1970.100
-0.458	22.746	1846.684	1950.374
0.556	19.831	1993.840	2058.669
1.571	18.771	2198.095	2255.313
2.586	19.436	2238.682	2305.607
3.600	19.524	2241.252	2309.161
4.615	19.551	2240.434	2308.406
5.629	19.586	2238.352	2306.459
6.644	19.560	2235.984	2303.392
7.659	19.539	2234.293	2301.097
8.673	19.503	2231.942	2297.920
9.688	19.340	2240.122	2303.865
10.702	18.306	2320.012	2371.359
11.717	16.684	2383.833	2413.074
12.731	8.056	2363.162	2268.854
13.746	1.185	2344.153	2152.550
14.761	0.124	2341.111	2134.379
15.775	0.109	2338.644	2131.653
16.790	0.062	2337.205	2129.416
17.804	0.082	2336.978	2129.239
18.819	0.094	2336.295	2128.544
19.834	0.056	2334.284	2125.917
20.848	0.086	2332.595	2124.547
21.863	0.069	2331.029	2122.617
22.877	-0.002	2329.137	2119.638
23.892	-0.069	2327.295	2116.767
24.907	0.056	2324.546	2115.776
25.921	-0.093	2323.342	2112.321
26.936	0.011	2321.123	2111.511
27.950	0.037	2317.962	2108.758
28.965	0.058	2316.101	2107.107
29.980	0.037	2314.894	2105.464
30.994	-0.011	2312.894	2102.716
32.009	3.976	2323.472	2168.310
33.023	13.996	2353.758	2338.669
34.038	18.724	2362.243	2413.789
35.053	19.192	2360.636	2418.465
36.067	19.336	2358.546	2418.072
37.082	19.216	2356.860	2414.354
38.096	19.214	2354.890	2412.023
39.111	19.333	2352.750	2411.212
40.126	19.476	2350.648	2410.776
41.140	19.678	2349.375	2412.022
42.155	19.365	2347.595	2405.521
43.169	19.423	2345.674	2404.065
44.184	19.448	2342.420	2400.805
45.199	19.307	2340.068	2396.128
46.213	19.209	2339.991	2394.398
47.228	19.226	2339.706	2394.059
48.242	19.247	2337.306	2391.605
49.257	19.408	2334.715	2390.912
50.271	19.365	2332.025	2387.273
51.286	19.254	2329.717	2383.075
52.301	19.310	2327.994	2381.811
53.315	19.284	2328.378	2381.554
54.330	20.352	2330.194	2397.967
55.344	21.041	2328.480	2405.466
56.359	21.185	2325.200	2403.784
57.374	21.198	2324.506	2402.960
58.388	21.334	2321.435	2401.378
59.403	21.388	2318.008	2398.291
60.417	21.323	2315.656	2394.670
61.432	21.379	2314.669	2394.137
62.447	21.584	2313.479	2395.433
63.461	21.614	2311.445	2393.458
64.476	21.756	2309.278	2392.882
65.490	21.621	2307.949	2389.364
66.505	21.404	2305.983	2384.071
67.520	20.377	2302.626	2366.252
68.534	19.374	2297.831	2347.322
69.549	19.238	2293.745	2341.016
70.563	19.360	2292.068	2340.685
71.578	19.333	2289.066	2336.971
72.593	19.318	2288.593	2336.001
73.607	19.641	2286.902	2338.387
74.622	19.605	2285.260	2335.946
75.636	19.501	2280.955	2329.855
76.651	19.513	2280.177	2328.942
77.666	19.580	2278.717	2328.081
78.680	19.537	2277.424	2325.905
79.695	19.530	2274.623	2322.661
80.709	19.661	2273.637	2323.150
81.724	19.722	2271.275	2321.286
82.739	19.656	2268.526	2317.302
83.753	19.508	2266.659	2313.124
84.768	19.485	2264.533	2310.377
85.782	19.456	2263.935	2309.103
86.797	19.435	2261.886	2306.449
87.812	19.306	2260.641	2303.167
88.826	19.286	2258.026	2299.956
89.841	19.437	2255.184	2298.821
90.855	19.701	2253.476	2300.330
91.870	19.398	2252.458	2294.969
92.884	19.413	2250.118	2292.505
93.899	19.531	2248.534	2292.194
94.914	19.607	2248.586	2292.984
95.928	20.423	2251.346	2306.423
96.943	20.764	2248.926	2308.217
97.957	20.008	2243.468	2292.283
98.972	19.430	2240.537	2281.334
99.987	19.325	2236.813	2275.877
101.001	19.248	2235.583	2273.327
102.016	19.416	2233.213	2272.864
103.030	19.486	2230.384	2270.650
104.045	19.493	2228.604	2268.648
105.060	19.635	2226.479	2268.088
106.074	19.531	2225.326	2265.272
107.089	19.426	2223.889	2262.151
108.103	19.483	2222.710	2261.436
109.118	19.536	2221.394	2260.524
110.133	19.572	2220.461	2259.780
111.147	19.761	2216.973	2258.445
112.162	19.672	2216.847	2256.871
113.176	19.559	2212.910	2251.110
114.191	19.425	2211.500	2247.650
115.206	19.497	2210.320	2247.135
116.220	19.403	2208.179	2243.450
117.235	19.412	2205.487	2240.574
118.249	19.273	2204.118	2237.097
119.264	19.407	2202.903	2237.350
120.279	19.567	2200.124	2236.340
121.293	19.374	2198.790	2232.205
122.308	19.420	2197.300	2231.021
123.322	19.341	2196.506	2228.917
124.337	19.538	2195.284	2229.965
125.352	20.658	2198.799	2247.825
126.366	20.882	2197.242	2248.873
127.381	19.776	2190.358	2227.247
128.395	19.078	2187.795	2215.344
129.410	19.204	2185.650	2214.535
130.424	19.247	2183.766	2212.918
131.439	19.108	2182.145	2209.217
132.454	19.261	2179.353	2208.097
133.468	19.372	2177.550	2207.440
134.483	19.331	2175.804	2204.878
135.497	19.210	2173.992	2201.225
136.512	19.310	2172.759	2200.995
137.527	19.334	2170.732	2198.990
138.541	19.412	2170.417	2199.407
139.556	19.430	2168.622	2197.545
140.570	19.409	2167.396	2195.780
141.585	19.503	2164.982	2194.269
142.600	19.501	2163.392	2192.367
143.614	19.346	2162.301	2189.023
144.629	19.319	2161.085	2187.188
145.643	19.332	2158.629	2184.604
146.658	19.298	2157.178	2182.435
147.673	19.339	2155.726	2181.237
148.687	19.518	2154.445	2181.944
149.702	19.442	2153.538	2179.802
150.716	19.432	2151.870	2177.723
151.731	19.612	2151.393	2179.266
152.746	19.620	2150.285	2177.983
153.760	19.788	2149.922	2179.481
154.775	20.692	2151.803	2192.586
155.789	20.692	2149.452	2189.931
156.804	19.685	2144.482	2171.892
157.819	19.352	2140.035	2162.928
158.833	19.537	2137.595	2162.529
159.848	19.658	2135.716	2161.889
160.862	19.659	2135.202	2161.131
161.877	19.669	2133.396	2159.170
162.892	19.590	2132.483	2156.988
163.906	19.656	2131.134	2156.197
164.921	19.698	2128.594	2153.894
165.935	19.672	2126.687	2151.379
166.950	19.635	2125.641	2149.607
167.964	19.452	2122.587	2143.970
168.979	19.416	2120.160	2140.813
169.994	19.497	2118.968	2140.362
171.008	19.414	2118.702	2138.813
172.023	19.540	2116.416	2137.816
173.037	19.519	2115.518	2136.393
174.052	19.366	2112.951	2131.633
175.067	19.282	2111.400	2128.770
176.081	19.340	2110.167	2127.991
177.096	19.293	2108.646	2125.632
178.110	19.188	2107.210	2122.620
179.125	19.279	2105.504	2121.779
180.140	19.357	2104.678	2121.651
181.154	19.277	2103.598	2119.318
182.169	19.122	2102.218	2115.767
183.183	19.341	2101.541	2117.539
184.198	20.463	2104.198	2133.818
185.213	20.921	2102.461	2137.454
186.227	19.872	2097.765	2119.511
187.242	19.385	2095.261	2110.741
188.256	19.380	2092.370	2107.515
189.271	19.489	2092.824	2109.050
190.286	19.330	2091.983	2106.005
191.300	19.184	2087.712	2099.660
192.315	19.285	2085.779	2098.700
193.329	19.392	2085.074	2099.051
194.344	19.690	2083.451	2100.810
195.359	19.605	2082.651	2098.707
196.373	19.547	2080.864	2095.949
197.388	19.414	2079.005	2092.206
198.402	19.522	2076.022	2090.273
199.417	19.393	2073.069	2085.473
200.432	19.423	2073.155	2085.679
201.446	19.534	2072.466	2086.084
202.461	19.478	2070.202	2082.876
203.475	19.471	2068.243	2080.567
204.490	19.493	2067.212	2079.549
205.504	19.473	2064.394	2076.230
206.519	19.441	2061.866	2073.051
207.534	19.433	2060.870	2071.699
208.548	19.463	2059.247	2070.183
209.563	19.406	2057.720	2067.718
210.577	19.409	2056.671	2066.451
211.592	19.523	2056.139	2067.038
212.607	20.059	2057.225	2074.331
213.621	21.049	2059.226	2088.020
214.636	20.716	2055.744	2080.246
215.650	19.535	2051.300	2061.330
216.665	19.464	2048.718	2057.645
217.680	19.663	2046.508	2057.559
218.694	19.782	2045.117	2057.333
219.709	19.685	2044.045	2054.850
220.723	19.559	2043.860	2052.906
221.738	19.647	2041.590	2051.437
222.753	19.553	2039.017	2047.487
223.767	19.529	2037.107	2045.040
224.782	19.348	2035.662	2041.182
225.796	19.497	2034.883	2041.939
226.811	19.656	2033.633	2042.326
227.826	19.558	2032.564	2039.838
228.840	19.693	2029.576	2038.200
229.855	19.667	2028.820	2036.886
230.869	19.633	2026.889	2034.302
231.884	19.589	2025.601	2032.242
232.899	19.412	2023.724	2028.035
233.913	19.374	2021.955	2025.561
234.928	19.457	2021.126	2025.477
235.942	19.559	2018.998	2024.299
236.957	19.460	2018.135	2022.021
237.972	19.330	2017.776	2019.889
238.986	19.474	2016.081	2019.647
240.001	19.445	2013.997	2016.980
241.015	19.209	2012.474	2012.439
242.030	19.574	2011.559	2015.570
243.045	20.579	2013.726	2029.288
244.059	20.592	2011.930	2027.395
245.074	19.713	2006.588	2011.489
246.088	19.312	2003.730	2003.706
247.103	19.242	2002.328	2001.239
248.117	19.589	2000.515	2003.235
249.132	19.528	1999.725	2001.499
250.147	19.570	1997.077	1999.093
251.161	19.231	1995.879	1993.717
252.176	19.355	1995.199	1994.232
253.190	19.654	1993.414	1995.689
254.205	19.571	1990.455	1991.516
255.220	19.585	1989.850	1990.840
256.234	19.618	1989.813	1990.950
257.249	19.569	1987.916	1988.245
258.263	19.484	1986.727	1985.830
259.278	19.657	1986.025	1986.890
260.293	19.526	1984.069	1983.192
261.307	19.608	1981.553	1981.384
262.322	19.506	1979.733	1978.144
263.336	19.376	1977.960	1974.649
264.351	19.401	1977.011	1973.752
265.366	19.529	1975.451	1973.420
266.380	19.529	1975.290	1973.022
267.395	19.530	1972.405	1969.916
268.409	19.437	1970.694	1966.911
269.424	19.715	1968.904	1968.074
270.439	19.621	1969.322	1967.180
271.453	19.839	1968.403	1968.512
272.468	20.567	1970.003	1978.212
273.482	20.668	1967.411	1976.519
274.497	19.910	1962.062	1962.277
275.512	19.644	1959.040	1955.997
276.526	19.609	1957.302	1953.623
277.541	19.583	1955.465	1951.264
278.555	19.545	1954.383	1949.523
279.570	19.361	1952.730	1945.554
280.585	19.354	1950.817	1943.340
281.599	19.449	1949.649	1943.017
282.614	19.712	1948.788	1944.893
283.628	19.766	1948.080	1944.573
284.643	19.762	1946.987	1943.202
285.657	19.826	1945.504	1942.205
286.672	19.954	1943.734	1941.651
287.687	19.735	1942.517	1937.741
288.701	19.765	1941.432	1936.764
289.716	19.626	1939.580	1933.122
290.730	19.492	1937.219	1929.028
291.745	19.668	1935.331	1928.896
292.760	19.440	1934.841	1925.619
293.774	19.378	1934.106	1923.962
294.789	19.570	1933.392	1925.169
295.803	19.481	1930.136	1920.696
296.818	19.345	1929.005	1917.826
297.833	19.369	1927.652	1916.519
298.847	19.340	1926.344	1914.663
299.862	19.390	1924.757	1913.416
300.876	19.467	1924.695	1913.980
301.891	20.532	1926.957	1927.886
302.906	20.880	1926.185	1930.756
303.920	19.997	1921.178	1915.695
304.935	19.614	1917.388	1907.442
305.949	19.506	1914.944	1903.577
306.964	19.319	1913.746	1900.089
307.979	19.431	1912.244	1899.611
308.993	19.355	1910.982	1897.293
310.008	19.378	1910.058	1896.395
311.022	19.570	1908.468	1896.716
312.037	19.781	1907.488	1897.838
313.052	19.683	1906.001	1895.047
314.066	19.463	1903.960	1890.378
315.081	19.477	1903.175	1889.522
316.095	19.508	1901.834	1888.305
317.110	19.615	1900.095	1887.528
318.125	19.547	1899.303	1885.767
319.139	19.614	1898.303	1885.291
320.154	19.863	1896.027	1885.533
321.168	19.641	1895.298	1882.150
322.183	19.755	1893.634	1881.520
323.197	19.810	1891.750	1880.015
324.212	19.456	1889.984	1874.170
325.227	19.458	1888.357	1872.361
326.241	19.560	1886.989	1871.889
327.256	19.719	1885.774	1872.196
328.270	19.475	1885.390	1868.933
329.285	19.518	1884.286	1868.086
330.300	19.857	1885.832	1873.084
331.314	20.936	1885.858	1884.615
332.329	20.751	1882.921	1879.450
333.343	19.675	1878.609	1863.266
334.358	19.671	1877.189	1861.589
335.373	19.732	1874.712	1859.563
336.387	19.605	1874.119	1857.387
337.402	19.641	1872.055	1855.500
338.416	19.632	1870.273	1853.416
339.431	19.782	1868.968	1853.519
340.446	19.899	1867.607	1853.204
341.460	19.783	1866.649	1850.793
342.475	19.834	1864.797	1849.274
343.489	19.766	1862.929	1846.479
344.504	19.825	1861.446	1845.413
345.519	19.902	1860.088	1844.669
346.533	19.787	1858.818	1841.968
347.548	19.810	1857.486	1840.667
348.562	19.794	1855.577	1838.390
349.577	19.786	1854.310	1836.825
350.592	19.688	1853.305	1834.565
351.606	19.575	1852.197	1832.048
352.621	19.355	1849.744	1827.059
353.635	19.155	1848.564	1823.546
354.650	19.103	1847.278	1821.506
355.665	19.197	1845.513	1820.541
356.679	19.296	1843.566	1819.456
357.694	19.218	1843.349	1818.195
358.708	19.320	1842.398	1818.117
359.723	19.922	1843.235	1825.114
360.738	20.915	1844.294	1836.468
361.752	20.662	1840.805	1830.092
362.767	19.643	1836.738	1815.077
363.781	19.383	1834.130	1809.545
364.796	19.233	1833.237	1806.862
365.810	19.348	1832.160	1806.794
366.825	19.192	1831.595	1804.384
367.840	19.415	1830.016	1804.952
368.854	19.216	1829.114	1801.757
369.869	19.057	1827.279	1798.063
370.883	19.040	1824.990	1795.417
371.898	19.188	1824.285	1796.056
372.913	19.554	1823.859	1799.256
373.927	19.650	1822.833	1799.036
374.942	19.737	1821.162	1798.080
375.956	19.829	1819.828	1797.509
376.971	19.723	1817.999	1794.382
377.986	19.348	1815.978	1788.271
379.000	19.410	1814.507	1787.251
380.015	19.644	1813.630	1788.603
381.029	19.898	1812.488	1789.908
382.044	19.875	1810.902	1787.883
383.059	19.601	1809.005	1782.962
384.073	19.613	1807.149	1781.043
385.088	19.543	1806.908	1779.866
386.102	19.575	1804.584	1777.697
387.117	19.389	1803.016	1774.012
388.132	19.353	1802.763	1773.175
389.146	19.868	1804.617	1780.121
390.161	20.915	1804.548	1790.655
391.175	20.767	1800.089	1784.490
392.190	19.696	1794.598	1767.834
393.205	19.426	1792.939	1763.208
394.219	19.539	1792.045	1763.275
395.234	19.520	1790.593	1761.442
396.248	19.625	1788.045	1759.800
397.263	19.546	1785.894	1756.663
398.278	19.451	1784.174	1753.791
399.292	19.473	1783.707	1753.349
400.307	19.719	1784.085	1756.023
401.321	19.776	1782.323	1754.657
402.336	19.634	1781.031	1751.735
403.350	19.574	1779.444	1749.355
404.365	19.858	1778.626	1751.225
405.380	20.058	1777.943	1752.381
406.394	20.058	1776.746	1750.990
407.409	19.965	1774.469	1747.596
408.423	19.758	1772.558	1743.403
409.438	19.595	1770.953	1739.961
410.453	19.526	1770.610	1738.723
411.467	19.530	1769.400	1737.369
412.482	19.406	1768.286	1734.813
413.496	19.540	1766.374	1734.077
414.511	19.392	1765.041	1731.071
415.526	19.340	1761.719	1727.080
416.540	19.407	1760.142	1726.003
417.555	19.430	1758.911	1724.825
418.569	19.224	1759.212	1722.842
419.584	19.379	1759.459	1724.434
420.599	19.239	1759.799	1723.153
421.613	19.350	1758.607	1722.888
422.628	19.598	1756.559	1723.167
423.642	19.539	1755.492	1721.321
424.657	19.482	1753.750	1718.837
425.672	19.311	1751.443	1714.660
426.686	19.336	1750.330	1713.615
427.701	19.183	1748.636	1710.230
428.715	19.244	1746.422	1708.467
429.730	19.324	1746.002	1708.642
430.745	19.469	1745.206	1709.104
431.759	19.316	1744.417	1706.608
432.774	19.183	1744.323	1704.986
433.788	19.154	1742.602	1702.813
434.803	19.128	1741.537	1701.307
435.818	19.008	1740.791	1699.186
436.832	18.936	1740.089	1697.587
437.847	17.867	1731.737	1678.672
438.861	9.599	1710.010	1576.389
439.876	1.666	1694.700	1484.539
440.890	0.307	1691.508	1468.257
441.905	-0.015	1691.533	1464.953
442.920	0.164	1690.358	1465.507
443.934	0.254	1688.015	1464.184
444.949	0.157	1687.438	1462.564
445.963	0.117	1686.393	1461.087
446.978	0.155	1685.635	1460.629
447.993	0.056	1685.112	1459.035
449.007	0.126	1682.158	1456.987
450.022	0.071	1681.100	1455.354
451.036	0.272	1678.843	1455.177
452.051	0.723	1680.998	1461.256
453.066	7.685	1698.221	1544.224
454.080	16.475	1712.618	1643.364
455.095	18.477	1715.918	1665.915
456.109	18.828	1715.453	1668.692
457.124	18.842	1714.629	1667.827
458.139	18.822	1713.544	1666.372
459.153	18.755	1711.760	1663.791
460.168	18.857	1710.147	1663.009
461.182	18.823	1708.830	1661.204
462.197	18.840	1707.392	1659.775
463.212	18.887	1706.060	1658.736
464.226	18.886	1705.226	1657.711
465.241	18.868	1704.386	1656.529
466.255	18.943	1702.692	1655.404
467.270	19.005	1700.693	1653.859
468.285	18.993	1699.717	1652.598
469.299	18.829	1698.823	1649.946
470.314	18.875	1696.506	1647.943
471.328	18.990	1695.286	1647.667
472.343	18.942	1694.766	1646.507
473.358	18.971	1693.200	1645.064
474.372	18.957	1691.721	1643.295
475.387	18.965	1690.816	1642.295
476.401	18.993	1689.121	1640.728
477.416	18.953	1687.891	1638.947
478.430	18.896	1686.889	1637.232
479.445	18.836	1686.486	1636.077
480.460	18.885	1684.297	1634.221
481.474	18.912	1683.933	1633.932
482.489	19.009	1681.918	1632.710
483.503	18.841	1679.983	1629.028
484.518	18.728	1679.249	1627.052
485.533	18.830	1677.998	1626.613
486.547	18.772	1676.287	1624.204
487.562	18.919	1674.426	1623.605
488.576	18.753	1673.757	1621.192
489.591	18.985	1672.819	1622.286
490.606	18.944	1672.009	1620.914
491.620	18.933	1669.493	1618.177
492.635	18.883	1667.773	1615.843
493.649	18.895	1666.547	1614.577
494.664	18.857	1665.970	1613.469
495.679	18.872	1664.876	1612.352
496.693	18.852	1663.070	1610.227
497.708	18.924	1661.321	1609.019
498.722	18.937	1660.729	1608.373
499.737	18.864	1658.947	1605.773
500.752	18.897	1657.616	1604.599
501.766	18.920	1656.147	1603.201
502.781	18.930	1654.482	1601.492
503.795	18.828	1652.858	1598.770
504.810	19.004	1651.806	1599.212
505.825	18.950	1651.764	1598.471
506.839	18.871	1650.945	1596.752
507.854	18.762	1648.710	1593.384
508.868	18.847	1647.018	1592.347
509.883	18.874	1646.419	1591.834
510.898	18.806	1645.082	1589.718
511.912	18.794	1643.913	1588.283
512.927	18.810	1641.831	1586.228
513.941	18.777	1641.234	1585.154
514.956	18.819	1640.008	1584.175
515.971	18.964	1638.002	1583.381
516.985	18.819	1636.646	1580.542
518.000	18.807	1636.537	1580.142
519.014	18.811	1634.864	1578.369
520.029	18.752	1633.351	1576.182
521.043	18.758	1631.884	1574.625
522.058	18.746	1631.502	1573.964
523.073	18.829	1630.184	1573.264
524.087	18.766	1629.068	1571.419
525.102	18.784	1628.511	1570.860
526.116	18.789	1627.423	1569.665
527.131	18.927	1626.430	1569.786
528.146	18.807	1624.919	1567.041
529.160	18.870	1623.236	1565.811
530.175	18.836	1622.262	1564.368
531.189	18.937	1620.556	1563.463
532.204	18.780	1619.855	1561.167
533.219	18.861	1618.359	1560.273
534.233	18.807	1618.606	1559.834
535.248	18.927	1616.207	1558.429
536.262	18.909	1615.651	1557.544
537.277	18.766	1614.978	1555.407
538.292	18.896	1612.968	1554.462
539.306	18.799	1611.302	1551.797
540.321	18.887	1609.332	1550.504
541.335	18.949	1608.602	1550.183
542.350	18.846	1607.223	1547.730
543.365	18.710	1605.599	1544.757
544.379	18.814	1604.241	1544.200
545.394	18.698	1603.688	1542.436
546.408	18.702	1602.183	1540.844
547.423	18.866	1601.053	1541.051
548.438	18.811	1600.023	1539.374
549.452	18.818	1599.076	1538.348
550.467	18.783	1597.755	1536.579
551.481	18.816	1596.279	1535.268
552.496	18.779	1595.809	1534.297
553.511	18.783	1594.510	1532.903
554.525	18.743	1592.853	1530.770
555.540	18.744	1592.729	1530.477
556.554	18.614	1591.946	1528.373
557.569	18.711	1589.747	1526.951
558.583	18.830	1587.865	1526.023
559.598	18.847	1585.981	1524.177
560.613	18.755	1586.130	1523.318
561.627	18.795	1584.639	1522.062
562.642	18.751	1582.944	1519.863
563.656	18.654	1582.277	1518.175
564.671	18.643	1581.191	1516.858
565.686	18.553	1579.939	1514.676
566.700	18.697	1578.024	1513.933
567.715	18.728	1576.440	1512.507
568.729	18.638	1575.534	1510.658
569.744	18.625	1574.243	1509.123
570.759	18.782	1572.434	1508.600
571.773	18.705	1571.576	1506.913
572.788	18.616	1571.172	1505.557
573.802	18.627	1568.924	1503.325
574.817	18.647	1567.170	1501.639
575.832	18.603	1566.430	1500.359
576.846	18.683	1565.096	1499.613
577.861	18.677	1564.298	1498.616
578.875	18.788	1563.911	1499.033
579.890	18.830	1561.836	1497.232
580.905	18.737	1561.398	1495.818
581.919	18.711	1561.404	1495.419
582.934	18.653	1560.346	1493.717
583.948	18.678	1558.737	1492.220
584.963	18.759	1556.651	1490.751
585.978	18.672	1556.025	1489.213
586.992	18.637	1555.184	1487.922
588.007	18.755	1554.637	1488.251
589.021	18.727	1553.334	1486.581
590.036	18.766	1551.790	1485.266
591.051	18.711	1550.845	1483.708
592.065	18.710	1549.301	1482.041
593.080	18.712	1547.495	1480.156
594.094	18.608	1545.997	1477.647
595.109	18.828	1544.290	1477.736
596.123	18.876	1542.478	1476.240
597.138	18.856	1541.513	1474.969
598.153	18.755	1540.909	1473.344
599.167	18.709	1539.474	1471.399
600.182	18.747	1538.787	1470.897
601.196	18.719	1537.578	1469.323
602.211	18.761	1536.146	1468.142
603.226	18.670	1535.401	1466.467
604.240	18.759	1533.461	1465.205
605.255	18.587	1532.840	1462.964
606.269	18.620	1532.197	1462.456
607.284	18.658	1530.979	1461.444
608.299	18.701	1529.403	1460.129
609.313	18.591	1528.205	1457.877
610.328	18.722	1526.621	1457.301
611.342	18.796	1525.340	1456.539
612.357	18.754	1524.332	1455.041
613.372	18.710	1523.795	1453.979
614.386	18.733	1522.833	1453.082
615.401	18.745	1521.614	1451.853
616.415	18.612	1520.652	1449.633
617.430	18.420	1520.612	1447.788
618.445	18.797	1518.361	1448.664
619.459	18.665	1517.266	1446.329
620.474	18.629	1516.324	1444.954
621.488	18.688	1515.189	1444.196
622.503	18.665	1514.699	1443.361
623.518	18.548	1512.927	1440.516
624.532	18.587	1511.456	1439.270
625.547	18.579	1510.617	1438.230
626.561	18.600	1509.687	1437.349
627.576	18.621	1508.729	1436.445
628.591	18.577	1507.268	1434.510
629.605	18.559	1506.553	1433.510
630.620	18.721	1505.178	1433.387
631.634	18.781	1503.857	1432.459
632.649	18.680	1503.274	1430.885
633.663	18.645	1501.768	1428.995
634.678	18.479	1499.989	1425.738
635.693	18.544	1498.038	1424.259
636.707	18.556	1496.840	1423.047
637.722	18.557	1496.401	1422.467
638.736	18.679	1494.807	1421.801
639.751	18.687	1493.859	1420.796
640.766	18.638	1492.860	1419.265
641.780	18.563	1492.194	1417.843
642.795	18.664	1491.052	1417.427
643.809	18.686	1490.415	1416.829
644.824	18.621	1489.586	1415.336
645.839	18.624	1488.700	1414.352
646.853	18.698	1486.455	1412.656
647.868	18.770	1484.863	1411.569
648.882	18.859	1483.780	1411.107
649.897	18.677	1483.355	1409.033
650.912	18.713	1481.428	1407.333
651.926	18.600	1480.661	1405.503
652.941	18.693	1479.626	1405.115
653.955	18.858	1478.019	1404.776
654.970	18.758	1476.630	1402.466
655.985	18.789	1475.570	1401.549
656.999	18.809	1474.450	1400.479
658.014	18.733	1472.881	1398.199
659.028	18.688	1472.250	1397.068
660.043	18.629	1471.972	1396.151
661.058	18.767	1469.810	1395.062
662.072	18.745	1468.830	1393.781
663.087	18.678	1468.601	1392.851
664.101	18.657	1466.469	1390.497
665.116	18.809	1464.927	1390.101
666.131	18.641	1464.226	1387.907
667.145	18.630	1463.136	1386.620
668.160	18.615	1462.160	1385.401
669.174	18.600	1460.579	1383.617
670.189	18.625	1459.917	1383.026
671.204	18.631	1458.963	1382.006
672.218	18.579	1459.110	1381.557
673.233	18.651	1457.009	1379.991
674.247	18.673	1455.433	1378.504
675.262	18.618	1454.851	1377.349
676.276	18.598	1453.872	1376.098
677.291	18.640	1453.065	1375.508
678.306	18.541	1452.541	1374.045
679.320	18.657	1450.503	1372.884
680.335	18.609	1450.261	1372.106
681.349	18.651	1449.425	1371.486
682.364	18.623	1448.314	1370.052
683.379	18.666	1446.433	1368.451
684.393	18.615	1444.800	1366.332
685.408	18.590	1443.855	1365.074
686.422	18.579	1442.939	1363.958
687.437	18.476	1442.739	1362.783
688.452	18.608	1441.567	1362.564
689.466	18.633	1439.572	1360.718
690.481	18.601	1438.481	1359.272
691.495	18.677	1437.843	1359.105
692.510	18.554	1437.026	1357.193
693.525	18.706	1435.515	1356.816
694.539	18.590	1434.555	1354.821
695.554	18.565	1433.666	1353.624
696.568	18.482	1432.566	1351.767
697.583	18.536	1431.315	1350.846
698.598	18.387	1430.902	1349.116
699.612	18.422	1429.913	1348.299
700.627	18.496	1428.478	1347.369
701.641	18.695	1426.826	1347.220
702.656	18.542	1426.429	1345.482
703.671	18.648	1425.750	1345.515
704.685	18.667	1425.073	1344.864
705.700	18.591	1423.493	1342.609
706.714	18.719	1421.803	1341.865
707.729	18.706	1420.582	1340.446
708.744	18.488	1420.091	1338.116
709.758	18.611	1418.515	1337.435
710.773	18.916	1417.297	1338.515
711.787	18.797	1416.585	1336.747
712.802	18.739	1415.188	1334.816
713.816	18.774	1414.157	1333.957
714.831	18.765	1412.953	1332.590
715.846	18.808	1411.553	1331.446
716.860	18.754	1410.835	1330.188
717.875	18.672	1409.671	1328.300
718.889	18.628	1408.543	1326.732
719.904	18.754	1407.903	1326.950
720.919	18.589	1406.878	1324.542
721.933	18.597	1405.564	1323.209
722.948	18.792	1404.371	1323.443
723.962	18.683	1403.333	1321.459
724.977	18.745	1402.487	1320.982
725.992	18.587	1401.633	1318.804
727.006	18.619	1400.437	1317.763
728.021	18.622	1398.582	1315.884
729.035	18.677	1397.497	1315.132
730.050	18.514	1397.042	1313.289
731.065	18.632	1396.149	1313.197
732.079	18.751	1394.651	1312.549
733.094	18.727	1393.127	1310.772
734.108	18.697	1391.588	1308.940
735.123	18.653	1390.703	1307.612
736.138	18.708	1390.057	1307.265
737.152	18.604	1388.852	1305.180
738.167	18.633	1387.590	1304.061
739.181	18.660	1386.739	1303.317
740.196	18.591	1386.065	1302.001
741.211	18.611	1385.305	1301.277
742.225	18.635	1383.744	1299.843
743.240	18.536	1382.845	1298.088
744.254	18.699	1380.770	1297.227
745.269	18.579	1380.308	1295.726
746.284	18.567	1379.802	1295.002
747.298	18.503	1379.202	1293.798
748.313	18.551	1377.712	1292.609
749.327	18.580	1376.991	1291.994
750.342	18.560	1376.967	1291.667
751.356	18.747	1375.384	1291.442
752.371	18.722	1373.225	1289.069
753.386	18.642	1372.207	1287.357
754.400	18.553	1372.125	1286.459
755.415	18.773	1370.276	1286.230
756.429	18.745	1368.928	1284.593
757.444	18.723	1367.884	1283.298
758.459	18.669	1366.995	1281.902
759.473	18.708	1366.085	1281.190
760.488	18.732	1365.242	1280.422
761.502	18.738	1364.448	1279.574
762.517	18.696	1363.053	1277.794
763.532	18.714	1361.819	1276.623
764.546	18.650	1360.889	1275.117
765.561	18.656	1361.065	1275.173
766.575	18.753	1359.689	1274.456
767.590	18.865	1358.330	1273.866
768.605	18.701	1356.880	1271.135
769.619	18.702	1355.605	1269.797
770.634	18.682	1354.535	1268.489
771.648	18.589	1353.938	1267.088
772.663	18.574	1353.607	1266.518
773.678	18.566	1352.662	1265.425
774.692	18.611	1351.388	1264.415
775.707	18.568	1350.770	1263.362
776.721	18.695	1349.784	1263.229
777.736	18.621	1348.378	1261.216
778.751	18.732	1347.637	1261.194
779.765	18.515	1346.300	1258.188
780.780	18.635	1345.461	1258.139
781.794	18.671	1344.717	1257.555
782.809	18.611	1343.227	1255.569
783.824	18.580	1342.338	1254.360
784.838	18.508	1341.294	1252.708
785.853	18.562	1340.469	1252.188
786.867	18.493	1340.183	1251.257
787.882	18.398	1339.548	1249.822
788.897	18.477	1339.122	1249.857
789.911	18.547	1337.460	1248.665
790.926	18.567	1335.698	1247.014
791.940	18.555	1333.853	1245.061
792.955	18.627	1332.170	1243.864
793.969	18.625	1332.068	1243.608
794.984	18.639	1331.275	1242.816
795.999	18.538	1329.993	1240.737
797.013	18.883	1327.914	1241.154
798.028	18.650	1326.977	1238.436
799.042	18.679	1326.474	1238.030
800.057	18.655	1326.138	1237.398
801.072	18.640	1324.276	1235.399
802.086	18.605	1323.305	1234.099
803.101	18.715	1322.302	1233.808
804.115	18.655	1321.409	1232.394
805.130	18.693	1320.995	1232.133
806.145	18.666	1319.608	1230.496
807.159	18.662	1318.278	1229.078
808.174	18.771	1317.013	1228.537
809.188	18.753	1315.035	1226.418
810.203	18.877	1313.534	1225.759
811.218	18.773	1312.803	1224.185
812.232	18.670	1311.914	1222.474
813.247	18.699	1310.811	1221.507
814.261	18.650	1310.283	1220.514
815.276	18.661	1309.130	1219.376
816.291	18.634	1308.366	1218.329
817.305	18.647	1306.763	1216.780
818.320	18.688	1305.440	1215.696
819.334	18.627	1304.234	1213.989
820.349	18.649	1302.704	1212.577
821.364	18.708	1301.400	1211.641
822.378	18.706	1300.180	1210.343
823.393	18.849	1297.990	1209.169
824.407	18.634	1297.867	1207.388
825.422	18.591	1297.880	1206.953
826.437	18.732	1295.813	1205.883
827.451	18.412	1294.400	1202.167
828.466	18.576	1293.425	1202.273
829.480	18.594	1291.417	1200.389
830.495	18.581	1289.861	1198.707
831.509	18.502	1289.918	1198.063
832.524	18.600	1288.405	1197.205
833.539	18.771	1287.416	1197.337
834.553	18.699	1285.924	1195.305
835.568	18.657	1285.395	1194.373
836.582	18.721	1284.800	1194.129
837.597	18.683	1283.070	1192.112
838.612	18.686	1281.652	1190.670
839.626	18.722	1280.603	1189.807
840.641	18.722	1279.701	1188.827
841.655	18.684	1279.622	1188.344
842.670	18.737	1278.438	1187.473
843.685	18.861	1276.699	1186.575
844.699	18.795	1275.395	1184.760
845.714	18.632	1274.452	1182.618
846.728	18.744	1273.405	1182.278
847.743	18.784	1271.963	1181.077
848.758	18.891	1270.675	1180.475
849.772	18.827	1269.074	1178.407
850.787	18.613	1268.003	1175.796
851.801	18.686	1267.208	1175.420
852.816	18.610	1266.120	1173.751
853.831	18.630	1264.661	1172.390
854.845	18.601	1262.913	1170.431
855.860	18.671	1261.771	1169.713
856.874	18.514	1260.543	1167.359
857.889	18.623	1258.713	1166.269
858.904	18.587	1257.282	1164.563
859.918	18.542	1256.310	1163.215
860.933	18.737	1255.076	1163.262
861.947	18.679	1253.918	1161.655
862.962	18.685	1253.417	1161.088
863.977	18.751	1251.715	1159.822
864.991	18.505	1251.134	1157.477
866.006	18.677	1250.990	1158.370
867.020	18.633	1249.250	1156.321
868.035	18.624	1248.350	1155.292
869.049	18.630	1247.551	1154.453
870.064	18.818	1246.196	1154.334
871.079	18.786	1245.541	1153.373
872.093	18.841	1244.972	1153.076
873.108	18.988	1243.945	1152.979
874.122	18.799	1243.289	1150.957
875.137	18.899	1242.869	1151.106
876.152	18.963	1241.549	1150.175
877.166	19.031	1239.780	1148.854
878.181	18.991	1238.525	1147.288
879.195	18.986	1238.081	1146.706
880.210	18.893	1236.874	1144.831
881.225	18.825	1236.047	1143.468
882.239	18.781	1235.709	1142.727
883.254	18.689	1234.970	1141.291
884.268	18.845	1234.042	1141.342
885.283	18.868	1231.952	1139.423
886.298	18.755	1230.680	1137.357
887.312	18.738	1230.267	1136.728
888.327	18.927	1229.118	1136.787
889.341	18.973	1227.114	1135.102
890.356	18.710	1226.790	1132.920
891.371	18.868	1226.298	1133.377
892.385	18.830	1225.394	1132.158
893.400	18.731	1224.719	1130.743
894.414	18.564	1224.110	1128.940
895.429	18.656	1221.865	1127.340
896.444	18.971	1220.024	1127.587
897.458	18.848	1219.363	1126.027
898.473	18.850	1218.634	1125.230
899.487	18.896	1217.532	1124.383
900.502	18.930	1216.399	1123.423
901.517	18.844	1215.424	1121.829
902.531	18.795	1214.469	1120.486
903.546	18.928	1214.283	1121.057
904.560	18.985	1213.737	1120.788
905.575	18.960	1212.313	1119.180
906.589	18.764	1212.025	1117.499
907.604	18.818	1211.087	1116.852
