DTS Sentinel unit serial number:	SN409020Multiplexer serial number:	ORYXHardware model number:	OX4-SRSoftware version number:	ORYX F/W v3.00 Oryx Data Collector v3.7.2.0data status	okinstallation	HaddamTimeLapsedifferential loss correction	single-endedforward channel	channel 3reverse channel	N/Adate	2011/06/21time	23:01:17forward acquisition time	30.00reverse acquisition time	0.00gamma	498.7831k internal	0.1754k external	0.1754temperature offset calibration	1.0074default loss term (dB/km)	0.3790temperature slope calibration	1.3530multiplexer offset coefficient	1.0000multiplexer slope coefficient	1.0000fibre end	0.00T internal ref (°C)	23.50T ext. ref 1 (°C)	19.25T ext. ref 2 (°C)	0.05length (m)	temperature (°C)	Stokes	anti-Stokes-747.200	44.033	0.089	0.108
-746.185	106.244	0.335	0.528
-745.171	238.996	0.173	-0.383
-744.156	-140.775	-0.360	-0.049
-743.142	242.864	0.129	0.287
-742.127	-200.000	0.019	0.260
-741.112	21.297	0.317	-0.341
-740.098	-68.528	-0.739	0.378
-739.083	15.013	-0.333	-0.345
-738.069	800.000	0.019	0.079
-737.054	-32.604	0.117	-0.087
-736.039	-200.000	0.005	-0.243
-735.025	-4.610	0.425	0.388
-734.010	800.000	0.028	0.144
-732.996	-193.064	-0.561	-0.006
-731.981	-42.357	-0.299	0.202
-730.966	-200.000	-0.044	-0.287
-729.952	-41.204	-0.494	-0.337
-728.937	-149.396	-0.300	0.031
-727.923	-151.366	-0.133	0.013
-726.908	-123.680	-0.178	0.037
-725.894	-164.505	-0.374	-0.022
-724.879	-17.441	0.242	0.201
-723.864	123.794	0.162	-0.271
-722.850	-179.586	0.264	-0.007
-721.835	-130.085	-0.425	-0.076
-720.821	-200.000	-0.071	-0.557
-719.806	-113.972	-0.337	0.086
-718.791	65.088	-0.270	-0.361
-717.777	-71.897	-0.290	0.142
-716.762	-66.685	-0.261	0.137
-715.748	-116.238	0.480	-0.117
-714.733	-147.250	-0.361	-0.040
-713.718	-59.931	-0.160	-0.090
-712.704	746.408	0.199	0.715
-711.689	-56.762	-0.039	0.023
-710.675	-146.680	-0.423	-0.048
-709.660	119.167	-0.143	-0.235
-708.645	-53.981	-0.236	-0.142
-707.631	-88.368	-0.137	0.054
-706.616	167.518	-0.383	0.723
-705.602	-83.888	0.281	0.118
-704.587	-141.560	-0.383	-0.051
-703.572	-186.202	-0.166	-0.003
-702.558	444.720	-0.123	-0.360
-701.543	324.564	-0.186	-0.472
-700.529	-55.555	0.199	-0.118
-699.514	-130.496	-0.278	-0.049
-698.499	-56.984	-0.337	0.196
-697.485	-69.842	0.269	0.136
-696.470	-139.189	0.110	-0.016
-695.456	-81.777	-0.326	-0.141
-694.441	156.775	0.184	-0.337
-693.426	-46.104	0.158	0.102
-692.412	225.728	-0.121	-0.260
-691.397	-200.000	-0.014	0.168
-690.383	800.000	-0.082	-0.348
-689.368	-146.679	0.220	-0.025
-688.354	-73.058	-0.255	-0.123
-687.339	253.896	0.060	-0.137
-686.324	-74.059	-0.183	-0.087
-685.310	-14.923	-0.281	-0.238
-684.295	51.429	-0.222	-0.279
-683.281	45.559	0.279	-0.341
-682.266	-200.000	-0.086	-0.535
-681.251	-13.522	0.120	-0.103
-680.237	-16.337	-0.139	-0.117
-679.222	-200.000	-0.073	-0.586
-678.208	-129.949	-0.377	-0.068
-677.193	800.000	0.059	0.252
-676.178	-200.000	-0.032	0.343
-675.164	-25.035	-0.182	0.143
-674.149	-200.000	-0.022	-0.184
-673.135	-123.985	0.486	0.100
-672.120	-142.890	0.549	-0.070
-671.105	-38.896	0.500	0.348
-670.091	453.639	0.131	-0.385
-669.076	-147.400	-0.144	-0.016
-668.062	537.307	-0.053	-0.167
-667.047	185.964	-0.056	-0.111
-666.032	-106.915	-0.090	0.026
-665.018	-100.436	-0.106	-0.035
-664.003	-63.166	-0.640	0.348
-662.989	433.053	-0.044	-0.126
-661.974	-200.000	-0.001	-0.162
-660.959	-88.446	0.145	-0.057
-659.945	281.730	-0.049	0.117
-658.930	-145.919	0.094	0.011
-657.916	297.130	0.083	0.202
-656.901	-200.000	-0.560	-0.002
-655.886	381.202	0.029	0.078
-654.872	52.480	-0.067	-0.084
-653.857	382.803	-0.139	-0.380
-652.843	-98.967	-0.276	0.092
-651.828	44.902	0.243	0.296
-650.814	-26.048	-0.484	-0.375
-649.799	-200.000	-0.004	0.094
-648.784	-193.784	-0.121	-0.001
-647.770	-200.000	0.009	-0.433
-646.755	199.570	-0.168	-0.341
-645.741	15.718	0.233	0.242
-644.726	-72.413	-0.352	0.171
-643.711	43.405	-0.102	-0.123
-642.697	-101.721	0.404	0.128
-641.682	-200.000	0.078	-0.610
-640.668	9.229	0.131	0.130
-639.653	-188.697	-0.336	-0.005
-638.638	-200.000	-0.008	-0.228
-637.624	-80.028	-0.265	0.117
-636.609	-176.300	-0.287	0.010
-635.595	141.670	0.387	-0.679
-634.580	-120.358	-0.344	-0.077
-633.565	-46.001	-0.253	0.164
-632.551	-89.029	-0.173	0.067
-631.536	-113.251	-0.618	0.159
-630.522	55.081	0.341	0.435
-629.507	-5.820	-0.452	0.409
-628.492	-144.111	-0.334	-0.041
-627.478	-79.699	-0.136	0.060
-626.463	-64.158	-0.649	0.348
-625.449	-14.260	-0.280	-0.238
-624.434	137.034	-0.218	-0.377
-623.419	119.766	-0.142	-0.232
-622.405	24.409	-0.276	-0.301
-621.390	-61.685	0.460	-0.254
-620.376	89.989	-0.374	0.553
-619.361	-106.256	0.205	-0.060
-618.346	-139.139	-0.580	0.082
-617.332	685.207	0.108	-0.375
-616.317	-184.619	0.047	-0.001
-615.303	78.533	-0.052	-0.074
-614.288	196.215	-0.070	-0.141
-613.273	-200.000	0.005	0.135
-612.259	463.478	-0.167	0.495
-611.244	261.621	-0.163	0.375
-610.230	42.819	-0.101	0.121
-609.215	800.000	0.058	-0.274
-608.201	148.576	0.078	-0.140
-607.186	-145.007	-0.363	-0.043
-606.171	180.651	0.192	-0.372
-605.157	25.991	0.034	0.037
-604.142	-81.942	0.392	0.168
-603.128	-200.000	-0.005	-0.548
-602.113	-155.704	-0.822	0.069
-601.098	593.543	0.082	0.268
-600.084	228.721	-0.132	0.285
-599.069	-162.389	-0.226	0.015
-598.055	-79.880	0.238	0.105
-597.040	86.242	0.212	0.309
-596.025	290.964	-0.047	0.114
-595.011	414.191	0.098	0.276
-593.996	11.866	-0.101	-0.102
-592.982	-67.336	0.135	-0.070
-591.967	800.000	-0.050	0.228
-590.952	-48.023	-0.141	0.090
-589.938	195.456	0.220	0.442
-588.923	-57.502	-0.606	0.349
-587.909	-200.000	-0.011	-0.123
-586.894	-146.699	0.521	-0.059
-585.879	-152.557	0.654	-0.061
-584.865	1.249	-0.263	0.248
-583.850	-200.000	-0.001	0.082
-582.836	-200.000	-0.034	0.445
-581.821	-135.116	0.368	-0.058
-580.806	394.688	-0.061	-0.169
-579.792	800.000	0.052	0.253
-578.777	-44.226	-0.435	-0.287
-577.763	-200.000	0.011	0.142
-576.748	45.011	0.270	-0.328
-575.733	-46.256	-0.281	-0.182
-574.719	800.000	-0.057	-0.278
-573.704	49.326	0.367	-0.455
-572.690	800.000	0.128	-0.543
-571.675	-12.984	-0.114	0.097
-570.661	90.099	0.140	0.207
-569.646	-33.410	-0.313	-0.228
-568.631	800.000	0.047	-0.187
-567.617	800.000	-0.030	-0.128
-566.602	-17.266	0.007	-0.006
-565.588	-200.000	0.007	0.544
-564.573	-146.050	-0.604	0.069
-563.558	-48.262	0.220	-0.139
-562.544	232.582	0.049	0.106
-561.529	-40.234	0.354	-0.242
-560.515	800.000	-0.033	-0.180
-559.500	173.891	-0.271	-0.517
-558.485	292.152	0.149	-0.359
-557.471	-61.098	0.129	0.072
-556.456	-11.635	-0.139	0.121
-555.442	158.121	0.096	0.176
-554.427	37.663	0.067	0.078
-553.412	9.007	-0.128	-0.127
-552.398	22.346	0.191	0.205
-551.383	189.243	-0.155	-0.306
-550.369	-84.501	0.105	0.043
-549.354	42.457	-0.436	-0.522
-548.339	-116.712	-0.366	-0.088
-547.325	-115.439	-0.120	-0.029
-546.310	-200.000	0.062	0.418
-545.296	131.072	0.184	-0.311
-544.281	800.000	0.086	-0.421
-543.266	-161.458	0.310	-0.021
-542.252	266.969	0.150	-0.347
-541.237	800.000	-0.094	0.374
-540.223	-30.898	-0.465	-0.345
-539.208	126.752	0.234	-0.391
-538.193	13.367	0.170	-0.174
-537.179	92.753	-0.085	0.127
-536.164	-200.000	0.006	0.171
-535.150	-142.960	-0.131	0.016
-534.135	-142.901	0.392	-0.049
-533.121	-4.252	0.158	-0.143
-532.106	-47.848	-0.404	-0.257
-531.091	-200.000	0.024	-0.344
-530.077	1.093	0.062	0.059
-529.062	-200.000	0.003	-0.030
-528.048	112.621	0.094	0.150
-527.033	800.000	-0.064	0.295
-526.018	800.000	0.054	-0.254
-525.004	-8.210	-0.120	0.106
-523.989	-52.797	0.225	0.136
-522.975	-135.934	0.539	0.083
-521.960	60.093	-0.194	0.253
-520.945	153.774	-0.058	0.104
-519.931	6.683	-0.191	0.187
-518.916	-70.526	0.325	0.161
-517.902	171.007	-0.199	-0.377
-516.887	-200.000	0.006	0.099
-515.872	-29.408	0.386	0.290
-514.858	-139.347	-0.180	-0.025
-513.843	56.850	0.285	0.366
-512.829	-200.000	-0.036	0.225
-511.814	-72.717	0.371	0.179
-510.799	605.952	-0.071	0.235
-509.785	800.000	0.080	-0.408
-508.770	-116.748	-0.448	-0.107
-507.756	-136.310	-0.179	-0.027
-506.741	-156.934	0.270	0.021
-505.726	295.563	-0.143	-0.345
-504.712	-76.472	-0.191	-0.088
-503.697	-167.877	0.529	-0.027
-502.683	37.175	0.106	0.123
-501.668	134.349	-0.216	-0.368
-500.653	64.579	0.205	-0.272
-499.639	617.024	0.121	0.401
-498.624	-64.084	-0.175	-0.094
-497.610	13.475	0.251	0.256
-496.595	-152.072	-0.440	0.042
-495.581	800.000	0.088	-0.477
-494.566	250.216	-0.038	-0.084
-493.551	-24.591	-0.057	-0.045
-492.537	-107.055	-0.342	0.099
-491.522	-61.465	-0.307	0.169
-490.508	-103.044	0.265	-0.082
-489.493	127.413	0.086	0.144
-488.478	-104.724	0.325	-0.098
-487.464	-200.000	-0.014	-0.223
-486.449	800.000	-0.096	-0.390
-485.435	-29.509	-0.586	0.439
-484.420	146.490	0.218	0.385
-483.405	800.000	0.031	-0.158
-482.391	454.382	0.032	-0.093
-481.376	800.000	0.033	-0.170
-480.362	589.333	-0.105	-0.343
-479.347	69.358	-0.385	-0.520
-478.332	-136.480	0.329	-0.050
-477.318	241.877	-0.087	-0.191
-476.303	-90.819	0.143	-0.054
-475.289	94.638	-0.235	0.351
-474.274	215.078	-0.077	0.162
-473.259	-200.000	0.059	0.679
-472.245	42.072	0.241	0.287
-471.230	-98.430	-0.102	0.034
-470.216	118.742	-0.218	-0.354
-469.201	404.741	-0.117	-0.326
-468.186	205.765	-0.033	0.068
-467.172	33.588	0.204	-0.233
-466.157	-85.646	-0.290	0.118
-465.143	73.111	-0.109	-0.150
-464.128	4.211	0.290	-0.278
-463.113	-200.000	0.015	-0.086
-462.099	192.898	0.126	0.250
-461.084	432.544	-0.159	0.454
-460.070	-176.648	-0.314	-0.010
-459.055	-164.956	0.701	0.040
-458.040	-154.591	0.168	-0.014
-457.026	-2.855	0.416	0.381
-456.011	-173.468	0.406	-0.016
-454.997	242.783	-0.197	0.434
-453.982	-10.659	-0.145	-0.126
-452.968	-156.999	0.236	-0.019
-451.953	-200.000	-0.827	-0.001
-450.938	-200.000	-0.000	0.452
-449.924	320.522	-0.124	0.311
-448.909	800.000	-0.096	0.377
-447.895	-200.000	0.016	0.324
-446.880	-200.000	-0.002	-0.320
-445.865	38.364	-0.363	-0.424
-444.851	257.463	0.072	-0.163
-443.836	-18.973	-0.086	0.070
-442.822	121.116	-0.324	-0.530
-441.807	117.263	0.140	-0.226
-440.792	5.902	-0.402	-0.390
-439.778	56.394	-0.183	-0.233
-438.763	135.970	-0.116	0.199
-437.749	-200.000	-0.043	-0.444
-436.734	-200.000	0.016	-0.254
-435.719	347.441	-0.261	-0.676
-434.705	800.000	-0.122	-0.465
-433.690	-60.181	-0.366	-0.204
-432.676	544.871	-0.073	0.230
-431.661	-62.871	-0.192	-0.104
-430.646	6.349	0.144	0.140
-429.632	-195.088	0.135	-0.001
-428.617	34.729	0.174	0.199
-427.603	18.225	-0.572	-0.598
-426.588	-10.551	-0.339	0.294
-425.573	191.489	0.279	0.552
-424.559	59.147	0.047	0.060
-423.544	-31.343	-0.342	-0.252
-422.530	265.094	-0.135	-0.309
-421.515	-87.100	-0.164	-0.065
-420.500	-105.402	-0.119	0.035
-419.486	-200.000	-0.012	0.270
-418.471	-71.038	-0.266	0.131
-417.457	153.102	-0.281	0.505
-416.442	-200.000	-0.034	0.214
-415.428	-14.936	-0.233	-0.195
-414.413	-200.000	0.141	-0.860
-413.398	35.394	0.225	-0.258
-412.384	-83.002	0.305	-0.128
-411.369	68.317	0.210	0.282
-410.355	800.000	-0.047	-0.198
-409.340	-200.000	0.019	-0.542
-408.325	-125.243	0.176	0.035
-407.311	188.660	-0.297	0.584
-406.296	-120.076	-0.299	0.066
-405.282	800.000	-0.067	0.317
-404.267	-34.010	0.332	-0.239
-403.252	-200.000	0.002	-0.234
-402.238	74.234	0.074	0.102
-401.223	605.270	0.029	-0.095
-400.209	-200.000	-0.038	-0.370
-399.194	-48.631	-0.225	0.141
-398.179	69.154	-0.258	-0.348
-397.165	442.179	0.142	-0.408
-396.150	-137.516	-0.206	0.030
-395.136	-56.787	0.217	-0.125
-394.121	-109.903	-0.224	0.061
-393.106	302.553	-0.166	-0.404
-392.092	141.590	0.111	-0.193
-391.077	-76.366	0.146	0.067
-390.063	14.878	-0.476	-0.487
-389.048	143.777	-0.052	0.091
-388.033	-75.423	0.230	0.107
-387.019	-93.477	-0.317	-0.114
-386.004	-112.975	-0.363	0.093
-384.990	-65.050	-0.170	-0.090
-383.975	85.087	0.302	0.433
-382.960	309.834	-0.080	0.197
-381.946	-54.125	-0.419	-0.249
-380.931	-200.000	-0.050	0.305
-379.917	-178.341	-0.388	0.012
-378.902	56.903	0.099	0.126
-377.888	95.079	0.249	0.371
-376.873	3.734	0.336	0.321
-375.858	36.853	0.224	0.259
-374.844	-77.774	0.347	0.156
-373.829	-96.061	-0.315	0.109
-372.815	800.000	-0.058	0.234
-371.800	199.443	0.081	-0.164
-370.785	78.289	0.228	-0.319
-369.771	-31.452	-0.152	-0.111
-368.756	-47.311	0.449	-0.285
-367.742	-140.785	-0.756	-0.101
-366.727	72.838	-0.061	0.084
-365.712	551.803	0.193	-0.608
-364.698	467.151	0.147	-0.431
-363.683	175.332	0.099	0.188
-362.669	441.796	-0.109	0.312
-361.654	-200.000	-0.005	0.471
-360.639	-109.919	0.089	-0.024
-359.625	800.000	0.069	0.352
-358.610	-49.914	-0.450	0.278
-357.596	-118.911	-0.364	-0.083
-356.581	26.872	-0.131	0.144
-355.566	-158.364	0.217	0.016
-354.552	-139.575	-0.388	0.054
-353.537	-200.000	0.012	0.592
-352.523	-118.796	0.246	0.056
-351.508	-111.839	0.236	0.062
-350.493	431.885	0.106	0.302
-349.479	800.000	-0.022	0.103
-348.464	-200.000	-0.040	0.280
-347.450	-31.114	-0.175	0.129
-346.435	-73.385	-0.445	0.212
-345.420	-129.335	0.267	0.048
-344.406	637.796	0.049	0.163
-343.391	-85.240	0.235	-0.095
-342.377	-200.000	0.040	-0.302
-341.362	103.160	-0.222	0.341
-340.348	-94.371	0.035	0.012
-339.333	349.902	0.066	-0.172
-338.318	159.366	0.124	0.226
-337.304	800.000	0.114	0.447
-336.289	697.472	-0.157	0.540
-335.275	-64.300	0.200	-0.106
-334.260	-200.000	-0.047	-0.305
-333.245	-123.860	0.528	0.108
-332.231	-139.280	0.545	-0.076
-331.216	-194.932	-0.309	-0.003
-330.202	-51.696	0.067	-0.041
-329.187	-13.086	-0.139	0.118
-328.172	-200.000	-0.026	-0.181
-327.158	-26.156	-0.115	-0.088
-326.143	785.070	0.111	-0.400
-325.129	200.084	-0.046	-0.093
-324.114	-176.619	-0.180	0.006
-323.099	138.943	-0.176	0.303
-322.085	-115.354	-0.440	-0.108
-321.070	-79.263	0.324	0.143
-320.056	93.809	-0.196	0.290
-319.041	-115.793	0.278	0.067
-318.026	3.426	0.205	-0.194
-317.012	-72.260	-0.370	-0.178
-315.997	-37.409	-0.288	-0.200
-314.983	-173.090	0.344	-0.014
-313.968	-35.806	0.143	-0.100
-312.953	192.843	-0.338	-0.669
-311.939	-97.300	-0.441	-0.149
-310.924	52.844	0.128	-0.160
-309.910	65.940	-0.087	0.115
-308.895	14.535	-0.100	0.102
-307.880	800.000	0.030	0.113
-306.866	-148.117	-0.252	-0.027
-305.851	-173.155	-0.306	0.012
-304.837	800.000	-0.146	0.778
-303.822	-78.097	-0.489	0.219
-302.807	18.741	-0.353	-0.369
-301.793	74.647	-0.198	-0.272
-300.778	-94.632	0.391	0.138
-299.764	800.000	0.052	0.224
-298.749	239.410	-0.153	-0.332
-297.735	-95.813	0.080	-0.028
-296.720	800.000	0.109	0.415
-295.705	-157.703	0.370	0.028
-294.691	-26.027	-0.298	0.228
-293.676	-48.942	0.244	0.152
-292.662	-163.002	0.380	-0.024
-291.647	-200.000	-0.040	-0.302
-290.632	-73.868	0.243	0.115
-289.618	-52.532	0.220	0.132
-288.603	-200.000	-0.014	-0.207
-287.589	285.926	0.269	0.635
-286.574	-44.494	0.337	-0.219
-285.559	-184.907	-0.253	-0.005
-284.545	-8.014	-0.190	-0.167
-283.530	628.891	0.034	-0.112
-282.516	-104.389	-0.353	0.106
-281.501	-200.000	0.012	-0.104
-280.486	106.725	0.170	0.263
-279.472	126.848	0.157	-0.259
-278.457	-152.874	0.551	0.050
-277.443	-195.218	0.655	-0.006
-276.428	-148.482	-0.590	-0.062
-275.413	-81.622	-0.285	0.121
-274.399	-107.518	0.299	-0.085
-273.384	216.838	-0.109	0.226
-272.370	107.033	0.121	-0.187
-271.355	-93.467	0.511	0.183
-270.340	-72.301	-0.216	-0.104
-269.326	-143.046	0.782	0.097
-268.311	-103.535	0.376	0.114
-267.297	6.277	-0.357	-0.345
-266.282	372.112	-0.192	0.509
-265.267	-122.698	0.388	0.081
-264.253	116.671	-0.126	0.201
-263.238	188.692	-0.045	0.087
-262.224	-106.065	0.152	-0.044
-261.209	20.691	-0.089	-0.093
-260.195	404.864	-0.140	0.387
-259.180	-70.739	-0.286	0.140
-258.165	68.261	0.226	-0.301
-257.151	3.237	0.384	-0.363
-256.136	-4.346	-0.216	-0.194
-255.122	-1.782	0.286	0.262
-254.107	-152.926	0.438	0.040
-253.092	-134.651	0.153	0.024
-252.078	50.227	-0.191	-0.234
-251.063	611.091	0.284	0.930
-250.049	-108.510	0.175	0.049
-249.034	-100.482	-0.382	-0.122
-248.019	800.000	0.052	0.249
-247.005	53.319	0.083	-0.104
-245.990	-33.333	0.321	-0.230
-244.976	-173.682	0.362	-0.014
-243.961	-66.005	0.541	-0.280
-242.946	-73.569	-0.113	0.054
-241.932	-180.066	-0.302	0.008
-240.917	800.000	-0.092	-0.517
-239.903	-200.000	-0.039	0.364
-238.888	338.556	0.083	0.210
-237.873	-200.000	0.022	-0.196
-236.859	-49.847	-0.089	0.055
-235.844	-200.000	-0.017	0.402
-234.830	-83.443	0.216	0.090
-233.815	531.974	-0.082	0.255
-232.800	800.000	-0.074	0.267
-231.786	-71.853	0.566	0.273
-230.771	202.010	-0.081	-0.164
-229.757	355.326	0.141	-0.367
-228.742	800.000	-0.047	-0.233
-227.727	-200.000	0.009	0.284
-226.713	-60.892	0.324	0.178
-225.698	-86.432	-0.292	0.116
-224.684	50.096	0.338	-0.415
-223.669	-200.000	0.250	-0.001
-222.655	-75.356	-0.260	0.120
-221.640	195.926	0.277	-0.550
-220.625	-97.245	-0.100	0.034
-219.611	138.302	0.141	0.241
-218.596	402.772	0.052	0.144
-217.582	47.512	-0.112	0.136
-216.567	10.876	-0.202	-0.201
-215.552	-110.819	0.605	0.161
-214.538	-155.977	0.444	-0.036
-213.523	-200.000	-0.004	0.399
-212.509	-158.255	0.335	0.025
-211.494	-44.213	0.305	-0.198
-210.479	-99.965	0.358	-0.115
-209.465	-129.016	0.106	0.019
-208.450	733.551	-0.037	0.130
-207.436	-0.771	-0.123	0.113
-206.421	97.541	0.102	0.153
-205.406	54.265	0.224	0.280
-204.392	-200.000	-0.046	0.472
-203.377	-93.020	0.290	0.105
-202.363	-200.000	-0.020	-0.698
-201.348	253.792	-0.129	-0.287
-200.333	-129.289	0.293	0.053
-199.319	-144.612	0.169	-0.020
-198.304	3.517	0.217	-0.205
-197.290	30.820	0.158	-0.176
-196.275	202.653	0.177	-0.355
-195.260	-200.000	0.010	0.153
-194.246	-117.732	0.515	0.119
-193.231	57.443	0.255	-0.324
-192.217	-73.348	-0.307	-0.145
-191.202	-130.489	-0.113	-0.020
-190.187	404.768	0.088	0.241
-189.173	68.225	0.165	0.220
-188.158	-70.304	0.334	-0.164
-187.144	62.234	-0.147	0.190
-186.129	-81.456	0.235	0.100
-185.114	-86.985	0.529	-0.208
-184.100	-63.966	0.161	0.085
-183.085	-91.712	0.115	-0.042
-182.071	197.896	0.048	0.095
-181.056	328.412	0.176	0.441
-180.042	800.000	-0.009	-0.040
-179.027	-59.504	0.208	-0.116
-178.012	516.869	0.040	0.123
-176.998	116.186	-0.248	0.394
-175.983	62.941	-0.157	0.203
-174.969	-134.552	-0.126	-0.020
-173.954	-100.925	-0.332	0.105
-172.939	-200.000	-0.061	-0.495
-171.925	-200.000	0.008	-0.391
-170.910	450.310	0.048	0.137
-169.896	-55.053	0.568	-0.331
-168.881	236.090	0.023	-0.049
-167.866	416.498	-0.094	-0.263
-166.852	49.179	-0.334	0.407
-165.837	-172.459	0.081	0.003
-164.823	-141.350	-0.349	0.045
-163.808	222.971	0.119	0.250
-162.793	-137.503	0.428	-0.062
-161.779	-51.502	0.556	0.336
-160.764	800.000	-0.107	-0.429
-159.750	255.025	-0.131	-0.292
-158.735	-86.551	-0.100	-0.040
-157.720	420.094	-0.157	0.437
-156.706	167.245	0.106	0.196
-155.691	83.680	-0.078	0.110
-154.677	-132.813	-0.197	-0.032
-153.662	261.701	0.119	0.267
-152.647	-200.000	-0.008	0.154
-151.633	800.000	-0.034	-0.192
-150.618	-174.486	0.485	-0.018
-149.604	32.268	0.191	0.214
-148.589	-54.882	-0.178	0.104
-147.574	800.000	-0.049	0.258
-146.560	-70.999	-0.363	0.176
-145.545	411.211	-0.148	-0.410
-144.531	-56.814	-0.350	-0.200
-143.516	-63.136	-0.154	-0.082
-142.502	-139.400	0.505	0.069
-141.487	224.486	-0.110	-0.231
-140.472	-200.000	0.008	0.176
-139.458	-200.000	0.069	0.762
-138.443	32.294	0.031	0.035
-137.429	-200.000	0.016	-0.224
-136.414	-74.281	-0.348	0.162
-135.399	291.243	-0.085	0.200
-134.385	-96.184	0.197	0.067
-133.370	-171.197	0.318	-0.014
-132.356	-128.371	-0.592	-0.108
-131.341	800.000	-0.045	-0.189
-130.326	800.000	0.074	-0.364
-129.312	-66.545	-0.145	-0.074
-128.297	-70.891	0.130	-0.063
-127.283	178.424	0.162	0.307
-126.268	-200.000	-0.332	0.002
-125.253	52.061	-0.077	-0.095
-124.239	-120.891	-0.278	0.060
-123.224	-133.390	-0.766	0.124
-122.210	-143.636	-0.524	0.064
-121.195	-120.164	-0.415	0.091
-120.180	-127.496	-0.470	0.088
-119.166	800.000	0.040	-0.164
-118.151	800.000	0.029	-0.121
-117.137	-120.412	0.161	-0.035
-116.122	403.384	0.090	-0.247
-115.107	0.317	0.221	-0.204
-114.093	800.000	-0.054	0.253
-113.078	-65.966	0.639	0.329
-112.064	-42.373	-0.273	-0.180
-111.049	-200.000	0.007	-0.091
-110.034	-5.511	-0.083	0.074
-109.020	-13.263	0.094	-0.079
-108.005	-46.789	0.267	0.169
-106.991	800.000	0.055	0.285
-105.976	-200.000	0.032	0.213
-104.962	-47.248	-0.426	0.268
-103.947	-103.610	0.455	-0.137
-102.932	-16.407	-0.426	0.349
-101.918	-27.131	0.318	0.239
-100.903	103.153	0.058	-0.088
-99.889	-200.000	0.019	0.492
-98.874	-83.974	-0.323	-0.132
-97.859	-134.856	-0.343	0.053
-96.845	10.109	0.210	0.207
-95.830	390.474	-0.068	0.183
-94.816	-200.000	-0.016	0.146
-93.801	14.880	-0.155	-0.157
-92.786	95.478	-0.236	-0.348
-91.772	-59.580	-0.207	-0.115
-90.757	-10.232	0.121	0.103
-89.743	-107.009	-0.365	0.104
-88.728	800.000	-0.035	-0.176
-87.713	232.228	0.218	-0.465
-86.699	-125.567	0.119	0.023
-85.684	-136.586	-0.347	0.051
-84.670	88.478	0.236	-0.340
-83.655	-36.730	0.297	0.206
-82.640	800.000	-0.095	0.365
-81.626	498.706	0.113	-0.338
-80.611	-101.020	0.348	-0.110
-79.597	-180.769	-0.245	-0.006
-78.582	800.000	-0.036	0.167
-77.567	-81.433	-0.525	0.222
-76.553	-88.425	0.221	-0.085
-75.538	800.000	0.080	-0.421
-74.524	-128.953	0.234	-0.042
-73.509	145.989	-0.043	0.074
-72.494	-171.365	0.318	0.014
-71.480	-13.679	0.062	-0.051
-70.465	-52.206	0.406	-0.243
-69.451	-106.816	-0.217	0.062
-68.436	-115.483	-0.310	-0.075
-67.422	15.493	-0.246	0.249
-66.407	91.610	-0.075	0.110
-65.392	-31.219	0.526	0.382
-64.378	-147.772	0.392	0.042
-63.363	69.657	-0.232	0.308
-62.349	-86.481	-0.345	0.136
-61.334	-6.092	-2.446	-2.156
-60.319	0.282	1.491	1.373
-59.305	177.504	-3.886	-7.331
-58.290	93.007	3.485	5.093
-57.276	397.255	3.979	10.788
-56.261	-200.000	22.003	316.451
-55.246	359.981	1294.844	3359.990
-54.232	52.945	2847.167	3518.637
-53.217	51.900	2663.629	3275.535
-52.203	32.891	2394.325	2676.590
-51.188	28.861	2059.233	2252.383
-50.173	25.429	1945.089	2087.440
-49.159	24.089	1934.938	2060.882
-48.144	23.820	1929.716	2052.125
-47.130	23.796	1927.616	2049.522
-46.115	23.842	1926.028	2048.290
-45.100	23.890	1924.660	2047.310
-44.086	23.865	1922.795	2044.957
-43.071	23.665	1921.351	2041.025
-42.057	23.817	1919.259	2040.473
-41.042	23.634	1919.019	2038.035
-40.027	23.818	1916.678	2037.581
-39.013	23.767	1914.695	2034.810
-37.998	23.697	1913.935	2033.110
-36.984	23.621	1913.008	2031.179
-35.969	23.580	1911.717	2029.246
-34.954	23.584	1910.360	2027.771
-33.940	23.659	1909.910	2028.080
-32.925	23.665	1907.934	2025.972
-31.911	23.655	1906.794	2024.560
-30.896	23.656	1905.242	2022.852
-29.881	23.661	1904.194	2021.714
-28.867	23.660	1902.580	2019.904
-27.852	23.464	1902.359	2017.349
-26.838	23.444	1901.009	2015.605
-25.823	23.480	1899.141	2013.957
-24.809	23.471	1897.790	2012.346
-23.794	23.542	1895.721	2010.886
-22.779	23.565	1895.172	2010.486
-21.765	23.526	1893.353	2008.023
-20.750	23.585	1892.307	2007.510
-19.736	23.473	1891.274	2005.058
-18.721	23.471	1889.689	2003.278
-17.706	23.486	1888.392	2001.992
-16.692	23.446	1887.719	2000.743
-15.677	23.277	1887.351	1998.358
-14.663	23.340	1885.340	1996.867
-13.648	23.374	1883.543	1995.262
-12.633	23.398	1882.000	1993.827
-11.619	23.441	1879.959	1992.066
-10.604	23.316	1879.330	1989.916
-9.590	23.404	1879.096	1990.584
-8.575	23.386	1877.747	1988.871
-7.560	23.422	1875.919	1987.259
-6.546	23.304	1875.746	1985.663
-5.531	23.401	1873.394	1984.186
-4.517	23.403	1872.378	1983.060
-3.502	23.483	1871.510	1982.962
-2.487	23.470	1870.268	1981.419
-1.473	23.503	1867.355	1978.624
-0.458	23.322	1849.288	1957.388
0.556	19.894	1996.645	2060.069
1.571	18.655	2199.972	2253.234
2.586	19.270	2238.865	2301.054
3.600	19.344	2241.284	2304.259
4.615	19.331	2240.825	2303.332
5.629	19.366	2238.536	2301.180
6.644	19.434	2235.170	2298.347
7.659	19.188	2234.906	2294.512
8.673	19.235	2233.017	2292.923
9.688	19.147	2241.677	2300.364
10.702	18.671	2322.689	2376.582
11.717	17.124	2387.878	2420.833
12.731	8.338	2366.763	2273.865
13.746	1.267	2346.959	2153.940
14.761	0.189	2344.844	2136.364
15.775	0.054	2342.406	2131.967
16.790	0.152	2339.980	2130.905
17.804	0.127	2339.388	2129.752
18.819	0.187	2336.884	2128.070
19.834	0.016	2336.760	2125.273
20.848	0.101	2335.183	2124.785
21.863	0.081	2333.573	2122.790
22.877	0.087	2331.259	2120.509
23.892	0.060	2330.113	2118.836
24.907	0.061	2327.345	2116.075
25.921	0.044	2324.914	2113.372
26.936	0.077	2323.252	2112.081
27.950	0.060	2319.888	2108.527
28.965	0.020	2318.657	2106.587
29.980	0.115	2316.068	2105.322
30.994	0.199	2315.041	2105.314
32.009	4.537	2328.277	2178.314
33.023	14.209	2356.907	2342.247
34.038	18.247	2362.289	2404.468
35.053	18.245	2359.844	2401.653
36.067	18.336	2357.521	2400.295
37.082	18.313	2356.079	2398.214
38.096	18.337	2354.783	2396.946
39.111	18.467	2351.847	2395.498
40.126	18.601	2348.145	2393.309
41.140	18.504	2348.107	2391.623
42.155	18.650	2346.685	2391.935
43.169	18.677	2344.002	2389.298
44.184	18.560	2340.963	2384.284
45.199	18.421	2338.842	2379.888
46.213	18.555	2338.260	2380.883
47.228	18.560	2338.365	2380.776
48.242	18.584	2336.791	2379.230
49.257	18.734	2333.829	2378.014
50.271	18.690	2331.779	2375.031
51.286	18.560	2329.263	2370.368
52.301	18.491	2326.584	2366.403
53.315	19.197	2328.883	2378.257
54.330	21.491	2336.178	2417.331
55.344	23.126	2336.419	2439.977
56.359	23.312	2333.047	2438.739
57.374	23.567	2332.543	2441.445
58.388	23.599	2330.153	2439.089
59.403	23.238	2325.870	2429.345
60.417	22.948	2322.654	2421.696
61.432	22.982	2321.554	2420.727
62.447	23.221	2319.763	2421.853
63.461	23.419	2319.327	2423.835
64.476	23.582	2315.942	2422.240
65.490	23.345	2313.147	2415.778
66.505	22.375	2310.605	2399.547
67.520	20.572	2303.335	2367.057
68.534	18.987	2297.293	2338.916
69.549	18.639	2292.660	2329.176
70.563	18.468	2289.524	2323.384
71.578	18.545	2287.196	2321.788
72.593	18.553	2285.653	2320.051
73.607	18.549	2284.868	2318.929
74.622	18.670	2281.362	2316.736
75.636	18.614	2278.737	2313.024
76.651	18.339	2278.277	2308.558
77.666	18.376	2276.407	2306.891
78.680	18.472	2272.912	2304.364
79.695	18.259	2271.762	2300.053
80.709	18.229	2270.443	2298.032
81.724	18.416	2267.342	2297.141
82.739	18.225	2265.509	2292.432
83.753	18.147	2263.267	2288.851
84.768	18.213	2260.878	2287.040
85.782	18.132	2261.324	2286.131
86.797	18.194	2259.139	2284.481
87.812	18.237	2256.202	2281.808
88.826	18.150	2255.321	2279.489
89.841	18.255	2252.134	2277.399
90.855	18.204	2249.133	2273.403
91.870	18.260	2248.687	2273.428
92.884	18.274	2247.074	2271.708
93.899	18.306	2245.564	2270.340
94.914	18.775	2247.781	2278.571
95.928	20.779	2253.928	2311.290
96.943	21.542	2252.882	2320.117
97.957	19.633	2243.044	2284.364
98.972	18.497	2237.525	2263.402
99.987	18.383	2234.639	2258.693
101.001	18.355	2232.353	2255.750
102.016	18.261	2230.758	2252.623
103.030	18.340	2227.408	2250.004
104.045	18.216	2224.512	2245.184
105.060	18.155	2222.921	2242.502
106.074	18.213	2221.353	2241.414
107.089	18.410	2220.089	2242.460
108.103	18.331	2218.962	2240.014
109.118	18.215	2217.345	2236.588
110.133	18.326	2214.889	2235.299
111.147	18.351	2212.998	2233.458
112.162	18.298	2212.105	2231.595
113.176	18.518	2209.814	2231.897
114.191	18.530	2207.546	2229.488
115.206	18.462	2206.849	2227.630
116.220	18.455	2205.173	2225.589
117.235	18.575	2203.372	2225.071
118.249	18.530	2200.855	2221.676
119.264	18.463	2199.457	2219.123
120.279	18.478	2196.569	2216.134
121.293	18.437	2195.599	2214.355
122.308	18.322	2194.829	2211.829
123.322	18.483	2193.475	2212.291
124.337	18.869	2194.382	2217.940
125.352	21.133	2200.419	2253.189
126.366	21.574	2198.195	2256.365
127.381	19.393	2188.864	2218.342
128.395	18.582	2184.039	2202.730
129.410	18.401	2182.629	2198.706
130.424	18.284	2180.411	2194.708
131.439	18.474	2179.157	2195.629
132.454	18.482	2178.215	2194.518
133.468	18.494	2175.364	2191.536
134.483	18.441	2174.830	2190.052
135.497	18.652	2172.913	2190.574
136.512	18.663	2170.079	2187.584
137.527	18.585	2169.009	2185.248
138.541	18.468	2167.032	2181.499
139.556	18.312	2165.408	2177.605
140.570	18.308	2164.838	2176.727
141.585	18.433	2161.207	2174.409
142.600	18.328	2160.453	2172.055
143.614	18.240	2160.278	2170.495
144.629	18.289	2157.389	2167.949
145.643	18.286	2156.046	2166.300
146.658	18.226	2153.710	2162.933
147.673	18.213	2151.955	2160.753
148.687	18.224	2150.252	2158.919
149.702	18.389	2149.699	2160.198
150.716	18.245	2149.048	2157.466
151.731	18.243	2147.892	2156.020
152.746	18.160	2146.576	2153.388
153.760	18.826	2149.012	2164.012
154.775	21.144	2153.172	2197.311
155.789	21.842	2152.784	2205.470
156.804	19.615	2143.749	2167.893
157.819	18.387	2137.457	2145.813
158.833	18.290	2134.272	2141.142
159.848	18.246	2132.549	2138.610
160.862	18.431	2130.592	2138.713
161.877	18.341	2129.601	2136.332
162.892	18.415	2129.255	2136.657
163.906	18.367	2127.344	2133.882
164.921	18.299	2125.515	2130.939
165.935	18.372	2122.905	2128.972
166.950	18.387	2122.516	2128.519
167.964	18.460	2119.568	2126.214
168.979	18.368	2117.646	2122.895
169.994	18.263	2116.129	2119.807
171.008	18.377	2114.251	2119.096
172.023	18.310	2113.293	2117.039
173.037	18.443	2111.945	2117.088
174.052	18.508	2110.265	2115.960
175.067	18.408	2109.833	2114.030
176.081	18.435	2107.967	2112.248
177.096	18.579	2106.536	2112.348
178.110	18.482	2105.290	2109.645
179.125	18.417	2104.100	2107.396
180.140	18.421	2102.218	2105.299
181.154	18.449	2101.372	2104.549
182.169	18.551	2100.462	2104.648
183.183	19.127	2102.561	2113.612
184.198	21.646	2107.976	2149.916
185.213	22.198	2104.930	2153.355
186.227	19.675	2096.007	2113.000
187.242	18.510	2092.652	2095.063
188.256	18.425	2090.756	2091.864
189.271	18.353	2089.257	2089.233
190.286	18.242	2087.367	2085.730
191.300	18.496	2084.990	2086.214
192.315	18.391	2084.164	2083.862
193.329	18.490	2082.935	2083.588
194.344	18.602	2081.405	2083.175
195.359	18.610	2080.410	2082.027
196.373	18.380	2078.486	2077.048
197.388	18.407	2074.730	2073.384
198.402	18.443	2072.806	2071.650
199.417	18.429	2070.047	2068.475
200.432	18.372	2068.526	2066.017
201.446	18.239	2067.802	2063.428
202.461	18.278	2065.961	2061.816
203.475	18.233	2064.517	2059.589
204.490	18.243	2062.746	2057.698
205.504	18.220	2060.720	2055.152
206.519	18.325	2058.514	2053.967
207.534	18.314	2056.971	2052.048
208.548	18.303	2055.694	2050.401
209.563	18.282	2054.850	2049.058
210.577	18.518	2052.715	2049.518
211.592	18.438	2052.690	2048.291
212.607	19.524	2056.979	2065.389
213.621	22.309	2062.769	2104.489
214.636	21.758	2057.779	2092.533
215.650	19.148	2050.899	2054.038
216.665	18.427	2045.973	2040.233
217.680	18.375	2043.888	2037.289
218.694	18.293	2041.661	2033.847
219.709	18.318	2039.993	2032.238
220.723	18.351	2038.442	2030.836
221.738	18.312	2038.367	2030.056
222.753	18.348	2035.907	2027.798
223.767	18.425	2034.250	2026.814
224.782	18.361	2033.032	2024.603
225.796	18.445	2031.007	2023.341
226.811	18.486	2029.998	2022.580
227.826	18.492	2027.989	2020.402
228.840	18.376	2026.574	2017.384
229.855	18.332	2025.855	2015.900
230.869	18.337	2024.849	2014.719
231.884	18.349	2022.185	2011.972
232.899	18.427	2021.064	2011.531
233.913	18.484	2019.362	2010.264
234.928	18.515	2017.433	2008.469
235.942	18.520	2015.598	2006.470
236.957	18.391	2014.463	2003.582
237.972	18.434	2013.858	2003.238
238.986	18.355	2013.049	2001.267
240.001	18.374	2010.932	1999.145
241.015	18.347	2009.904	1997.570
242.030	19.090	2011.151	2007.288
243.045	21.218	2016.702	2037.574
244.059	21.557	2013.422	2037.974
245.074	19.459	2004.937	2004.677
246.088	18.705	2001.110	1991.814
247.103	18.748	1999.529	1990.509
248.117	18.658	1998.486	1988.176
249.132	18.459	1996.666	1983.819
250.147	18.497	1994.867	1982.238
251.161	18.595	1993.170	1981.445
252.176	18.676	1992.107	1981.096
253.190	18.744	1990.578	1980.123
254.205	18.710	1988.470	1977.395
255.220	18.702	1986.113	1974.729
256.234	18.523	1986.137	1972.443
257.249	18.439	1985.199	1970.300
258.263	18.483	1983.438	1968.823
259.278	18.493	1983.186	1968.461
260.293	18.512	1981.030	1966.296
261.307	18.460	1979.019	1963.471
262.322	18.367	1976.714	1959.876
263.336	18.282	1974.786	1956.751
264.351	18.269	1972.563	1954.171
265.366	18.223	1972.202	1953.051
266.380	18.247	1971.635	1952.527
267.395	18.280	1970.167	1951.226
268.409	18.285	1968.376	1949.276
269.424	18.213	1966.999	1946.853
270.439	18.299	1966.630	1947.231
271.453	19.150	1967.713	1957.800
272.468	21.479	1972.036	1988.515
273.482	21.550	1969.408	1986.434
274.497	19.326	1960.816	1952.245
275.512	18.540	1956.117	1938.405
276.526	18.358	1954.381	1934.386
277.541	18.273	1952.592	1931.421
278.555	18.245	1950.948	1929.242
279.570	18.257	1949.501	1927.721
280.585	18.275	1948.378	1926.586
281.599	18.266	1947.217	1925.100
282.614	18.390	1945.500	1924.574
283.628	18.541	1944.407	1924.962
284.643	18.566	1944.063	1924.676
285.657	18.673	1942.122	1923.727
286.672	18.653	1941.644	1922.803
287.687	18.610	1939.765	1920.228
288.701	18.658	1937.533	1918.329
289.716	18.786	1936.039	1918.060
290.730	18.622	1935.626	1915.580
291.745	18.674	1933.840	1914.158
292.760	18.718	1932.871	1913.468
293.774	18.591	1932.589	1911.539
294.789	18.593	1930.686	1909.444
295.803	18.582	1927.697	1906.139
296.818	18.521	1926.684	1904.233
297.833	18.628	1924.439	1902.974
298.847	18.418	1924.378	1900.345
299.862	18.461	1922.746	1898.986
300.876	19.120	1924.031	1907.367
301.891	21.718	1929.800	1941.837
302.906	22.009	1927.159	1942.184
303.920	19.474	1919.111	1905.735
304.935	18.558	1915.450	1891.718
305.949	18.468	1913.473	1888.549
306.964	18.550	1911.805	1887.580
307.979	18.484	1910.496	1885.335
308.993	18.558	1909.148	1884.598
310.008	18.788	1907.382	1885.170
311.022	18.814	1906.202	1884.058
312.037	18.567	1904.149	1879.091
313.052	18.744	1903.222	1879.893
314.066	19.006	1902.224	1881.559
315.081	18.896	1901.140	1879.060
316.095	18.588	1900.026	1874.349
317.110	18.575	1897.983	1871.965
318.125	18.465	1895.218	1867.805
319.139	18.418	1894.569	1866.428
320.154	18.488	1893.379	1865.799
321.168	18.401	1892.248	1863.518
322.183	18.400	1890.487	1861.542
323.197	18.310	1889.148	1859.023
324.212	18.329	1887.397	1857.278
325.227	18.314	1884.765	1854.312
326.241	18.286	1882.672	1851.725
327.256	18.299	1881.704	1850.693
328.270	18.276	1881.803	1850.312
329.285	18.318	1880.991	1849.755
330.300	19.195	1884.232	1862.253
331.314	21.783	1889.240	1895.138
332.329	21.725	1884.372	1889.404
333.343	19.265	1875.591	1853.805
334.358	18.309	1872.939	1840.637
335.373	18.244	1871.570	1838.360
336.387	18.192	1869.396	1835.449
337.402	18.178	1868.338	1834.038
338.416	18.330	1866.468	1833.619
339.431	18.400	1865.723	1833.420
340.446	18.370	1863.025	1830.231
341.460	18.442	1862.567	1830.335
342.475	18.584	1860.586	1829.690
343.489	18.574	1859.230	1828.036
344.504	18.501	1858.733	1826.542
345.519	18.660	1857.123	1826.445
346.533	18.786	1856.061	1826.528
347.548	19.204	1855.471	1830.188
348.562	19.601	1856.087	1834.818
349.577	19.566	1854.230	1832.389
350.592	18.981	1851.618	1823.358
351.606	18.770	1850.103	1819.399
352.621	18.746	1847.840	1816.705
353.635	18.576	1846.444	1813.306
354.650	18.612	1845.485	1812.533
355.665	18.681	1843.593	1811.193
356.679	18.603	1842.218	1808.793
357.694	18.551	1840.568	1806.411
358.708	18.413	1839.905	1804.084
359.723	19.520	1843.097	1818.718
360.738	22.018	1847.383	1849.213
361.752	21.614	1843.332	1840.674
362.767	19.275	1835.692	1808.185
363.781	18.715	1832.083	1798.515
364.796	18.486	1830.881	1794.710
365.810	18.447	1829.702	1792.924
366.825	18.573	1828.165	1792.532
367.840	18.438	1827.511	1790.255
368.854	18.503	1826.614	1789.842
369.869	18.341	1825.978	1787.305
370.883	19.079	1825.175	1794.043
371.898	19.315	1824.977	1796.108
372.913	18.883	1822.269	1788.711
373.927	18.768	1821.291	1786.337
374.942	18.995	1819.094	1786.336
375.956	18.896	1818.500	1784.507
376.971	18.773	1815.248	1779.815
377.986	18.575	1813.863	1776.190
379.000	18.454	1812.655	1773.534
380.015	18.513	1811.415	1772.720
381.029	18.418	1809.077	1769.235
382.044	18.453	1807.148	1767.503
383.059	18.355	1806.855	1765.982
384.073	18.390	1805.347	1764.659
385.088	18.389	1803.945	1763.075
386.102	18.414	1801.917	1761.134
387.117	18.354	1800.647	1759.061
388.132	18.254	1800.778	1757.944
389.146	19.087	1804.082	1769.581
390.161	21.852	1807.415	1801.216
391.175	21.544	1801.500	1791.938
392.190	19.330	1792.857	1760.431
393.205	18.631	1790.185	1750.428
394.219	18.560	1789.589	1748.907
395.234	18.444	1787.797	1745.758
396.248	18.472	1786.283	1744.355
397.263	18.482	1783.626	1741.654
398.278	18.443	1782.697	1740.139
399.292	18.532	1780.902	1739.091
400.307	18.457	1781.265	1738.470
401.321	18.455	1780.239	1737.244
402.336	18.424	1778.685	1735.200
403.350	18.513	1776.947	1734.203
404.365	18.783	1776.092	1735.905
405.380	18.984	1775.114	1736.780
406.394	18.914	1773.960	1734.735
407.409	18.902	1773.045	1733.507
408.423	18.884	1771.779	1731.884
409.438	18.795	1769.584	1728.629
410.453	18.706	1768.214	1726.188
411.467	18.733	1767.575	1725.625
412.482	18.519	1766.423	1722.134
413.496	18.600	1764.530	1720.899
414.511	18.575	1762.825	1718.782
415.526	18.554	1760.620	1716.213
416.540	18.584	1758.141	1713.892
417.555	18.583	1757.617	1713.170
418.569	18.700	1757.975	1714.486
419.584	18.552	1758.163	1712.981
420.599	18.539	1757.682	1712.169
421.613	18.381	1756.239	1708.976
422.628	18.433	1753.973	1707.094
423.642	18.417	1752.452	1705.242
424.657	18.383	1751.122	1703.412
425.672	18.579	1749.424	1703.511
426.686	18.658	1748.355	1703.049
427.701	18.666	1747.610	1702.197
428.715	18.713	1746.201	1701.094
429.730	18.879	1745.156	1701.521
430.745	18.706	1743.589	1698.075
431.759	18.675	1743.091	1697.081
432.774	18.893	1743.062	1699.007
433.788	19.096	1742.177	1699.958
434.803	19.237	1741.687	1700.676
435.818	19.236	1740.772	1699.568
436.832	19.159	1739.834	1697.693
437.847	18.372	1733.383	1683.418
438.861	10.490	1712.101	1585.353
439.876	2.014	1696.351	1487.765
440.890	0.348	1692.630	1468.026
441.905	0.365	1690.601	1466.264
442.920	0.221	1689.882	1464.058
443.934	0.146	1688.376	1461.840
444.949	0.285	1687.203	1462.007
445.963	0.127	1686.767	1459.916
446.978	0.076	1686.199	1458.748
447.993	0.244	1684.184	1458.471
449.007	0.215	1681.380	1455.582
450.022	0.267	1679.280	1454.093
451.036	0.313	1678.525	1453.718
452.051	1.247	1683.722	1467.119
453.066	9.425	1702.337	1563.280
454.080	17.426	1715.612	1653.736
455.095	19.180	1717.142	1672.142
456.109	19.561	1716.549	1675.079
457.124	19.575	1716.166	1674.645
458.139	19.645	1715.913	1674.878
459.153	19.875	1714.776	1675.803
460.168	20.006	1713.344	1675.484
461.182	19.950	1710.901	1672.347
462.197	19.843	1710.187	1670.409
463.212	19.873	1707.183	1667.568
464.226	19.862	1706.300	1666.399
465.241	19.852	1706.297	1666.100
466.255	19.975	1705.180	1665.998
467.270	20.136	1703.932	1666.136
468.285	19.866	1702.296	1661.735
469.299	19.814	1701.130	1659.893
470.314	19.791	1699.701	1658.075
471.328	19.931	1697.852	1657.424
472.343	19.878	1696.452	1655.344
473.358	19.948	1695.982	1655.359
474.372	19.949	1694.471	1653.699
475.387	19.931	1692.364	1651.271
476.401	19.676	1691.597	1647.881
477.416	19.809	1689.660	1647.069
478.430	19.733	1689.176	1645.679
479.445	19.629	1687.551	1642.900
480.460	19.596	1686.101	1640.981
481.474	19.676	1686.120	1641.560
482.489	19.848	1684.998	1641.918
483.503	20.091	1682.901	1641.992
484.518	20.175	1682.078	1641.789
485.533	20.018	1680.426	1638.494
486.547	19.998	1678.616	1636.339
487.562	20.216	1677.232	1636.866
488.576	20.111	1676.544	1635.003
489.591	20.006	1675.738	1633.025
490.606	20.009	1673.868	1631.034
491.620	20.078	1672.282	1629.948
492.635	20.325	1670.313	1630.167
493.649	20.473	1669.335	1630.409
494.664	20.077	1668.475	1625.638
495.679	19.801	1666.408	1620.837
496.693	19.767	1665.715	1619.645
497.708	20.032	1664.589	1620.850
498.722	20.230	1664.050	1621.987
499.737	20.260	1662.500	1620.568
500.752	20.220	1660.396	1617.947
501.766	20.045	1659.132	1614.888
502.781	20.176	1657.187	1614.024
503.795	20.143	1656.264	1612.619
504.810	20.017	1656.144	1611.134
505.825	20.290	1655.146	1612.520
506.839	20.304	1653.572	1610.927
507.854	20.320	1652.153	1609.495
508.868	20.312	1650.926	1608.032
509.883	20.215	1650.438	1606.462
510.898	20.333	1649.373	1606.337
511.912	20.354	1647.161	1604.182
512.927	20.139	1645.326	1600.208
513.941	20.016	1643.891	1597.483
514.956	20.013	1642.184	1595.599
515.971	19.794	1640.815	1592.057
516.985	19.767	1641.062	1591.855
518.000	19.966	1640.167	1592.633
519.014	20.266	1638.570	1593.662
520.029	20.462	1637.593	1594.334
521.043	20.337	1636.031	1591.468
522.058	20.274	1635.628	1590.305
523.073	20.423	1634.084	1589.984
524.087	20.726	1633.906	1592.406
525.102	20.605	1631.902	1589.155
526.116	20.406	1629.208	1584.514
527.131	20.278	1629.070	1583.018
528.146	20.712	1628.712	1586.458
529.160	20.761	1627.215	1585.260
530.175	20.561	1626.461	1582.507
531.189	20.813	1625.723	1583.903
532.204	20.734	1624.214	1581.523
533.219	20.589	1621.615	1577.482
534.233	20.245	1621.033	1573.584
535.248	20.287	1621.333	1574.077
536.262	20.639	1621.192	1576.960
537.277	20.549	1619.702	1574.494
538.292	20.332	1617.434	1570.131
539.306	20.332	1614.430	1567.027
540.321	20.214	1613.374	1564.748
541.335	20.187	1611.481	1562.482
542.350	20.335	1610.856	1563.023
543.365	20.666	1609.530	1564.544
544.379	20.654	1608.269	1563.024
545.394	20.604	1607.576	1561.708
546.408	20.401	1605.432	1557.606
547.423	20.228	1603.987	1554.467
548.438	20.135	1603.195	1552.669
549.452	20.385	1602.477	1554.040
550.467	20.533	1600.837	1553.596
551.481	20.617	1600.081	1553.426
552.496	20.635	1599.976	1553.304
553.511	20.901	1598.861	1554.423
554.525	20.864	1597.806	1552.880
555.540	20.877	1597.467	1552.474
556.554	20.944	1596.061	1551.527
557.569	20.728	1594.855	1548.231
558.583	20.684	1592.870	1545.727
559.598	20.742	1592.080	1545.295
560.613	20.611	1591.128	1543.019
561.627	20.817	1589.030	1542.632
562.642	20.865	1588.003	1541.883
563.656	21.022	1587.242	1542.349
564.671	21.035	1586.100	1541.169
565.686	20.968	1584.162	1538.509
566.700	20.831	1582.998	1535.979
567.715	20.619	1581.319	1532.295
568.729	20.418	1579.042	1528.121
569.744	20.147	1577.687	1524.238
570.759	20.186	1576.214	1522.977
571.773	20.527	1575.338	1524.950
572.788	20.680	1574.182	1524.998
573.802	20.823	1572.860	1524.794
574.817	20.968	1572.625	1525.661
575.832	21.016	1571.949	1525.248
576.846	21.076	1570.216	1523.907
577.861	20.860	1569.524	1521.155
578.875	20.893	1569.004	1520.756
579.890	21.305	1567.550	1522.778
580.905	21.232	1566.354	1520.796
581.919	21.361	1566.034	1521.432
582.934	21.471	1564.802	1521.012
583.948	21.339	1564.126	1519.022
584.963	21.304	1562.289	1516.749
585.978	21.041	1560.613	1512.648
586.992	21.144	1560.331	1513.090
588.007	21.340	1559.161	1513.484
589.021	20.785	1556.472	1505.865
590.036	20.310	1555.522	1500.643
591.051	20.476	1555.255	1501.647
592.065	20.661	1554.644	1502.484
593.080	21.111	1552.427	1504.059
594.094	21.115	1550.438	1501.988
595.109	20.770	1548.474	1496.928
596.123	20.645	1547.453	1494.681
597.138	20.908	1547.126	1496.457
598.153	21.061	1546.252	1496.754
599.167	20.996	1544.748	1494.556
600.182	21.130	1544.213	1495.015
601.196	21.250	1542.717	1494.416
602.211	21.127	1541.507	1492.011
603.226	21.309	1540.778	1492.684
604.240	21.506	1538.878	1492.356
605.255	21.710	1538.089	1493.159
606.269	21.450	1537.965	1490.636
607.284	21.315	1536.601	1487.982
608.299	21.517	1534.479	1487.469
609.313	21.230	1533.001	1483.414
610.328	21.294	1532.182	1482.990
611.342	21.392	1531.137	1482.631
612.357	21.575	1530.620	1483.511
613.372	21.619	1529.360	1482.490
614.386	21.492	1528.586	1480.487
615.401	21.273	1528.126	1478.001
616.415	21.538	1527.396	1479.368
617.430	21.504	1526.463	1477.995
618.445	21.645	1525.263	1477.852
619.459	21.494	1522.841	1474.051
620.474	21.107	1521.468	1469.273
621.488	20.613	1519.532	1463.047
622.503	20.255	1518.492	1458.845
623.518	20.836	1518.100	1463.202
624.532	21.415	1516.688	1466.548
625.547	21.527	1516.733	1467.365
626.561	21.704	1516.397	1468.356
627.576	21.859	1514.769	1467.908
628.591	21.166	1512.309	1459.528
629.605	21.077	1510.305	1456.667
630.620	20.923	1508.714	1453.673
631.634	20.430	1508.088	1448.759
632.649	20.541	1507.493	1448.946
633.663	21.020	1506.789	1452.101
634.678	21.467	1505.653	1454.570
635.693	21.772	1504.204	1455.549
636.707	21.910	1503.349	1455.695
637.722	21.997	1503.207	1456.112
638.736	22.087	1502.063	1455.572
639.751	22.056	1500.014	1453.161
640.766	21.948	1499.357	1451.453
641.780	21.809	1497.834	1448.648
642.795	21.844	1497.080	1448.038
643.809	21.833	1496.516	1447.228
644.824	21.770	1495.369	1445.421
645.839	21.859	1494.326	1444.974
646.853	21.929	1493.462	1444.548
647.868	21.861	1491.228	1441.650
648.882	21.728	1490.629	1439.800
649.897	21.857	1488.697	1438.826
650.912	21.789	1487.277	1436.725
651.926	21.773	1485.986	1435.175
652.941	21.386	1484.330	1430.216
653.955	20.948	1482.497	1424.681
654.970	20.647	1480.628	1420.250
655.985	20.571	1478.923	1417.823
656.999	20.763	1477.888	1418.233
658.014	20.922	1477.681	1419.161
659.028	21.184	1477.452	1420.918
660.043	21.294	1477.175	1421.380
661.058	21.600	1475.158	1421.768
662.072	21.667	1474.652	1421.658
663.087	21.758	1473.410	1421.033
664.101	21.714	1472.795	1419.910
665.116	21.883	1472.471	1420.805
666.131	21.879	1471.167	1419.341
667.145	22.059	1469.671	1419.190
668.160	22.092	1469.341	1418.966
669.174	22.320	1467.709	1419.076
670.189	22.238	1466.534	1417.099
671.204	21.784	1465.606	1412.360
672.218	21.803	1464.635	1411.410
673.233	22.165	1464.023	1413.578
674.247	22.283	1463.136	1413.501
675.262	22.345	1461.929	1412.665
676.276	22.385	1460.801	1411.730
677.291	22.112	1460.144	1408.727
678.306	21.875	1458.602	1405.164
679.320	21.914	1457.012	1403.780
680.335	22.134	1456.948	1405.317
681.349	22.206	1456.309	1405.109
682.364	22.258	1455.035	1404.127
683.379	22.115	1453.383	1401.224
684.393	22.085	1452.055	1399.537
685.408	22.237	1450.718	1399.293
686.422	22.126	1450.263	1397.799
687.437	22.264	1450.005	1398.490
688.452	22.340	1449.034	1397.990
689.466	22.316	1446.675	1395.358
690.481	22.196	1444.886	1392.507
691.495	21.714	1443.676	1387.341
692.510	21.186	1441.450	1380.839
693.525	20.764	1439.566	1375.515
694.539	21.084	1439.824	1378.141
695.554	21.652	1441.052	1383.666
696.568	22.362	1439.765	1387.893
697.583	22.344	1438.977	1386.827
698.598	22.434	1438.409	1386.823
699.612	22.608	1436.794	1386.474
700.627	22.466	1435.884	1384.312
701.641	22.452	1434.965	1383.151
702.656	22.476	1433.528	1381.787
703.671	22.576	1433.844	1382.710
704.685	22.621	1432.732	1381.830
705.700	22.626	1430.411	1379.464
706.714	22.329	1428.869	1375.478
707.729	22.131	1427.090	1372.052
708.744	21.971	1426.208	1369.781
709.758	21.944	1424.581	1367.840
710.773	21.425	1423.398	1362.477
711.787	21.382	1421.557	1360.218
712.802	21.517	1420.720	1360.308
713.816	21.803	1420.016	1361.709
714.831	22.069	1420.282	1363.875
715.846	22.158	1418.845	1363.025
716.860	22.396	1417.702	1363.619
717.875	22.475	1416.475	1362.892
718.889	22.345	1415.499	1360.778
719.904	22.439	1414.667	1360.545
720.919	22.619	1413.479	1360.634
721.933	22.657	1412.723	1360.041
722.948	22.657	1412.587	1359.748
723.962	22.601	1411.606	1358.207
724.977	22.808	1410.161	1358.250
725.992	22.749	1409.334	1356.840
727.006	22.623	1407.678	1354.106
728.021	22.695	1406.374	1353.247
729.035	22.736	1405.247	1352.314
730.050	22.785	1404.466	1351.781
731.065	22.744	1402.940	1349.838
732.079	22.872	1401.869	1349.628
733.094	22.698	1400.983	1347.272
734.108	22.506	1400.161	1344.847
735.123	22.800	1397.785	1344.656
736.138	22.710	1396.514	1342.588
737.152	22.734	1396.340	1342.442
738.167	22.813	1395.766	1342.332
739.181	22.928	1394.723	1342.052
740.196	22.849	1394.127	1340.714
741.211	22.825	1393.908	1340.154
742.225	22.749	1392.050	1337.631
743.240	22.840	1390.577	1336.745
744.254	22.758	1389.303	1334.744
745.269	22.787	1388.549	1334.080
746.284	22.645	1387.505	1331.835
747.298	22.333	1386.058	1327.924
748.313	22.010	1384.222	1323.553
749.327	21.647	1383.102	1319.577
750.342	21.100	1381.410	1313.669
751.356	20.946	1379.550	1310.579
752.371	21.222	1378.988	1311.971
753.386	22.138	1378.930	1318.669
754.400	22.569	1379.624	1322.432
755.415	22.822	1378.611	1323.208
756.429	22.948	1377.112	1322.559
757.444	22.919	1375.877	1320.993
758.459	23.096	1374.804	1321.136
759.473	23.081	1374.332	1320.409
760.488	23.114	1372.971	1319.189
761.502	22.977	1372.089	1317.161
762.517	22.777	1370.959	1314.420
763.532	22.622	1369.113	1311.337
764.546	22.271	1367.442	1306.957
765.561	21.969	1365.614	1302.800
766.575	21.429	1363.966	1297.045
767.590	21.484	1362.903	1296.291
768.605	21.947	1363.096	1299.764
769.619	22.247	1362.665	1301.430
770.634	22.658	1361.512	1303.229
771.648	22.875	1361.592	1304.763
772.663	23.139	1360.859	1305.863
773.678	23.021	1359.930	1303.941
774.692	23.012	1359.453	1303.260
775.707	23.071	1358.987	1303.092
776.721	23.131	1357.967	1302.404
777.736	23.250	1356.054	1301.290
778.751	23.406	1355.029	1301.308
779.765	23.168	1354.590	1298.968
780.780	23.077	1353.734	1297.327
781.794	23.051	1352.733	1296.016
782.809	22.907	1351.423	1293.545
783.824	22.767	1350.277	1291.267
784.838	22.292	1347.771	1285.228
785.853	21.666	1346.132	1278.914
786.867	21.855	1345.543	1279.590
787.882	22.253	1345.280	1282.109
788.897	22.457	1345.040	1283.218
789.911	22.442	1344.519	1282.460
790.926	22.779	1343.202	1283.513
791.940	22.890	1342.452	1283.453
792.955	22.975	1341.165	1282.690
793.969	23.114	1339.750	1282.196
794.984	23.031	1339.287	1280.991
795.999	23.111	1338.729	1280.887
797.013	23.202	1337.046	1279.789
798.028	23.267	1335.718	1278.833
799.042	23.234	1335.361	1278.103
800.057	23.416	1334.375	1278.326
801.072	23.259	1332.882	1275.601
802.086	23.332	1331.274	1274.437
803.101	23.338	1330.696	1273.774
804.115	23.402	1329.890	1273.317
805.130	23.234	1328.632	1270.748
806.145	23.303	1327.147	1269.673
807.159	23.441	1325.569	1269.000
808.174	23.156	1324.071	1265.366
809.188	22.893	1323.055	1262.357
810.203	22.775	1320.904	1259.308
811.218	22.328	1319.702	1254.806
812.232	22.052	1317.492	1250.580
813.247	21.861	1316.311	1247.946
814.261	22.212	1317.135	1251.088
815.276	22.635	1316.926	1253.760
816.291	22.952	1316.159	1255.142
817.305	23.211	1315.247	1255.971
818.320	23.230	1314.004	1254.770
819.334	23.312	1313.152	1254.389
820.349	23.220	1311.301	1251.822
821.364	23.374	1310.386	1251.888
822.378	23.339	1308.823	1249.994
823.393	23.326	1307.761	1248.740
824.407	23.220	1306.783	1246.906
825.422	23.231	1306.339	1246.413
826.437	23.245	1304.625	1244.724
827.451	23.112	1301.896	1241.033
828.466	22.259	1299.527	1232.626
829.480	21.966	1298.045	1229.008
830.495	22.343	1296.846	1230.379
831.509	22.659	1297.096	1232.685
832.524	23.006	1296.632	1234.533
833.539	23.245	1295.795	1235.264
834.553	23.311	1294.939	1234.762
835.568	23.366	1294.168	1234.267
836.582	23.449	1292.952	1233.537
837.597	23.489	1291.068	1231.876
838.612	23.393	1289.489	1229.550
839.626	23.335	1287.448	1227.057
840.641	23.037	1287.247	1224.640
841.655	22.489	1286.275	1219.757
842.670	22.000	1284.622	1214.645
843.685	21.567	1283.461	1210.391
844.699	22.245	1283.066	1214.580
845.714	22.732	1281.953	1216.759
846.728	22.901	1281.835	1217.676
847.743	23.133	1280.911	1218.260
848.758	23.285	1280.030	1218.327
849.772	23.430	1278.161	1217.397
850.787	23.467	1276.673	1216.091
851.801	23.393	1276.267	1215.052
852.816	23.347	1274.776	1213.169
853.831	23.305	1272.960	1211.008
854.845	23.225	1271.427	1208.857
855.860	23.093	1270.059	1206.501
856.874	22.791	1268.484	1202.792
857.889	22.611	1267.030	1200.038
858.904	22.061	1265.111	1194.323
859.918	21.841	1262.759	1190.456
860.933	21.521	1261.372	1186.828
861.947	22.010	1261.896	1190.512
862.962	22.532	1261.303	1193.361
863.977	22.560	1260.138	1192.310
864.991	22.842	1259.890	1193.851
866.006	22.888	1260.279	1194.387
867.020	23.216	1259.123	1195.373
868.035	23.376	1257.365	1194.649
869.049	23.334	1257.076	1193.948
870.064	23.366	1256.664	1193.628
871.079	23.353	1255.274	1192.073
872.093	23.382	1254.753	1191.633
873.108	23.297	1253.106	1189.357
874.122	22.995	1251.639	1185.785
875.137	22.566	1250.641	1181.802
876.152	22.413	1249.122	1179.195
877.166	22.451	1247.833	1178.097
878.181	22.990	1246.709	1180.516
879.195	23.131	1246.689	1181.302
880.210	23.268	1246.285	1181.697
881.225	23.507	1245.253	1182.174
882.239	23.344	1244.472	1180.201
883.254	23.259	1243.470	1178.542
884.268	23.474	1242.537	1178.952
885.283	23.415	1241.204	1177.156
886.298	23.510	1239.540	1176.069
887.312	23.571	1238.336	1175.191
888.327	23.262	1237.873	1172.555
889.341	23.376	1236.570	1171.935
890.356	23.336	1235.945	1170.941
891.371	23.295	1235.241	1169.859
892.385	23.179	1234.067	1167.838
893.400	23.181	1232.878	1166.590
894.414	22.830	1231.595	1162.908
895.429	22.678	1228.734	1159.063
896.444	22.016	1225.427	1151.444
897.458	21.416	1225.206	1147.142
898.473	21.818	1225.510	1149.941
899.487	22.433	1225.565	1153.907
900.502	22.877	1224.633	1155.815
901.517	23.178	1224.137	1157.188
902.531	23.272	1223.872	1157.413
903.546	23.277	1222.800	1156.296
904.560	23.353	1222.143	1156.032
905.575	23.414	1221.362	1155.560
906.589	23.424	1220.372	1154.544
907.604	23.229	1219.140	1151.970
