DTS Sentinel unit serial number:	SN409020Multiplexer serial number:	ORYXHardware model number:	OX4-SRSoftware version number:	ORYX F/W v3.00 Oryx Data Collector v3.7.2.0data status	okinstallation	HaddamTimeLapsedifferential loss correction	single-endedforward channel	channel 3reverse channel	N/Adate	2011/06/21time	22:31:17forward acquisition time	30.00reverse acquisition time	0.00gamma	498.7831k internal	0.1755k external	0.1755temperature offset calibration	1.0074default loss term (dB/km)	0.3790temperature slope calibration	1.3530multiplexer offset coefficient	1.0000multiplexer slope coefficient	1.0000fibre end	0.00T internal ref (°C)	24.03T ext. ref 1 (°C)	18.75T ext. ref 2 (°C)	0.05length (m)	temperature (°C)	Stokes	anti-Stokes-747.200	800.000	0.065	-0.265
-746.185	53.791	-0.237	0.301
-745.171	-148.959	-0.771	0.081
-744.156	438.619	-0.245	0.711
-743.142	-58.393	0.357	-0.205
-742.127	-103.551	-0.398	0.123
-741.112	-79.765	0.093	-0.041
-740.098	613.813	0.061	0.204
-739.083	-48.632	0.150	-0.095
-738.069	800.000	-0.044	0.245
-737.054	800.000	0.094	0.453
-736.039	232.009	0.117	0.255
-735.025	54.863	0.117	-0.150
-734.010	-200.000	0.101	-0.782
-732.996	800.000	0.081	-0.392
-731.981	216.328	0.161	-0.340
-730.966	-62.793	-0.427	-0.234
-729.952	51.103	0.190	0.239
-728.937	800.000	-0.108	-0.460
-727.923	-66.502	-0.056	-0.029
-726.908	-54.827	-0.145	-0.086
-725.894	-200.000	0.022	-0.360
-724.879	-58.304	-0.399	0.229
-723.864	25.552	-0.081	-0.089
-722.850	92.016	-0.194	-0.290
-721.835	-200.000	0.029	-0.676
-720.821	-158.017	0.494	-0.038
-719.806	-178.360	-0.474	-0.014
-718.791	14.106	0.104	0.107
-717.777	-75.908	-0.190	-0.088
-716.762	473.114	-0.030	-0.090
-715.748	-6.517	0.130	-0.117
-714.733	-19.849	-0.252	-0.205
-713.718	799.820	0.081	-0.299
-712.704	-200.000	0.006	0.092
-711.689	800.000	0.149	0.750
-710.675	-164.919	0.564	-0.033
-709.660	49.092	0.107	0.134
-708.645	-139.068	0.423	0.060
-707.631	-33.346	-0.181	0.133
-706.616	155.841	-0.155	-0.283
-705.602	-3.878	0.219	0.201
-704.587	-197.563	-0.129	0.001
-703.572	63.676	-0.288	-0.383
-702.558	-200.000	-0.055	-0.452
-701.543	73.939	-0.046	-0.064
-700.529	-170.205	-0.491	0.023
-699.514	78.809	-0.360	-0.511
-698.499	173.207	-0.199	-0.381
-697.485	-172.580	-0.228	0.009
-696.470	-133.876	0.254	-0.041
-695.456	154.938	-0.261	-0.476
-694.441	-122.824	0.264	-0.056
-693.426	109.032	-0.271	-0.430
-692.412	-200.000	0.012	-0.097
-691.397	-200.000	0.013	0.372
-690.383	-124.298	0.420	-0.086
-689.368	-84.101	0.377	0.158
-688.354	-87.687	0.487	0.193
-687.339	-200.000	-0.058	-0.366
-686.324	-60.768	-0.158	-0.088
-685.310	48.417	-0.287	0.356
-684.295	-30.565	0.489	0.365
-683.281	147.127	0.168	-0.300
-682.266	62.619	-0.214	-0.283
-681.251	216.800	-0.253	-0.535
-680.237	-162.545	0.425	-0.027
-679.222	-200.000	0.013	0.170
-678.208	-77.456	-0.404	0.184
-677.193	-200.000	0.010	0.317
-676.178	70.866	-0.130	-0.178
-675.164	-146.970	-0.815	0.091
-674.149	-200.000	0.026	-0.263
-673.135	89.082	0.251	0.370
-672.120	-51.964	0.021	-0.013
-671.105	-24.584	0.173	0.136
-670.091	-137.679	0.541	0.080
-669.076	62.203	0.079	0.104
-668.062	72.778	0.025	0.035
-667.047	187.314	-0.029	0.058
-666.032	783.963	0.073	-0.267
-665.018	-115.399	-0.423	-0.105
-664.003	-125.448	0.166	-0.033
-662.989	9.852	0.064	-0.064
-661.974	-39.628	-0.420	0.290
-660.959	-62.264	0.220	0.121
-659.945	-133.643	0.546	0.089
-658.930	43.581	-0.358	-0.432
-657.916	143.222	-0.366	-0.644
-656.901	800.000	0.134	0.567
-655.886	-55.351	-0.469	0.277
-654.872	-32.781	-0.251	0.184
-653.857	-93.583	0.474	0.172
-652.843	-200.000	-0.024	-0.381
-651.828	800.000	-0.097	-0.538
-650.814	-165.320	-0.391	0.022
-649.799	-191.147	-0.733	0.010
-648.784	800.000	0.024	0.108
-647.770	141.033	0.328	-0.574
-646.755	451.926	0.174	-0.509
-645.741	-11.417	-0.604	-0.524
-644.726	-102.071	0.094	-0.030
-643.711	800.000	-0.156	-0.613
-642.697	54.858	-0.252	-0.321
-641.682	228.034	0.066	0.142
-640.668	16.778	0.257	-0.268
-639.653	229.145	0.051	-0.110
-638.638	-17.960	-0.445	0.367
-637.624	-126.765	-0.539	-0.104
-636.609	-34.950	0.153	-0.110
-635.595	-200.000	0.012	-0.154
-634.580	-53.390	-0.199	-0.120
-633.565	-55.474	-0.080	-0.047
-632.551	7.228	-0.071	0.069
-631.536	-33.610	0.312	-0.227
-630.522	-33.693	-0.111	-0.081
-629.507	-200.000	0.066	-0.437
-628.492	39.469	0.120	0.142
-627.478	-200.000	-0.002	-0.437
-626.463	800.000	-0.025	-0.107
-625.449	10.734	-0.189	-0.190
-624.434	800.000	-0.090	-0.369
-623.419	-69.781	0.369	0.185
-622.405	57.113	-0.310	0.400
-621.390	-54.989	0.061	-0.036
-620.376	-200.000	0.037	0.221
-619.361	-109.511	0.096	-0.027
-618.346	-89.008	-0.094	-0.037
-617.332	750.944	-0.178	-0.639
-616.317	35.376	0.177	-0.205
-615.303	-106.975	-0.241	-0.070
-614.288	-43.793	-0.349	0.231
-613.273	-85.963	-0.307	-0.124
-612.259	-67.607	0.405	-0.209
-611.244	-152.596	-0.425	0.040
-610.230	14.315	0.270	0.278
-609.215	-71.522	-0.212	-0.104
-608.201	102.743	-0.138	0.213
-607.186	-33.906	0.187	0.135
-606.171	-16.278	-0.394	0.330
-605.157	-113.751	-0.289	-0.074
-604.142	-90.474	-0.388	0.147
-603.128	28.615	0.233	-0.259
-602.113	201.487	0.142	-0.289
-601.098	9.372	-0.176	0.175
-600.084	-98.024	-0.301	0.102
-599.069	-122.381	-0.354	-0.075
-598.055	-99.103	-0.038	0.013
-597.040	595.719	0.076	0.248
-596.025	-93.367	0.208	-0.075
-595.011	-88.782	0.089	-0.035
-593.996	-118.798	0.330	0.076
-592.982	376.807	0.099	-0.267
-591.967	800.000	0.138	-0.505
-590.952	26.558	-0.107	0.118
-589.938	-200.000	0.065	0.469
-588.923	-95.196	0.316	0.111
-587.909	-200.000	0.014	0.291
-586.894	-141.755	0.342	-0.045
-585.879	78.842	0.243	0.342
-584.865	127.391	-0.141	-0.236
-583.850	-192.166	-0.626	0.008
-582.836	800.000	0.065	-0.328
-581.821	-104.581	0.369	0.111
-580.806	-96.240	-0.163	0.057
-579.792	92.658	-0.160	0.238
-578.777	-96.990	-0.295	-0.101
-577.763	-10.911	-0.213	0.185
-576.748	-70.780	-0.102	0.051
-575.733	123.407	-0.088	-0.146
-574.719	-116.710	-0.249	-0.060
-573.704	-154.788	-0.350	0.030
-572.690	800.000	-0.077	0.359
-571.675	-200.000	0.028	-0.280
-570.661	81.586	0.028	-0.040
-569.646	-200.000	0.022	-0.284
-568.631	-109.770	0.098	0.027
-567.617	-19.512	0.387	0.315
-566.602	45.001	-0.318	0.385
-565.588	800.000	0.055	0.296
-564.573	40.124	0.078	0.093
-563.558	-200.000	0.005	-0.473
-562.544	-2.198	0.096	-0.089
-561.529	-43.491	-0.167	-0.111
-560.515	-68.969	-0.254	0.128
-559.500	-57.745	-0.255	-0.146
-558.485	133.147	-0.165	0.282
-557.471	-147.833	0.424	0.046
-556.456	-0.875	0.379	-0.353
-555.442	720.010	0.054	-0.189
-554.427	-92.604	-0.527	0.193
-553.412	-104.778	-0.268	0.080
-552.398	31.124	0.351	0.396
-551.383	61.680	-0.201	-0.263
-550.369	140.440	-0.180	0.313
-549.354	-200.000	0.010	0.099
-548.339	282.814	-0.028	-0.065
-547.325	-12.967	0.179	0.153
-546.310	78.852	0.332	0.468
-545.296	-200.000	-0.000	0.174
-544.281	-158.706	-0.268	0.020
-543.266	36.303	-0.145	-0.168
-542.252	-98.370	0.285	0.095
-541.237	800.000	-0.041	0.159
-540.223	800.000	0.025	0.098
-539.208	-4.537	-0.163	0.148
-538.193	-108.385	-0.385	-0.108
-537.179	647.136	0.063	-0.211
-536.164	-14.734	0.325	-0.274
-535.150	-135.802	0.147	-0.023
-534.135	-107.474	-0.354	-0.101
-533.121	105.736	-0.119	-0.185
-532.106	-168.489	-0.535	-0.026
-531.091	19.037	0.367	0.387
-530.077	-154.339	-0.378	0.033
-529.062	-200.000	0.006	0.203
-528.048	800.000	0.092	0.510
-527.033	88.240	-0.096	0.140
-526.018	-74.011	-0.359	-0.170
-525.004	-78.497	-0.361	-0.162
-523.989	-101.805	-0.202	-0.064
-522.975	-185.818	0.272	0.005
-521.960	50.771	-0.208	0.259
-520.945	-200.000	0.015	0.411
-519.931	-200.000	0.011	0.280
-518.916	-110.790	0.347	0.093
-517.902	138.165	-0.080	-0.138
-516.887	-30.701	-0.208	-0.154
-515.872	800.000	0.027	-0.152
-514.858	800.000	0.066	-0.320
-513.843	-89.218	0.458	-0.177
-512.829	800.000	-0.071	-0.312
-511.814	-156.279	-0.274	0.022
-510.799	-105.169	0.201	0.060
-509.785	547.214	0.093	-0.293
-508.770	349.711	-0.055	0.143
-507.756	-19.533	0.212	0.172
-506.741	99.195	-0.153	0.233
-505.726	-182.887	-0.333	-0.008
-504.712	-170.887	-0.208	0.009
-503.697	-115.323	-0.376	0.093
-502.683	-97.154	0.279	0.095
-501.668	-200.000	-0.029	0.627
-500.653	-112.839	-0.091	0.024
-499.639	-80.044	0.209	0.091
-498.624	1.375	-0.146	0.137
-497.610	-33.547	0.365	0.264
-496.595	-119.937	0.362	-0.081
-495.581	-96.418	-0.466	-0.161
-494.566	21.927	-0.092	-0.098
-493.551	-200.000	-0.026	0.390
-492.537	800.000	-0.050	-0.254
-491.522	-150.218	0.370	0.037
-490.508	-101.282	0.375	0.120
-489.493	-200.000	0.004	0.074
-488.478	-167.813	-0.300	0.015
-487.464	-104.083	-0.401	-0.122
-486.449	239.079	-0.080	0.175
-485.435	-172.130	-0.459	-0.019
-484.420	87.986	-0.114	0.166
-483.405	-135.633	0.570	0.088
-482.391	132.869	-0.098	0.166
-481.376	43.230	0.204	-0.245
-480.362	-133.056	0.305	-0.050
-479.347	323.687	0.087	-0.219
-478.332	29.359	-0.386	-0.430
-477.318	701.012	-0.094	0.327
-476.303	57.666	0.309	-0.396
-475.289	775.822	-0.111	0.399
-474.274	-10.185	0.112	0.097
-473.259	101.908	-0.069	-0.106
-472.245	-60.177	-0.116	0.064
-471.230	-126.915	-0.290	0.056
-470.216	132.718	-0.191	-0.323
-469.201	343.572	0.085	0.221
-468.186	114.704	0.205	-0.328
-467.172	-63.774	0.260	-0.139
-466.157	-200.000	-0.017	0.178
-465.143	-92.561	0.573	0.210
-464.128	-64.700	-0.371	0.197
-463.113	-87.815	0.292	0.115
-462.099	-73.960	-0.214	-0.102
-461.084	32.479	0.151	-0.171
-460.070	-200.000	0.014	-0.283
-459.055	-9.010	0.393	0.344
-458.040	233.938	0.039	0.085
-457.026	-69.893	-0.239	0.119
-456.011	-75.379	0.101	0.047
-454.997	-92.927	0.293	-0.107
-453.982	800.000	0.101	-0.391
-452.968	-122.542	0.177	0.037
-451.953	-200.000	-0.006	-0.058
-450.938	800.000	0.075	0.322
-449.924	800.000	0.109	-0.515
-448.909	521.501	-0.029	0.091
-447.895	-35.258	0.292	-0.207
-446.880	49.852	0.161	-0.199
-445.865	2.445	0.466	0.442
-444.851	-53.090	0.269	0.161
-443.836	757.187	0.082	0.293
-442.822	52.124	0.426	0.532
-441.807	-115.946	0.393	0.095
-440.792	17.027	0.076	0.079
-439.778	59.432	-0.011	-0.014
-438.763	800.000	0.092	0.394
-437.749	800.000	-0.027	-0.105
-436.734	-7.473	-0.080	0.071
-435.719	-8.678	-0.030	-0.026
-434.705	709.229	-0.133	0.463
-433.690	337.805	-0.144	0.368
-432.676	395.842	0.144	0.396
-431.661	-132.027	0.298	-0.050
-430.646	-183.724	-0.186	-0.004
-429.632	258.784	-0.116	0.262
-428.617	-70.707	-0.198	0.098
-427.603	800.000	0.118	0.485
-426.588	-105.243	-0.356	-0.106
-425.573	800.000	-0.060	-0.241
-424.559	91.908	-0.177	-0.261
-423.544	-21.147	-0.516	-0.412
-422.530	-200.000	0.011	-0.228
-421.515	96.182	-0.199	0.298
-420.500	-104.120	-0.249	0.075
-419.486	521.322	-0.059	-0.182
-418.471	-94.668	0.319	-0.113
-417.457	162.553	0.151	0.278
-416.442	-184.872	-0.204	0.004
-415.428	263.345	-0.015	-0.035
-414.413	37.437	-0.192	-0.223
-413.398	47.227	0.276	-0.337
-412.384	-113.730	-0.365	0.092
-411.369	800.000	0.031	0.114
-410.355	-73.073	-0.143	-0.068
-409.340	4.901	-0.340	0.326
-408.325	-143.544	0.182	0.022
-407.311	105.971	0.026	0.040
-406.296	-119.363	0.550	0.124
-405.282	264.102	0.285	-0.651
-404.267	51.202	0.192	0.238
-403.252	-51.362	-0.323	0.197
-402.238	-71.052	-0.317	-0.155
-401.223	-108.983	0.860	0.238
-400.209	103.953	-0.036	0.056
-399.194	-154.089	-0.187	-0.016
-398.179	63.579	-0.314	0.413
-397.165	-135.059	-0.300	-0.047
-396.150	-200.000	0.007	-0.200
-395.136	110.210	0.214	0.337
-394.121	800.000	0.033	-0.169
-393.106	-45.003	0.448	0.291
-392.092	-76.862	0.464	0.211
-391.077	800.000	0.059	0.309
-390.063	-51.274	0.158	-0.097
-389.048	-111.063	-0.126	0.034
-388.033	800.000	0.045	0.173
-387.019	-67.124	0.423	0.217
-386.004	24.430	0.221	-0.238
-384.990	-200.000	0.017	-0.216
-383.975	165.004	0.284	-0.526
-382.960	800.000	-0.038	0.146
-381.946	254.834	0.142	-0.320
-380.931	-200.000	0.027	-0.180
-379.917	40.960	-0.300	0.354
-378.902	9.567	-0.356	0.352
-377.888	-200.000	-0.255	-0.001
-376.873	-57.514	-0.339	0.193
-375.858	134.603	-0.222	-0.376
-374.844	-83.180	-0.241	0.101
-373.829	-164.462	0.456	0.027
-372.815	-119.232	0.110	-0.025
-371.800	311.819	0.073	0.181
-370.785	800.000	0.045	-0.194
-369.771	-65.433	-0.052	-0.027
-368.756	-5.432	-0.194	0.173
-367.742	-51.870	-0.121	0.073
-366.727	4.854	0.155	-0.149
-365.712	-105.019	0.323	-0.096
-364.698	-4.501	0.205	0.185
-363.683	-155.973	0.540	0.044
-362.669	-134.703	-0.145	0.023
-361.654	-131.536	-0.165	0.028
-360.639	51.723	0.242	-0.301
-359.625	23.455	0.171	0.184
-358.610	306.462	-0.292	0.713
-357.596	-190.037	0.643	-0.009
-356.581	-93.801	0.330	-0.118
-355.566	-127.816	-0.641	0.119
-354.552	95.543	-0.136	0.203
-353.537	-200.000	-0.023	0.511
-352.523	-97.679	0.283	-0.095
-351.508	-200.000	0.029	0.441
-350.493	129.462	0.274	-0.458
-349.479	-144.057	0.089	0.011
-348.464	557.739	-0.167	0.530
-347.450	662.038	0.094	0.316
-346.435	-110.149	-0.299	-0.081
-345.420	-124.489	-0.243	0.049
-344.406	-200.000	-0.024	0.215
-343.391	-24.833	0.217	0.168
-342.377	26.523	-0.128	-0.139
-341.362	311.784	0.028	-0.068
-340.348	-200.000	-0.011	-0.152
-339.333	110.624	-0.271	-0.427
-338.318	55.861	0.150	-0.190
-337.304	2.019	-0.348	-0.328
-336.289	-200.000	-0.010	0.221
-335.275	-100.399	0.170	-0.055
-334.260	-51.863	0.262	-0.158
-333.245	-132.980	0.257	0.042
-332.231	68.592	0.246	0.330
-331.216	313.638	-0.088	-0.216
-330.202	-101.104	0.224	0.071
-329.187	-40.474	-0.221	-0.149
-328.172	-4.144	-0.235	0.212
-327.158	800.000	-0.115	0.425
-326.143	109.278	-0.178	-0.278
-325.129	-107.339	-0.240	0.068
-324.114	-105.093	-0.420	0.124
-323.099	-23.384	0.088	-0.069
-322.085	-24.348	-0.290	-0.225
-321.070	-143.015	0.196	-0.025
-320.056	-157.166	0.139	0.011
-319.041	17.399	-0.202	-0.209
-318.026	-44.205	-0.564	-0.368
-317.012	366.450	0.156	-0.413
-315.997	190.788	0.056	-0.110
-314.983	-106.302	-0.644	0.187
-313.968	-16.984	-0.129	0.106
-312.953	-163.599	-0.468	0.028
-311.939	154.666	0.188	-0.338
-310.924	-200.000	-0.025	-0.226
-309.910	89.909	0.151	-0.220
-308.895	-94.275	-0.188	-0.067
-307.880	-199.180	-0.249	-0.002
-306.866	-26.499	0.313	0.238
-305.851	800.000	0.032	-0.123
-304.837	-200.000	-0.042	0.560
-303.822	800.000	-0.063	-0.362
-302.807	-43.423	-0.157	0.103
-301.793	-174.378	0.372	-0.014
-300.778	-89.927	0.346	-0.131
-299.764	96.068	-0.114	0.169
-298.749	-108.878	0.487	-0.135
-297.735	221.869	0.174	0.365
-296.720	0.900	0.171	-0.159
-295.705	-107.358	-0.159	-0.045
-294.691	-154.049	-0.330	-0.029
-293.676	-123.924	0.738	0.150
-292.662	-116.079	0.234	-0.056
-291.647	78.579	-0.451	-0.628
-290.632	-4.581	-0.173	-0.156
-289.618	456.609	0.145	-0.422
-288.603	57.921	-0.261	0.333
-287.589	28.386	0.345	0.380
-286.574	-11.793	-0.204	-0.174
-285.559	-57.019	-0.599	0.343
-284.545	-45.217	0.386	-0.249
-283.530	-144.437	0.480	0.057
-282.516	184.850	-0.152	-0.293
-281.501	-147.923	-0.180	-0.019
-280.486	-116.941	-0.721	0.170
-279.472	-200.000	-0.904	-0.002
-278.457	-64.314	0.304	0.160
-277.443	357.104	-0.123	0.320
-276.428	800.000	-0.114	-0.487
-275.413	-30.770	-0.041	0.030
-274.399	-131.874	0.359	-0.060
-273.384	-200.000	-0.010	-0.080
-272.370	48.899	0.175	0.213
-271.355	-144.711	-0.445	0.053
-270.340	-200.000	0.062	0.589
-269.326	81.287	-0.095	-0.134
-268.311	-60.647	0.100	0.055
-267.297	102.235	-0.409	0.623
-266.282	221.085	0.075	0.157
-265.267	800.000	0.107	0.442
-264.253	28.110	0.196	-0.215
-263.238	368.385	-0.121	0.321
-262.224	475.801	0.094	-0.279
-261.209	-109.706	-0.628	-0.171
-260.195	-144.850	0.168	-0.020
-259.180	-7.576	-0.512	0.450
-258.165	-168.210	-0.258	-0.013
-257.151	800.000	0.064	-0.231
-256.136	55.561	0.167	-0.211
-255.122	324.731	-0.119	-0.296
-254.107	-200.000	-0.036	0.305
-253.092	-21.863	0.048	0.038
-252.078	-200.000	-0.007	-0.103
-251.063	-81.023	-0.235	-0.101
-250.049	20.673	0.508	0.535
-249.034	-113.744	0.194	0.049
-248.019	342.208	0.242	-0.617
-247.005	-64.712	0.456	0.239
-245.990	-116.584	0.345	-0.082
-244.976	48.643	-0.080	0.097
-243.961	-164.054	0.232	-0.014
-242.946	124.458	0.040	-0.065
-241.932	294.421	-0.095	-0.227
-240.917	14.237	-0.118	-0.119
-239.903	335.784	0.184	-0.466
-238.888	-81.210	0.272	-0.116
-237.873	-37.315	-0.191	-0.132
-236.859	-86.074	-0.118	0.047
-235.844	-46.238	-0.372	-0.237
-234.830	695.187	-0.193	-0.662
-233.815	-200.000	0.074	-0.000
-232.800	-111.364	0.327	-0.086
-231.786	-200.000	-0.000	-0.162
-230.771	-10.798	0.191	-0.164
-229.757	177.652	-0.122	-0.231
-228.742	-112.353	0.473	0.122
-227.727	204.771	0.287	-0.580
-226.713	-111.567	0.336	-0.088
-225.698	800.000	0.010	0.047
-224.684	334.653	-0.052	0.130
-223.669	-200.000	-0.014	-0.098
-222.655	124.877	-0.195	0.320
-221.640	-27.849	0.433	0.325
-220.625	110.387	0.063	0.098
-219.611	-200.000	0.015	0.212
-218.596	-85.699	0.057	0.023
-217.582	-37.366	0.158	-0.109
-216.567	19.598	-0.119	-0.124
-215.552	-200.000	0.110	0.629
-214.538	-38.332	0.419	0.287
-213.523	-200.000	0.006	0.712
-212.509	30.278	-0.113	0.125
-211.494	-184.024	0.370	-0.008
-210.479	-138.321	0.226	0.032
-209.465	-110.084	0.246	-0.066
-208.450	-200.000	-0.010	-0.376
-207.436	602.676	0.059	-0.192
-206.421	199.086	-0.133	-0.265
-205.406	-118.480	-0.431	0.098
-204.392	5.267	0.283	0.271
-203.377	626.517	0.087	-0.288
-202.363	-27.085	0.098	-0.074
-201.348	-155.773	-0.457	0.037
-200.333	-82.968	0.200	0.083
-199.319	484.646	0.165	0.489
-198.304	375.582	-0.087	-0.231
-197.290	800.000	-0.113	-0.485
-196.275	-200.000	0.260	-0.001
-195.260	800.000	-0.036	-0.178
-194.246	25.586	0.357	-0.385
-193.231	174.384	-0.188	0.354
-192.217	138.269	0.199	-0.340
-191.202	-109.935	0.185	0.050
-190.187	203.457	-0.218	-0.438
-189.173	-167.289	0.221	0.011
-188.158	525.033	-0.171	-0.523
-187.144	-183.431	0.435	0.010
-186.129	-148.784	0.742	0.077
-185.114	-83.988	0.585	-0.240
-184.100	800.000	-0.042	-0.175
-183.085	29.581	0.147	-0.162
-182.071	-47.996	-0.234	0.146
-181.056	-155.942	-0.386	0.031
-180.042	73.562	0.234	0.319
-179.027	154.012	0.089	0.158
-178.012	-200.000	-0.047	0.473
-176.998	126.467	-0.205	0.337
-175.983	-120.260	-0.021	0.005
-174.969	274.379	-0.091	-0.209
-173.954	-200.000	0.058	-0.484
-172.939	-200.000	-0.077	0.478
-171.925	-70.166	0.509	0.249
-170.910	-110.791	0.372	-0.099
-169.896	-146.168	-0.274	-0.031
-168.881	-200.000	-0.004	-0.438
-167.866	800.000	-0.037	-0.146
-166.852	597.039	-0.134	-0.434
-165.837	-200.000	-0.001	0.097
-164.823	-200.000	-0.004	0.239
-163.808	137.141	0.177	-0.300
-162.793	82.671	0.212	-0.299
-161.779	-144.354	-0.085	0.010
-160.764	-45.757	0.240	-0.153
-159.750	438.142	-0.142	-0.404
-158.735	-200.000	-0.048	0.341
-157.720	-66.255	0.078	0.040
-156.706	800.000	0.044	0.202
-155.691	-86.037	-0.381	-0.152
-154.677	82.752	-0.316	-0.445
-153.662	399.008	0.156	-0.424
-152.647	-151.444	-0.196	-0.019
-151.633	156.203	-0.218	0.391
-150.618	-200.000	-0.028	0.449
-149.604	-34.394	-0.198	0.140
-148.589	-104.987	-0.376	-0.111
-147.574	25.498	-0.127	0.137
-146.560	-106.462	-0.227	0.065
-145.545	-50.325	-0.157	0.095
-144.531	-62.147	-0.122	0.066
-143.516	-157.916	-0.197	-0.015
-142.502	119.796	0.077	0.124
-141.487	-53.954	0.083	0.049
-140.472	48.818	-0.109	-0.133
-139.458	-35.696	0.299	0.209
-138.443	-126.198	-0.209	0.040
-137.429	-162.844	0.554	-0.034
-136.414	700.589	-0.051	0.175
-135.399	-91.327	0.461	-0.170
-134.385	800.000	-0.038	-0.143
-133.370	73.567	-0.172	-0.233
-132.356	662.977	0.101	0.340
-131.341	375.828	-0.040	0.107
-130.326	141.176	-0.261	0.448
-129.312	61.029	0.285	0.366
-128.297	-84.301	0.212	0.087
-127.283	349.320	0.207	-0.530
-126.268	471.899	-0.047	0.137
-125.253	-127.425	-0.293	-0.055
-124.239	59.364	0.137	0.174
-123.224	-94.945	-0.317	-0.110
-122.210	474.076	0.044	-0.129
-121.195	62.391	-0.298	-0.385
-120.180	-140.550	0.474	0.063
-119.166	26.634	-0.320	0.347
-118.151	-26.644	-0.113	-0.085
-117.137	345.233	0.151	0.384
-116.122	-86.751	0.350	-0.137
-115.107	-200.000	-0.010	0.185
-114.093	524.416	0.108	0.329
-113.078	215.928	0.089	0.183
-112.064	-200.000	-0.065	0.399
-111.049	215.058	0.139	0.285
-110.034	101.649	0.336	0.508
-109.020	800.000	0.023	0.095
-108.005	232.015	-0.057	-0.122
-106.991	290.867	0.152	-0.358
-105.976	-110.569	0.107	0.029
-104.962	336.925	-0.084	0.212
-103.947	-96.100	0.625	0.213
-102.932	-157.046	-0.403	-0.031
-101.918	-19.863	-0.487	0.388
-100.903	162.155	-0.268	0.487
-99.889	233.044	-0.035	0.075
-98.874	-200.000	-0.058	0.353
-97.859	-65.674	-0.380	0.196
-96.845	190.832	0.123	0.240
-95.830	-33.496	0.215	0.153
-94.816	65.787	-0.411	-0.538
-93.801	51.564	0.098	-0.121
-92.786	-200.000	-0.050	-0.730
-91.772	368.598	0.065	0.170
-90.757	-200.000	0.012	0.324
-89.743	-67.396	-0.429	-0.217
-88.728	-119.588	-0.138	-0.031
-87.713	-118.602	-0.321	-0.073
-86.699	800.000	0.022	0.109
-85.684	-22.384	0.123	-0.096
-84.670	-103.641	-0.264	-0.079
-83.655	49.663	-0.332	0.404
-82.640	97.440	0.131	-0.194
-81.626	662.030	0.104	0.348
-80.611	-61.521	0.189	0.102
-79.597	-200.000	0.001	0.174
-78.582	472.895	-0.080	-0.235
-77.567	141.606	-0.156	-0.267
-76.553	-94.559	0.238	0.083
-75.538	-26.147	0.175	0.132
-74.524	-200.000	-0.071	0.507
-73.509	-200.000	0.001	-0.575
-72.494	685.889	-0.061	-0.207
-71.480	-92.334	0.089	0.032
-70.465	-68.513	0.215	0.107
-69.451	48.894	-0.270	-0.327
-68.436	800.000	0.125	-0.673
-67.422	293.175	-0.005	0.011
-66.407	60.163	-0.266	0.340
-65.392	567.600	-0.137	-0.432
-64.378	41.575	-0.233	0.273
-63.363	-151.023	-0.222	0.021
-62.349	-169.207	-0.450	-0.021
-61.334	35.675	-2.190	-2.483
-60.319	17.367	1.058	1.084
-59.305	299.338	-3.149	-7.512
-58.290	47.880	4.022	4.849
-57.276	531.344	3.448	10.574
-56.261	-200.000	21.891	312.343
-55.246	363.522	1290.902	3361.777
-54.232	53.082	2849.628	3521.123
-53.217	52.348	2668.645	3286.008
-52.203	33.672	2398.489	2690.236
-51.188	29.378	2063.329	2261.429
-50.173	25.857	1947.886	2093.767
-49.159	24.777	1936.759	2069.177
-48.144	24.316	1932.704	2059.411
-47.130	24.266	1930.459	2056.360
-46.115	24.387	1928.551	2055.643
-45.100	24.198	1928.682	2053.507
-44.086	24.338	1926.791	2053.038
-43.071	24.286	1924.653	2050.075
-42.057	24.272	1923.440	2048.537
-41.042	24.270	1921.612	2046.493
-40.027	24.265	1920.935	2045.633
-39.013	24.329	1918.490	2043.688
-37.998	24.286	1916.669	2041.170
-36.984	24.166	1916.129	2039.125
-35.969	24.182	1914.521	2037.523
-34.954	24.152	1913.371	2035.871
-33.940	24.133	1912.393	2034.532
-32.925	24.170	1911.383	2033.806
-31.911	24.025	1910.342	2030.949
-30.896	24.120	1908.703	2030.215
-29.881	24.165	1907.335	2029.200
-28.867	24.079	1905.694	2026.389
-27.852	24.212	1903.817	2025.830
-26.838	24.009	1903.424	2023.010
-25.823	23.912	1902.809	2021.167
-24.809	23.997	1901.331	2020.496
-23.794	24.023	1900.151	2019.455
-22.779	24.193	1897.586	2018.586
-21.765	24.122	1896.136	2016.150
-20.750	24.052	1895.484	2014.583
-19.736	23.959	1894.442	2012.334
-18.721	24.025	1892.822	2011.281
-17.706	23.995	1891.656	2009.624
-16.692	23.960	1890.255	2007.658
-15.677	23.974	1889.327	2006.752
-14.663	23.998	1887.887	2005.416
-13.648	23.830	1887.200	2002.705
-12.633	23.881	1885.039	2000.917
-11.619	23.881	1883.749	1999.462
-10.604	23.881	1883.047	1998.636
-9.590	23.949	1881.182	1997.343
-8.575	24.011	1880.048	1996.759
-7.560	23.814	1879.694	1994.090
-6.546	23.896	1878.139	1993.279
-5.531	23.893	1876.287	1991.206
-4.517	23.902	1875.113	1989.973
-3.502	23.833	1874.775	1988.770
-2.487	23.943	1873.128	1988.175
-1.473	23.898	1870.106	1984.384
-0.458	23.652	1851.086	1961.390
0.556	19.916	1996.131	2058.149
1.571	18.198	2200.353	2245.791
2.586	18.987	2239.613	2296.178
3.600	18.916	2242.705	2298.119
4.615	18.951	2242.022	2297.610
5.629	19.112	2239.122	2296.530
6.644	18.905	2238.279	2292.617
7.659	19.009	2235.258	2290.641
8.673	18.995	2233.494	2288.370
9.688	18.858	2242.632	2295.620
10.702	17.933	2322.846	2364.576
11.717	16.244	2386.221	2404.630
12.731	7.609	2366.965	2261.796
13.746	0.949	2349.525	2150.020
14.761	0.171	2345.211	2134.738
15.775	0.219	2342.998	2133.144
16.790	0.107	2341.714	2130.130
17.804	0.005	2340.093	2126.950
18.819	0.017	2339.471	2126.300
19.834	0.022	2337.390	2124.224
20.848	0.035	2336.064	2122.956
21.863	0.056	2334.098	2121.208
22.877	-0.024	2332.108	2118.021
23.892	0.050	2329.555	2116.494
24.907	-0.051	2327.799	2113.210
25.921	-0.032	2326.501	2112.047
26.936	0.034	2323.142	2109.673
27.950	0.040	2320.496	2107.103
28.965	-0.036	2319.642	2105.015
29.980	0.076	2317.862	2104.719
30.994	0.122	2315.395	2102.868
32.009	3.983	2327.526	2168.071
33.023	13.437	2354.373	2326.956
34.038	17.267	2361.288	2387.685
35.053	17.211	2358.273	2383.561
36.067	17.115	2355.884	2379.511
37.082	17.079	2353.438	2376.255
38.096	17.222	2351.886	2376.404
39.111	17.548	2348.642	2377.421
40.126	17.732	2347.414	2378.476
41.140	17.882	2345.986	2378.841
42.155	17.854	2345.016	2377.183
43.169	17.881	2342.152	2374.374
44.184	17.661	2339.038	2367.866
45.199	17.482	2337.395	2363.410
46.213	17.698	2336.341	2365.085
47.228	17.856	2335.376	2366.020
48.242	17.862	2333.615	2364.032
49.257	18.006	2331.747	2363.872
50.271	18.067	2329.527	2362.185
51.286	17.755	2326.164	2354.153
52.301	17.460	2325.001	2348.614
53.315	18.254	2328.890	2363.278
54.330	21.427	2337.547	2415.918
55.344	23.368	2337.916	2442.930
56.359	23.700	2335.145	2444.347
57.374	23.719	2335.180	2444.347
58.388	23.832	2331.879	2442.166
59.403	23.696	2326.675	2434.541
60.417	23.240	2324.040	2425.216
61.432	23.210	2322.443	2422.848
62.447	23.523	2321.294	2425.661
63.461	23.624	2320.017	2425.422
64.476	23.715	2318.535	2424.837
65.490	23.433	2316.516	2418.563
66.505	22.620	2312.136	2402.568
67.520	20.326	2303.519	2361.986
68.534	18.026	2294.471	2321.061
69.549	17.441	2288.926	2307.205
70.563	17.379	2286.976	2304.112
71.578	17.432	2285.961	2303.535
72.593	17.478	2284.520	2302.439
73.607	17.782	2283.007	2304.773
74.622	17.718	2280.876	2301.475
75.636	17.549	2277.826	2295.825
76.651	17.488	2275.371	2292.251
77.666	17.443	2273.991	2289.984
78.680	17.388	2271.283	2286.231
79.695	17.225	2268.230	2280.688
80.709	17.028	2267.175	2276.699
81.724	17.068	2265.438	2275.223
82.739	17.138	2262.692	2273.142
83.753	17.065	2260.973	2270.156
84.768	17.036	2258.727	2267.239
85.782	17.003	2257.092	2264.885
86.797	16.930	2254.924	2261.453
87.812	16.957	2252.417	2259.040
88.826	17.123	2251.030	2259.589
89.841	17.129	2248.873	2257.235
90.855	17.141	2246.211	2254.454
91.870	17.195	2245.592	2254.289
92.884	17.202	2242.901	2251.411
93.899	17.158	2242.306	2249.951
94.914	17.888	2246.039	2263.168
95.928	20.669	2253.155	2307.187
96.943	21.561	2252.192	2317.803
97.957	18.906	2240.772	2270.575
98.972	17.154	2235.207	2241.438
99.987	17.131	2230.203	2235.839
101.001	16.991	2229.139	2232.661
102.016	17.153	2226.626	2232.016
103.030	17.067	2224.131	2228.113
104.045	17.004	2221.901	2224.778
105.060	17.124	2218.923	2223.117
106.074	17.124	2218.509	2222.429
107.089	17.130	2217.641	2221.372
108.103	17.133	2216.129	2219.629
109.118	17.183	2215.275	2219.174
110.133	17.341	2212.890	2218.582
111.147	17.097	2210.756	2212.982
112.162	17.280	2209.304	2213.664
113.176	17.451	2207.390	2213.719
114.191	17.527	2205.562	2212.613
115.206	17.440	2204.402	2210.051
116.220	17.374	2202.735	2207.250
117.235	17.443	2200.486	2205.632
118.249	17.484	2198.990	2204.399
119.264	17.461	2196.555	2201.400
120.279	17.373	2194.714	2198.141
121.293	17.419	2192.834	2196.599
122.308	17.351	2191.890	2194.508
123.322	17.148	2190.397	2190.123
124.337	17.716	2191.643	2198.462
125.352	20.635	2200.303	2244.805
126.366	21.423	2197.995	2252.392
127.381	18.512	2187.494	2203.809
128.395	17.418	2182.466	2184.363
129.410	17.209	2179.479	2178.424
130.424	17.001	2177.596	2173.597
131.439	17.238	2176.298	2175.097
132.454	17.290	2174.611	2173.820
133.468	17.557	2172.437	2174.806
134.483	17.756	2171.984	2176.655
135.497	17.803	2170.393	2175.395
136.512	17.688	2167.504	2170.763
137.527	17.601	2165.844	2167.730
138.541	17.201	2164.194	2160.706
139.556	17.315	2164.021	2161.736
140.570	17.243	2162.771	2159.312
141.585	17.123	2159.774	2154.522
142.600	17.086	2158.266	2152.289
143.614	17.157	2155.897	2150.584
144.629	17.074	2154.155	2147.529
145.643	16.965	2152.991	2144.722
146.658	17.067	2149.923	2142.707
147.673	16.880	2148.327	2138.490
148.687	16.933	2147.841	2138.413
149.702	17.084	2146.200	2138.445
150.716	17.057	2145.074	2136.717
151.731	17.122	2144.576	2136.789
152.746	17.151	2142.569	2134.906
153.760	17.926	2145.937	2147.802
154.775	20.791	2154.644	2192.583
155.789	21.789	2152.598	2202.842
156.804	19.067	2139.869	2155.342
157.819	17.222	2133.382	2125.373
158.833	16.924	2130.764	2118.759
159.848	16.965	2128.780	2117.052
160.862	17.102	2127.212	2116.952
161.877	17.260	2127.006	2118.473
162.892	17.403	2125.312	2118.328
163.906	17.188	2124.954	2115.027
164.921	17.302	2122.444	2113.696
165.935	17.165	2120.601	2109.895
166.950	17.413	2119.278	2111.421
167.964	17.407	2116.368	2108.198
168.979	17.154	2115.634	2104.063
169.994	17.169	2113.519	2101.902
171.008	17.095	2111.082	2098.303
172.023	17.090	2109.992	2096.910
173.037	17.276	2109.429	2098.402
174.052	17.498	2108.199	2099.683
175.067	17.471	2106.098	2097.008
176.081	17.319	2104.931	2093.708
177.096	17.291	2103.850	2092.031
178.110	17.347	2101.778	2090.412
179.125	17.318	2100.813	2088.848
180.140	17.256	2098.924	2085.954
181.154	17.266	2098.397	2085.309
182.169	17.512	2097.369	2087.063
183.183	18.429	2099.490	2100.226
184.198	21.539	2107.472	2146.361
185.213	22.160	2104.554	2150.779
186.227	18.944	2095.385	2101.702
187.242	17.585	2090.998	2080.380
188.256	17.254	2088.884	2073.962
189.271	17.086	2086.607	2069.395
190.286	17.042	2083.916	2065.939
191.300	17.110	2081.106	2063.746
192.315	17.126	2079.842	2062.441
193.329	17.504	2079.163	2066.127
194.344	17.667	2079.128	2067.833
195.359	17.790	2078.814	2068.777
196.373	17.647	2074.550	2062.547
197.388	17.465	2071.650	2057.208
198.402	17.413	2070.699	2055.376
199.417	17.304	2068.935	2052.063
200.432	17.324	2067.008	2050.151
201.446	17.172	2066.058	2047.120
202.461	17.009	2063.893	2042.752
203.475	16.923	2061.569	2039.166
204.490	16.955	2059.501	2037.262
205.504	16.962	2056.323	2033.968
206.519	16.920	2054.903	2031.811
207.534	16.911	2053.845	2030.412
208.548	16.965	2052.256	2029.244
209.563	17.018	2051.734	2029.123
210.577	17.271	2049.914	2030.120
211.592	17.237	2049.961	2029.519
212.607	18.682	2055.167	2051.805
213.621	22.162	2063.289	2101.574
214.636	21.526	2056.398	2086.681
215.650	18.149	2046.871	2036.406
216.665	17.197	2043.167	2021.096
217.680	17.223	2040.174	2018.213
218.694	17.032	2037.970	2013.514
219.709	16.945	2036.619	2010.900
220.723	17.056	2035.803	2011.168
221.738	17.211	2034.778	2011.769
222.753	17.286	2032.935	2010.591
223.767	17.288	2030.898	2008.367
224.782	17.263	2029.806	2006.742
225.796	17.285	2029.521	2006.479
226.811	17.574	2027.502	2007.671
227.826	17.665	2026.401	2007.414
228.840	17.541	2024.228	2003.557
229.855	17.463	2023.154	2001.339
230.869	17.574	2022.295	2001.560
231.884	17.429	2020.464	1997.796
232.899	17.526	2018.476	1996.732
233.913	17.330	2018.009	1993.718
234.928	17.212	2015.885	1990.000
235.942	17.150	2014.406	1987.572
236.957	17.136	2012.195	1984.978
237.972	17.315	2010.687	1985.358
238.986	17.166	2009.548	1982.250
240.001	17.203	2007.791	1980.707
241.015	17.252	2007.544	1980.804
242.030	18.139	2009.825	1993.213
243.045	21.026	2015.998	2032.976
244.059	21.392	2012.951	2033.942
245.074	18.565	2002.324	1990.033
246.088	17.620	1998.496	1974.990
247.103	17.683	1997.324	1974.320
248.117	17.611	1995.767	1971.707
249.132	17.383	1993.405	1966.490
250.147	17.329	1991.737	1963.980
251.161	17.484	1990.794	1964.614
252.176	17.935	1990.488	1969.307
253.190	18.257	1989.742	1972.069
254.205	18.189	1988.055	1969.371
255.220	17.999	1986.653	1965.550
256.234	17.910	1985.504	1963.145
257.249	17.773	1983.538	1959.386
258.263	18.042	1983.759	1962.475
259.278	18.780	1983.717	1970.712
260.293	18.347	1980.542	1962.336
261.307	17.397	1976.260	1946.940
262.322	17.097	1973.421	1940.468
263.336	16.887	1972.039	1936.458
264.351	16.768	1969.538	1932.414
265.366	16.727	1969.155	1931.336
266.380	16.716	1968.397	1930.234
267.395	16.701	1967.288	1928.742
268.409	16.763	1964.860	1926.842
269.424	16.890	1963.629	1926.848
270.439	16.947	1962.909	1926.561
271.453	18.017	1966.352	1941.948
272.468	21.291	1971.813	1984.545
273.482	21.437	1968.164	1982.307
274.497	18.364	1957.297	1936.258
275.512	16.977	1952.814	1915.856
276.526	16.842	1950.510	1911.835
277.541	16.850	1948.492	1909.714
278.555	16.729	1947.312	1906.955
279.570	16.757	1945.423	1905.201
280.585	16.837	1944.796	1905.256
281.599	17.097	1942.978	1906.187
282.614	17.349	1942.778	1908.604
283.628	17.578	1942.417	1910.607
284.643	17.801	1942.177	1912.647
285.657	17.921	1941.594	1913.199
286.672	18.523	1941.496	1919.653
287.687	18.941	1939.811	1922.454
288.701	18.586	1938.460	1916.900
289.716	18.333	1936.001	1911.398
290.730	18.220	1933.976	1907.907
291.745	18.065	1932.642	1904.629
292.760	18.010	1931.599	1902.750
293.774	17.878	1930.770	1900.233
294.789	17.846	1928.998	1897.904
295.803	17.491	1925.469	1890.238
296.818	17.463	1923.715	1887.982
297.833	17.422	1923.333	1886.924
298.847	17.291	1922.128	1884.061
299.862	17.274	1921.306	1882.840
300.876	18.104	1922.968	1893.481
301.891	21.340	1930.619	1936.901
302.906	21.888	1926.607	1938.726
303.920	18.584	1917.733	1892.977
304.935	17.453	1913.559	1876.102
305.949	17.462	1911.960	1874.411
306.964	17.320	1909.199	1869.911
307.979	17.562	1908.099	1871.280
308.993	17.804	1907.431	1873.079
310.008	18.285	1906.389	1877.136
311.022	18.319	1904.899	1875.814
312.037	18.168	1902.973	1872.028
313.052	18.153	1902.668	1871.338
314.066	18.323	1901.295	1871.640
315.081	18.686	1901.406	1875.508
316.095	18.830	1899.304	1874.795
317.110	18.025	1896.114	1862.604
318.125	17.493	1893.608	1854.089
319.139	17.352	1892.086	1850.843
320.154	17.534	1890.466	1851.016
321.168	17.441	1888.238	1847.604
322.183	17.287	1887.592	1845.066
323.197	17.064	1886.159	1841.018
324.212	16.883	1882.808	1835.557
325.227	16.887	1880.486	1833.120
326.241	16.808	1878.914	1830.511
327.256	16.927	1878.260	1830.945
328.270	16.835	1877.917	1829.388
329.285	16.854	1878.144	1829.603
330.300	17.965	1882.734	1845.923
331.314	21.532	1889.203	1890.862
332.329	21.584	1882.749	1884.733
333.343	18.172	1873.290	1838.239
334.358	16.866	1869.726	1820.434
335.373	16.796	1868.107	1817.886
336.387	16.596	1865.483	1812.959
337.402	16.663	1864.217	1812.241
338.416	16.821	1863.948	1813.457
339.431	16.948	1862.141	1812.848
340.446	17.060	1860.101	1811.850
341.460	17.417	1860.018	1815.376
342.475	17.987	1859.273	1820.543
343.489	17.891	1858.820	1818.852
344.504	17.837	1857.557	1816.825
345.519	17.874	1856.830	1816.291
346.533	18.293	1855.914	1819.655
347.548	18.748	1855.181	1823.572
348.562	18.808	1854.124	1822.960
349.577	18.517	1852.508	1818.053
350.592	18.544	1850.430	1816.081
351.606	18.400	1848.814	1812.741
352.621	18.292	1847.609	1810.199
353.635	18.010	1845.799	1805.209
354.650	17.734	1843.469	1799.793
355.665	17.417	1841.296	1794.096
356.679	17.358	1839.797	1791.794
357.694	17.429	1837.529	1790.121
358.708	17.406	1836.768	1788.924
359.723	18.609	1841.909	1806.452
360.738	21.951	1847.662	1847.305
361.752	21.412	1842.120	1835.850
362.767	18.460	1833.521	1796.019
363.781	17.611	1829.782	1783.207
364.796	17.351	1828.692	1779.200
365.810	17.278	1827.337	1776.896
366.825	17.313	1825.718	1775.486
367.840	17.607	1825.027	1777.682
368.854	17.716	1824.712	1778.298
369.869	18.059	1823.815	1780.804
370.883	18.421	1822.976	1783.567
371.898	18.332	1822.617	1782.072
372.913	17.999	1821.071	1776.862
373.927	18.260	1820.567	1778.886
374.942	18.568	1819.401	1780.754
375.956	18.649	1816.710	1778.744
376.971	18.087	1813.970	1770.002
377.986	17.836	1811.904	1765.170
379.000	17.571	1811.111	1761.432
380.015	17.660	1808.800	1759.895
381.029	17.415	1805.983	1754.400
382.044	17.058	1803.934	1748.510
383.059	17.014	1802.878	1746.818
384.073	16.862	1802.204	1744.379
385.088	16.983	1800.607	1743.880
386.102	16.949	1799.508	1742.253
387.117	16.881	1798.336	1740.207
388.132	17.078	1797.243	1740.974
389.146	18.160	1801.691	1756.248
390.161	21.603	1807.150	1796.943
391.175	21.383	1800.294	1787.650
392.190	18.126	1790.641	1744.499
393.205	17.272	1787.819	1732.795
394.219	17.041	1786.336	1728.788
395.234	17.036	1784.887	1727.132
396.248	16.993	1783.240	1724.889
397.263	17.026	1780.843	1722.700
398.278	17.276	1778.788	1723.054
399.292	17.091	1778.626	1720.809
400.307	17.108	1777.882	1720.053
401.321	17.297	1777.044	1720.955
402.336	17.203	1776.729	1719.492
403.350	17.450	1775.309	1720.418
404.365	18.026	1774.749	1725.521
405.380	18.581	1774.795	1730.991
406.394	18.649	1775.036	1731.714
407.409	18.751	1772.931	1730.483
408.423	18.667	1771.061	1727.596
409.438	18.524	1769.426	1724.356
410.453	18.274	1767.953	1720.181
411.467	18.233	1766.256	1717.910
412.482	17.889	1763.590	1711.654
413.496	17.517	1761.589	1705.754
414.511	17.383	1760.107	1702.765
415.526	17.190	1757.180	1697.798
416.540	17.270	1755.399	1696.676
417.555	17.148	1755.217	1695.070
418.569	17.467	1755.720	1698.549
419.584	17.466	1756.142	1698.752
420.599	17.401	1755.660	1697.424
421.613	17.395	1753.511	1695.082
422.628	17.325	1752.292	1693.006
423.642	17.188	1749.916	1689.135
424.657	17.242	1748.226	1687.847
425.672	17.240	1747.209	1686.643
426.686	17.442	1746.576	1687.842
427.701	17.475	1745.109	1686.553
428.715	17.543	1743.842	1685.802
429.730	17.791	1742.517	1686.781
430.745	17.793	1740.913	1685.049
431.759	17.738	1740.874	1684.258
432.774	18.201	1740.828	1688.613
433.788	18.640	1741.248	1693.170
434.803	18.743	1741.684	1694.411
435.818	18.695	1741.137	1693.198
436.832	18.638	1739.626	1690.965
437.847	17.725	1732.825	1675.141
438.861	9.784	1711.343	1576.452
439.876	1.733	1695.957	1483.477
440.890	0.318	1692.304	1466.281
441.905	0.220	1691.062	1464.070
442.920	0.241	1689.861	1463.062
443.934	0.087	1688.986	1460.621
444.949	0.055	1687.657	1458.984
445.963	0.014	1687.711	1458.463
446.978	0.066	1686.853	1458.047
447.993	0.093	1685.267	1456.770
449.007	0.052	1683.173	1454.379
450.022	0.126	1680.421	1452.551
451.036	0.154	1679.700	1452.020
452.051	1.103	1683.568	1464.411
453.066	8.812	1700.924	1554.745
454.080	16.745	1714.596	1644.781
455.095	18.793	1717.426	1667.301
456.109	19.464	1718.430	1674.623
457.124	19.875	1717.429	1677.460
458.139	19.930	1716.914	1677.290
459.153	20.110	1716.373	1678.314
460.168	20.136	1714.322	1676.357
461.182	19.978	1712.860	1673.194
462.197	20.035	1710.917	1671.643
463.212	19.795	1709.905	1668.133
464.226	19.920	1707.667	1666.964
465.241	20.120	1706.834	1667.877
466.255	20.267	1705.951	1668.245
467.270	20.399	1704.504	1667.902
468.285	19.994	1703.055	1662.375
469.299	19.819	1702.344	1659.793
470.314	19.939	1700.301	1658.761
471.328	20.010	1698.857	1657.837
472.343	19.962	1698.398	1656.728
473.358	20.207	1696.219	1656.759
474.372	20.103	1695.585	1654.943
475.387	19.883	1693.758	1650.849
476.401	19.788	1691.784	1647.819
477.416	19.726	1690.601	1645.874
478.430	19.898	1689.614	1646.358
479.445	19.746	1687.692	1642.839
480.460	19.714	1686.995	1641.662
481.474	19.763	1686.321	1641.278
482.489	20.179	1685.454	1644.205
483.503	20.322	1683.693	1643.643
484.518	20.397	1682.277	1642.785
485.533	20.325	1680.886	1640.547
486.547	20.089	1679.855	1637.096
487.562	20.465	1679.773	1640.391
488.576	20.359	1678.394	1637.847
489.591	20.290	1677.131	1635.762
490.606	20.210	1674.648	1632.385
491.620	20.184	1672.906	1630.248
492.635	20.607	1672.277	1633.439
493.649	20.708	1671.547	1633.484
494.664	20.282	1669.039	1626.819
495.679	19.853	1667.238	1620.828
496.693	19.972	1665.766	1620.322
497.708	20.204	1665.688	1622.237
498.722	20.541	1665.897	1625.416
499.737	20.619	1663.947	1624.044
500.752	20.408	1661.412	1619.402
501.766	20.357	1659.674	1617.035
502.781	20.234	1659.666	1615.685
503.795	20.339	1657.469	1614.339
504.810	20.433	1656.927	1614.496
505.825	20.695	1656.579	1616.401
506.839	20.519	1655.342	1613.360
507.854	20.506	1653.409	1611.165
508.868	20.564	1651.745	1609.894
509.883	20.453	1651.198	1608.134
510.898	20.709	1650.355	1609.498
511.912	20.644	1647.238	1605.660
512.927	20.477	1645.990	1602.704
513.941	20.338	1644.762	1600.033
514.956	20.248	1642.916	1597.213
515.971	20.180	1641.495	1595.009
516.985	20.269	1640.769	1594.940
518.000	20.440	1640.781	1596.334
519.014	20.590	1639.874	1596.645
520.029	20.875	1638.707	1597.947
521.043	20.710	1637.221	1594.792
522.058	20.694	1636.217	1593.475
523.073	20.903	1634.954	1593.972
524.087	21.177	1634.917	1596.260
525.102	21.024	1633.582	1593.360
526.116	20.532	1631.589	1586.713
527.131	20.531	1630.194	1585.159
528.146	20.965	1630.152	1588.905
529.160	21.004	1628.966	1587.921
530.175	20.989	1627.949	1586.595
531.189	21.057	1627.152	1586.251
532.204	21.025	1625.699	1584.356
533.219	20.723	1623.299	1579.069
534.233	20.489	1622.711	1576.175
535.248	20.771	1622.540	1578.392
536.262	21.124	1621.372	1580.286
537.277	20.933	1620.163	1577.180
538.292	20.720	1617.611	1572.567
539.306	20.684	1615.787	1570.286
540.321	20.592	1614.519	1568.027
541.335	20.593	1612.630	1566.017
542.350	20.774	1610.978	1565.861
543.365	21.095	1610.308	1567.921
544.379	21.082	1610.392	1567.698
545.394	21.190	1608.607	1566.751
546.408	20.847	1606.238	1561.160
547.423	20.466	1604.897	1556.245
548.438	20.369	1604.051	1554.363
549.452	20.601	1603.387	1555.618
550.467	20.821	1602.167	1556.230
551.481	20.872	1601.275	1555.634
552.496	20.937	1601.200	1555.958
553.511	21.315	1600.348	1558.333
554.525	21.312	1598.685	1556.494
555.540	21.367	1598.503	1556.626
556.554	21.484	1597.298	1556.316
557.569	21.304	1595.469	1552.736
558.583	21.186	1594.350	1550.408
559.598	21.136	1592.714	1548.191
560.613	21.266	1591.339	1547.825
561.627	21.184	1590.892	1546.469
562.642	21.314	1589.892	1546.475
563.656	21.651	1588.300	1547.735
564.671	21.705	1587.102	1546.856
565.686	21.510	1586.091	1543.957
566.700	21.238	1583.741	1539.073
567.715	21.070	1581.539	1535.270
568.729	20.807	1580.276	1531.531
569.744	20.590	1578.224	1527.446
570.759	20.594	1577.543	1526.639
571.773	20.812	1577.060	1527.915
572.788	20.968	1576.576	1528.632
573.802	21.077	1575.413	1528.284
574.817	21.371	1574.400	1529.707
575.832	21.714	1573.447	1531.612
576.846	21.540	1572.285	1528.771
577.861	21.511	1570.216	1526.320
578.875	21.468	1569.856	1525.409
579.890	21.804	1569.469	1527.792
580.905	21.607	1568.390	1524.838
581.919	21.687	1567.587	1524.573
582.934	21.899	1567.060	1525.731
583.948	21.845	1565.596	1523.651
584.963	21.660	1563.783	1520.096
585.978	21.319	1562.162	1515.366
586.992	21.700	1561.053	1517.423
588.007	21.812	1559.970	1517.161
589.021	21.263	1557.517	1509.826
590.036	20.735	1555.388	1503.003
591.051	21.008	1555.329	1505.135
592.065	21.410	1554.648	1507.782
593.080	21.646	1553.484	1508.512
594.094	21.480	1552.704	1506.140
595.109	21.173	1549.668	1500.362
596.123	20.962	1548.574	1497.304
597.138	21.325	1548.254	1499.944
598.153	21.549	1546.679	1500.165
599.167	21.591	1545.293	1499.006
600.182	21.749	1545.189	1500.088
601.196	21.697	1544.000	1498.308
602.211	21.620	1543.290	1496.778
603.226	21.906	1542.212	1498.002
604.240	22.110	1540.770	1498.177
605.255	22.017	1539.590	1496.052
606.269	22.048	1538.937	1495.501
607.284	21.956	1538.274	1493.891
608.299	21.915	1536.477	1491.618
609.313	21.863	1534.349	1488.934
610.328	21.804	1533.536	1487.458
611.342	22.020	1532.312	1487.939
612.357	22.227	1531.668	1488.897
613.372	22.388	1530.340	1488.794
614.386	21.931	1529.514	1483.929
615.401	22.209	1528.694	1485.316
616.415	22.188	1528.703	1484.970
617.430	22.246	1527.059	1483.684
618.445	22.394	1526.386	1484.106
619.459	22.209	1524.676	1480.702
620.474	21.731	1523.034	1474.889
621.488	21.274	1520.478	1468.374
622.503	20.895	1519.419	1463.978
623.518	21.507	1519.486	1469.034
624.532	22.034	1518.579	1472.425
625.547	22.109	1518.702	1473.002
626.561	22.430	1518.303	1475.139
627.576	22.518	1517.005	1474.442
628.591	21.851	1514.293	1466.025
629.605	21.436	1511.767	1459.926
630.620	21.342	1509.931	1457.190
631.634	21.018	1508.607	1453.025
632.649	21.185	1508.229	1453.884
633.663	21.663	1506.741	1456.266
634.678	22.049	1507.193	1459.759
635.693	22.415	1507.022	1462.473
636.707	22.528	1505.841	1462.097
637.722	22.712	1504.664	1462.316
638.736	22.704	1503.985	1461.412
639.751	22.634	1502.727	1459.428
640.766	22.603	1501.280	1457.594
641.780	22.625	1499.421	1455.797
642.795	22.409	1499.236	1453.647
643.809	22.533	1498.294	1453.590
644.824	22.562	1497.166	1452.565
645.839	22.512	1495.669	1450.524
646.853	22.523	1494.679	1449.478
647.868	22.484	1492.955	1447.316
648.882	22.190	1491.946	1443.737
649.897	22.374	1490.837	1444.009
650.912	22.408	1488.647	1441.992
651.926	22.287	1487.930	1440.127
652.941	22.000	1486.164	1435.889
653.955	21.528	1483.349	1429.120
654.970	21.091	1481.884	1423.961
655.985	21.102	1480.175	1422.234
656.999	21.133	1480.269	1422.405
658.014	21.534	1479.740	1425.011
659.028	21.819	1479.168	1426.624
660.043	22.100	1478.694	1428.289
661.058	22.236	1477.180	1427.766
662.072	22.391	1476.193	1427.905
663.087	22.333	1475.040	1426.152
664.101	22.299	1474.005	1424.700
665.116	22.353	1474.134	1425.092
666.131	22.683	1472.406	1425.936
667.145	22.532	1471.160	1423.331
668.160	22.775	1470.559	1424.548
669.174	23.001	1469.578	1425.265
670.189	22.930	1468.407	1423.380
671.204	22.551	1467.166	1418.945
672.218	22.506	1466.271	1417.544
673.233	22.795	1465.509	1418.967
674.247	23.021	1464.687	1419.832
675.262	23.036	1463.517	1418.649
676.276	23.004	1462.925	1417.645
677.291	22.909	1461.674	1415.494
678.306	22.556	1460.178	1411.039
679.320	22.579	1458.185	1409.131
680.335	22.732	1457.954	1409.966
681.349	22.951	1458.333	1411.924
682.364	22.820	1456.572	1408.998
683.379	22.871	1455.023	1407.742
684.393	22.899	1454.063	1406.863
685.408	22.958	1452.518	1405.676
686.422	22.955	1451.293	1404.301
687.437	22.809	1451.714	1403.373
688.452	23.185	1450.320	1404.852
689.466	23.050	1448.332	1401.688
690.481	22.755	1447.146	1398.021
691.495	22.485	1445.369	1393.989
692.510	21.704	1443.095	1385.423
693.525	21.425	1441.002	1381.036
694.539	21.804	1440.928	1383.804
695.554	22.561	1441.936	1390.619
696.568	22.934	1441.554	1393.039
697.583	23.181	1440.856	1394.152
698.598	23.210	1440.429	1393.799
699.612	23.333	1438.554	1392.791
700.627	23.333	1437.099	1391.215
701.641	23.245	1435.618	1388.922
702.656	23.263	1434.565	1387.879
703.671	23.458	1434.995	1389.667
704.685	23.437	1434.490	1388.847
705.700	23.359	1432.077	1385.729
706.714	23.160	1430.372	1382.354
707.729	22.869	1429.063	1378.642
708.744	22.724	1427.638	1375.964
709.758	22.598	1425.776	1373.015
710.773	22.269	1424.064	1368.633
711.787	21.974	1422.639	1364.792
712.802	22.133	1422.166	1365.421
713.816	22.543	1421.662	1367.973
714.831	22.768	1421.432	1369.337
715.846	23.116	1420.106	1370.609
716.860	23.056	1419.214	1369.115
717.875	23.160	1418.505	1369.075
718.889	23.099	1417.123	1367.103
719.904	23.213	1416.223	1366.961
720.919	23.090	1415.528	1365.172
721.933	23.406	1414.336	1366.306
722.948	23.392	1413.700	1365.420
723.962	23.425	1412.790	1364.630
724.977	23.553	1411.781	1364.485
725.992	23.467	1410.687	1362.603
727.006	23.328	1408.766	1359.508
728.021	23.532	1407.613	1359.805
729.035	23.590	1406.992	1359.489
730.050	23.486	1406.154	1357.720
731.065	23.448	1405.056	1356.204
732.079	23.642	1404.117	1356.625
733.094	23.468	1402.473	1353.536
734.108	23.287	1401.357	1350.911
735.123	23.380	1399.776	1349.939
736.138	23.477	1398.195	1348.996
737.152	23.514	1397.656	1348.594
738.167	23.674	1396.772	1348.802
739.181	23.749	1395.909	1348.381
740.196	23.720	1395.438	1347.545
741.211	23.664	1394.311	1345.865
742.225	23.486	1393.918	1343.968
743.240	23.606	1391.976	1342.853
744.254	23.528	1390.288	1340.466
745.269	23.587	1389.736	1340.224
746.284	23.472	1388.872	1338.357
747.298	23.244	1387.427	1335.075
748.313	22.854	1385.708	1330.313
749.327	22.261	1384.139	1324.154
750.342	21.869	1382.574	1319.541
751.356	21.529	1380.830	1315.147
752.371	21.898	1380.392	1317.363
753.386	22.692	1381.444	1324.198
754.400	23.395	1380.772	1328.697
755.415	23.773	1379.898	1330.544
756.429	23.748	1378.661	1329.005
757.444	23.708	1377.500	1327.427
758.459	23.611	1376.969	1326.026
759.473	23.811	1375.695	1326.136
760.488	23.946	1374.578	1325.915
761.502	23.808	1373.517	1323.698
762.517	23.578	1372.398	1320.746
763.532	23.605	1369.584	1318.076
764.546	23.158	1369.243	1314.259
765.561	22.564	1367.689	1308.180
766.575	21.890	1366.110	1301.487
767.590	21.948	1365.084	1300.785
768.605	22.603	1364.304	1304.764
769.619	23.028	1363.790	1307.272
770.634	23.246	1363.564	1308.516
771.648	23.806	1362.688	1311.674
772.663	23.796	1362.336	1311.110
773.678	23.902	1361.388	1310.819
774.692	23.901	1360.731	1310.023
775.707	23.936	1360.734	1310.132
776.721	23.915	1359.484	1308.618
777.736	23.921	1358.466	1307.521
778.751	23.873	1357.157	1305.751
779.765	24.015	1356.193	1305.719
780.780	23.858	1355.671	1303.898
781.794	23.698	1354.649	1301.581
782.809	23.753	1353.464	1300.694
783.824	23.555	1351.944	1297.619
784.838	23.137	1349.324	1291.881
785.853	22.370	1347.571	1284.428
786.867	22.467	1347.737	1285.141
787.882	22.887	1347.393	1287.738
788.897	23.015	1347.233	1288.367
789.911	23.293	1346.497	1289.543
790.926	23.499	1345.369	1289.817
791.940	23.665	1344.204	1289.757
792.955	23.933	1342.384	1289.810
793.969	23.872	1341.500	1288.361
794.984	23.781	1341.754	1287.793
795.999	23.764	1340.344	1286.157
797.013	24.050	1338.300	1286.123
798.028	24.020	1337.126	1284.624
799.042	24.069	1336.624	1284.343
800.057	24.078	1336.095	1283.741
801.072	24.247	1334.159	1282.954
802.086	24.234	1333.031	1281.621
803.101	24.020	1332.934	1279.828
804.115	24.161	1331.620	1279.431
805.130	24.118	1330.467	1277.860
806.145	24.197	1329.057	1276.920
807.159	24.083	1327.612	1274.559
808.174	23.893	1326.338	1271.821
809.188	23.829	1324.883	1269.815
810.203	23.567	1323.128	1266.102
811.218	23.113	1320.758	1260.433
812.232	22.776	1318.941	1256.136
813.247	22.450	1318.592	1253.322
814.261	23.089	1318.912	1258.046
815.276	23.594	1318.280	1260.895
816.291	23.971	1317.615	1262.799
817.305	24.008	1317.372	1262.680
818.320	24.097	1316.101	1261.948
819.334	23.892	1315.138	1259.412
820.349	24.241	1313.117	1259.806
821.364	24.218	1311.915	1258.342
822.378	24.173	1310.611	1256.622
823.393	24.149	1309.928	1255.644
824.407	24.140	1308.616	1254.170
825.422	24.060	1307.770	1252.647
826.437	23.998	1306.149	1250.504
827.451	23.661	1304.101	1246.018
828.466	22.995	1300.886	1238.108
829.480	22.752	1298.941	1234.397
830.495	23.038	1298.929	1236.250
831.509	23.435	1298.842	1238.808
832.524	23.755	1298.378	1240.468
833.539	24.096	1297.453	1241.822
834.553	24.238	1296.788	1242.031
835.568	24.218	1295.890	1240.885
836.582	24.089	1294.857	1238.848
837.597	24.196	1293.328	1237.979
838.612	24.115	1291.433	1235.455
839.626	23.980	1290.533	1233.506
840.641	23.794	1289.449	1231.028
841.655	23.229	1288.169	1225.727
842.670	22.522	1286.561	1219.137
843.685	22.085	1284.964	1214.440
844.699	22.971	1284.027	1219.557
845.714	23.550	1283.713	1223.128
846.728	23.806	1282.914	1223.987
847.743	23.872	1282.642	1224.042
848.758	23.910	1281.734	1223.293
849.772	24.177	1280.621	1223.925
850.787	24.242	1278.815	1222.499
851.801	24.191	1277.994	1221.218
852.816	24.037	1276.554	1218.636
853.831	24.045	1274.668	1216.746
854.845	23.983	1273.191	1214.768
855.860	23.961	1271.585	1212.936
856.874	23.706	1270.370	1209.886
857.889	23.313	1268.779	1205.536
858.904	22.907	1266.317	1200.281
859.918	22.663	1263.874	1196.163
860.933	22.214	1263.279	1192.391
861.947	22.665	1263.249	1195.296
862.962	23.294	1262.190	1198.431
863.977	23.407	1261.820	1198.703
864.991	23.615	1261.969	1200.115
866.006	23.846	1261.849	1201.425
867.020	24.005	1260.527	1201.106
868.035	24.099	1259.293	1200.422
869.049	24.217	1258.340	1200.167
870.064	24.273	1256.992	1199.117
871.079	24.088	1256.896	1197.633
872.093	24.128	1256.205	1197.098
873.108	24.082	1254.581	1195.100
874.122	23.771	1252.960	1191.315
875.137	23.174	1252.214	1186.441
876.152	23.064	1250.683	1184.112
877.166	23.204	1249.034	1183.351
878.181	23.497	1249.257	1185.386
879.195	23.890	1248.423	1187.089
880.210	24.178	1247.936	1188.419
881.225	24.251	1246.734	1187.622
882.239	24.136	1245.977	1185.984
883.254	23.969	1245.552	1184.319
884.268	24.202	1245.015	1185.225
885.283	24.312	1243.244	1184.133
886.298	24.289	1241.579	1182.253
887.312	24.353	1240.362	1181.382
888.327	24.268	1239.403	1179.759
889.341	24.273	1237.519	1177.858
890.356	24.044	1236.977	1175.683
891.371	23.990	1236.766	1174.977
892.385	23.978	1236.075	1174.105
893.400	23.799	1234.764	1171.533
894.414	23.591	1233.192	1168.522
895.429	23.322	1230.256	1163.827
896.444	22.669	1227.390	1156.671
897.458	21.883	1226.706	1150.706
898.473	22.526	1226.821	1154.915
899.487	23.192	1227.436	1159.747
900.502	23.737	1226.506	1162.314
901.517	23.903	1225.519	1162.328
902.531	23.906	1225.257	1161.963
903.546	24.042	1224.801	1162.282
904.560	24.221	1223.586	1162.165
905.575	24.189	1222.786	1161.057
906.589	24.098	1221.968	1159.544
907.604	24.174	1220.657	1158.661
