DTS Sentinel unit serial number:	SN409020Multiplexer serial number:	ORYXHardware model number:	OX4-SRSoftware version number:	ORYX F/W v3.00 Oryx Data Collector v3.7.2.0data status	okinstallation	HaddamTimeLapsedifferential loss correction	single-endedforward channel	channel 3reverse channel	N/Adate	2011/06/21time	15:31:17forward acquisition time	30.00reverse acquisition time	0.00gamma	498.7831k internal	0.1813k external	0.1813temperature offset calibration	1.0074default loss term (dB/km)	0.3790temperature slope calibration	1.3530multiplexer offset coefficient	1.0000multiplexer slope coefficient	1.0000fibre end	0.00T internal ref (°C)	37.53T ext. ref 1 (°C)	28.39T ext. ref 2 (°C)	0.23length (m)	temperature (°C)	Stokes	anti-Stokes-747.200	-37.088	-0.323	-0.221
-746.185	-120.123	-0.110	0.024
-745.171	-176.788	0.546	0.017
-744.156	-163.138	-0.258	-0.016
-743.142	34.925	0.280	0.314
-742.127	120.319	0.275	0.438
-741.112	-173.669	-0.048	-0.002
-740.098	-200.000	-0.032	0.353
-739.083	-87.661	-0.237	-0.091
-738.069	-93.373	0.560	0.198
-737.054	69.902	-0.177	-0.234
-736.039	-6.131	0.108	0.094
-735.025	-34.673	-0.155	0.109
-734.010	800.000	0.090	-0.337
-732.996	-83.362	-0.328	-0.134
-731.981	-171.482	0.461	-0.019
-730.966	-135.302	-0.235	-0.036
-729.952	800.000	-0.080	-0.411
-728.937	-83.361	-0.446	0.183
-727.923	-40.299	0.422	-0.281
-726.908	-200.000	-0.036	-0.237
-725.894	-200.000	-0.008	-0.349
-724.879	394.033	-0.047	-0.126
-723.864	-97.707	0.269	0.089
-722.850	800.000	0.099	0.423
-721.835	1.054	0.296	0.272
-720.821	-153.736	-0.140	0.012
-719.806	186.446	-0.049	-0.093
-718.791	-34.529	-0.234	-0.164
-717.777	-94.230	-0.407	-0.142
-716.762	-200.000	0.039	-0.242
-715.748	10.737	-0.170	0.166
-714.733	-200.000	0.019	0.440
-713.718	-69.564	0.072	0.035
-712.704	-146.201	-0.519	0.058
-711.689	333.026	-0.112	-0.279
-710.675	48.848	0.279	-0.336
-709.660	-50.405	-0.117	0.071
-708.645	47.151	-0.276	-0.329
-707.631	523.851	-0.050	0.150
-706.616	-107.380	-0.374	-0.105
-705.602	22.789	-0.165	-0.174
-704.587	-200.000	0.003	0.230
-703.572	-4.116	-0.136	0.120
-702.558	-200.000	-0.005	0.360
-701.543	161.435	-0.008	-0.014
-700.529	-33.827	-0.117	-0.083
-699.514	-26.551	-0.171	0.128
-698.499	329.645	0.115	-0.283
-697.485	-43.931	-0.370	0.238
-696.470	-103.503	-0.573	0.171
-695.456	-44.048	-0.154	-0.099
-694.441	101.292	0.147	-0.219
-693.426	800.000	-0.025	0.104
-692.412	-92.633	0.338	-0.121
-691.397	-102.416	0.446	0.136
-690.383	-8.340	-0.245	-0.211
-689.368	-200.000	-0.005	0.236
-688.354	19.968	0.270	0.278
-687.339	-47.910	-0.273	-0.169
-686.324	-167.986	-0.211	0.010
-685.310	-200.000	-0.023	-0.480
-684.295	-39.733	-0.328	-0.219
-683.281	106.359	0.318	-0.483
-682.266	5.068	-0.081	0.076
-681.251	-61.840	-0.679	-0.362
-680.237	-200.000	-0.010	-0.080
-679.222	57.769	-0.010	0.013
-678.208	-200.000	0.178	-0.001
-677.193	286.833	-0.084	-0.194
-676.178	54.137	0.042	-0.051
-675.164	459.335	-0.176	0.503
-674.149	53.626	-0.203	-0.250
-673.135	-41.132	-0.197	0.130
-672.120	109.941	0.070	-0.108
-671.105	656.342	0.108	-0.356
-670.091	135.557	-0.171	-0.285
-669.076	-200.000	0.047	-0.283
-668.062	273.782	-0.146	-0.332
-667.047	666.528	0.124	-0.413
-666.032	-134.095	0.442	0.069
-665.018	-1.394	0.304	0.274
-664.003	-97.402	-0.222	-0.073
-662.989	800.000	-0.068	-0.254
-661.974	-40.450	-0.243	0.161
-660.959	-122.054	0.284	-0.059
-659.945	-119.683	0.171	-0.038
-658.930	-62.319	-0.344	-0.182
-657.916	-110.595	-0.080	-0.021
-656.901	-200.000	-0.029	0.276
-655.886	-165.523	0.307	0.017
-654.872	800.000	-0.038	0.166
-653.857	-90.733	0.060	-0.022
-652.843	315.757	-0.142	-0.345
-651.828	-187.447	-0.266	0.004
-650.814	-70.181	0.086	-0.042
-649.799	-81.661	0.152	-0.064
-648.784	-94.282	-0.111	-0.039
-647.770	-93.178	-0.401	0.142
-646.755	-123.060	-0.303	0.062
-645.741	-35.630	0.181	-0.125
-644.726	314.398	0.130	-0.315
-643.711	386.617	-0.110	-0.292
-642.697	-121.875	0.289	-0.060
-641.682	-53.781	0.546	-0.318
-640.668	303.322	0.081	0.192
-639.653	-122.645	-0.269	-0.055
-638.638	800.000	0.119	-0.431
-637.624	-28.767	-0.178	0.130
-636.609	-59.916	-0.701	-0.382
-635.595	-200.000	-0.032	-0.394
-634.580	-80.173	-0.455	0.194
-633.565	208.512	-0.105	0.210
-632.551	-52.024	-0.330	-0.195
-631.536	-159.816	-0.195	-0.013
-630.522	-112.446	-0.387	-0.098
-629.507	264.578	-0.200	-0.446
-628.492	270.963	-0.016	-0.037
-627.478	-123.340	-0.467	0.094
-626.463	429.833	-0.137	-0.380
-625.449	-45.637	-0.163	-0.103
-624.434	-64.562	-0.191	-0.099
-623.419	40.565	0.229	-0.264
-622.405	-93.183	-0.370	-0.131
-621.390	76.847	-0.116	-0.157
-620.376	341.634	-0.265	-0.665
-619.361	-27.601	0.271	-0.201
-618.346	164.300	0.034	0.061
-617.332	103.961	0.171	-0.258
-616.317	144.549	0.198	-0.339
-615.303	594.508	-0.086	-0.274
-614.288	-53.723	-0.308	0.179
-613.273	-123.760	-0.186	-0.037
-612.259	-11.659	-0.555	-0.465
-611.244	-48.491	-0.523	-0.320
-610.230	12.054	-0.135	-0.133
-609.215	-200.000	-0.019	-0.151
-608.201	-134.932	0.065	0.010
-607.186	231.619	-0.345	0.724
-606.171	-52.148	-0.235	0.138
-605.157	-103.507	-0.341	0.102
-604.142	-126.064	0.232	0.044
-603.128	272.220	0.021	0.047
-602.113	800.000	-0.077	-0.320
-601.098	183.920	0.162	0.307
-600.084	-10.662	0.283	0.238
-599.069	-18.582	0.534	-0.424
-598.055	-61.108	0.433	0.232
-597.040	-48.551	0.407	-0.249
-596.025	84.651	0.074	-0.104
-595.011	-79.867	-0.217	-0.093
-593.996	135.311	-0.245	0.407
-592.982	-200.000	-0.089	-0.000
-591.967	-14.034	0.119	-0.098
-590.952	800.000	-0.021	0.104
-589.938	-111.543	-0.342	0.088
-588.923	-33.404	-0.229	-0.161
-587.909	163.743	-0.065	-0.117
-586.894	-185.795	0.414	-0.008
-585.879	9.719	-0.100	-0.096
-584.865	-97.437	-0.209	-0.069
-583.850	246.905	0.235	0.507
-582.836	-16.372	0.187	0.151
-581.821	398.510	0.110	-0.295
-580.806	270.771	0.228	-0.514
-579.792	727.919	-0.098	-0.335
-578.777	61.932	-0.088	0.112
-577.763	-61.336	0.203	0.108
-576.748	60.111	0.070	-0.088
-575.733	-200.000	-0.067	0.403
-574.719	-9.010	-0.342	0.291
-573.704	30.327	-0.222	-0.242
-572.690	120.023	0.073	-0.116
-571.675	-98.826	0.154	0.049
-570.661	128.551	0.208	-0.338
-569.646	294.146	-0.184	0.430
-568.631	86.907	0.132	0.187
-567.617	-40.237	0.495	0.328
-566.602	141.709	-0.231	0.390
-565.588	-124.652	0.292	0.057
-564.573	800.000	-0.166	0.632
-563.558	-110.918	-0.345	0.090
-562.544	-34.918	0.192	-0.133
-561.529	-117.770	0.122	-0.028
-560.515	-120.602	-0.237	-0.051
-559.500	-108.879	0.611	0.165
-558.485	-200.000	0.036	-0.280
-557.471	-104.795	-0.333	-0.097
-556.456	-200.000	0.024	0.236
-555.442	-1.703	0.362	0.324
-554.427	-28.506	0.192	0.140
-553.412	-36.415	-0.138	0.094
-552.398	-51.966	-0.016	-0.010
-551.383	104.458	0.450	0.676
-550.369	-79.451	0.455	-0.195
-549.354	-23.191	0.222	-0.170
-548.339	-44.242	-0.241	0.154
-547.325	-200.000	0.027	-0.540
-546.310	-200.000	-0.064	-0.495
-545.296	-125.601	-0.679	0.130
-544.281	-60.964	0.550	0.295
-543.266	-137.576	-0.296	0.042
-542.252	53.517	-0.225	0.274
-541.237	156.236	0.037	0.066
-540.223	-95.507	0.193	0.066
-539.208	-173.264	0.637	0.024
-538.193	-70.410	0.314	0.151
-537.179	-183.354	-0.352	0.008
-536.164	-38.380	-0.166	0.112
-535.150	-200.000	0.061	-0.462
-534.135	-120.277	-0.459	-0.099
-533.121	149.220	0.102	-0.177
-532.106	-46.225	-0.023	-0.014
-531.091	-75.649	0.202	-0.091
-530.077	-41.156	-0.172	-0.112
-529.062	70.143	-0.174	0.229
-528.048	-177.855	-0.462	0.014
-527.033	-151.993	-0.231	-0.021
-526.018	-45.372	-0.103	0.065
-525.004	97.132	0.017	-0.024
-523.989	401.042	-0.139	0.374
-522.975	-96.788	0.175	-0.058
-521.960	69.035	-0.345	-0.451
-520.945	163.887	-0.126	0.226
-519.931	-148.102	-0.213	-0.022
-518.916	-38.835	0.318	0.213
-517.902	432.428	0.026	0.071
-516.887	433.245	0.093	-0.259
-515.872	223.661	0.203	-0.418
-514.858	-53.495	-0.379	0.220
-513.843	164.693	0.316	-0.568
-512.829	165.226	-0.184	0.331
-511.814	-29.976	0.058	-0.042
-510.799	800.000	0.020	0.114
-509.785	800.000	-0.125	0.582
-508.770	-11.465	0.286	0.239
-507.756	90.254	-0.086	0.123
-506.741	-181.468	-0.220	0.005
-505.726	-109.362	-0.231	-0.062
-504.712	9.824	-0.157	0.151
-503.697	165.927	-0.124	0.224
-502.683	-200.000	-0.002	0.051
-501.668	-176.663	-0.367	0.012
-500.653	-54.328	-0.226	-0.130
-499.639	-134.148	-0.292	-0.045
-498.624	55.920	0.366	-0.452
-497.610	305.999	0.102	0.243
-496.595	66.122	-0.212	0.274
-495.581	257.939	0.153	0.335
-494.566	-77.242	0.514	-0.226
-493.551	-3.778	0.349	-0.307
-492.537	-200.000	0.037	0.309
-491.522	24.422	0.376	-0.395
-490.508	113.731	0.248	-0.383
-489.493	-190.294	0.050	0.001
-488.478	104.074	0.200	-0.299
-487.464	14.386	0.432	-0.428
-486.449	198.937	0.375	-0.732
-485.435	70.953	-0.131	0.172
-484.420	800.000	0.015	-0.062
-483.405	136.209	0.270	-0.448
-482.391	190.819	0.216	-0.413
-481.376	-108.597	0.498	0.135
-480.362	-74.777	0.326	-0.148
-479.347	-7.033	-0.319	-0.274
-478.332	349.768	0.083	0.209
-477.318	240.736	0.162	0.345
-476.303	-10.033	0.083	-0.070
-475.289	-68.052	-0.105	-0.052
-474.274	800.000	0.063	-0.282
-473.259	70.230	0.253	0.332
-472.245	-56.377	-0.058	0.033
-471.230	-179.505	-0.362	-0.010
-470.216	-200.000	-0.002	-0.213
-469.201	-74.354	0.295	0.135
-468.186	45.450	0.251	0.294
-467.172	-147.540	0.499	0.053
-466.157	-200.000	0.031	-0.406
-465.143	-200.000	-0.016	0.332
-464.128	-82.101	0.407	0.168
-463.113	800.000	0.017	-0.068
-462.099	-94.249	-0.259	0.090
-461.084	800.000	0.142	-0.502
-460.070	15.907	0.343	-0.342
-459.055	170.635	-0.243	-0.443
-458.040	-118.360	0.124	0.028
-457.026	669.753	0.129	-0.426
-456.011	-110.125	-0.213	0.056
-454.997	203.561	0.128	0.252
-453.982	140.466	-0.077	-0.129
-452.968	-200.000	0.058	0.427
-451.953	317.788	0.017	0.041
-450.938	-26.967	-0.376	-0.278
-449.924	-0.991	-0.213	-0.191
-448.909	-42.544	0.114	0.073
-447.895	-200.000	-0.011	-0.113
-446.880	-91.975	-0.184	0.066
-445.865	136.943	-0.334	0.554
-444.851	-200.000	0.038	0.419
-443.836	58.044	0.413	-0.513
-442.822	36.921	0.127	-0.142
-441.807	-32.519	-0.141	0.099
-440.792	-133.181	0.111	-0.018
-439.778	-200.000	0.019	-0.190
-438.763	42.173	0.094	-0.108
-437.749	-200.000	-0.015	0.440
-436.734	-127.570	-0.252	0.046
-435.719	-166.058	-0.113	-0.006
-434.705	-62.509	0.289	-0.152
-433.690	687.032	-0.062	0.206
-432.676	151.393	0.223	-0.386
-431.661	53.841	0.252	-0.308
-430.646	139.134	0.268	0.447
-429.632	224.348	0.134	-0.276
-428.617	800.000	-0.028	-0.148
-427.603	-21.370	0.130	-0.100
-426.588	-113.543	-0.116	0.029
-425.573	236.401	-0.061	0.128
-424.559	-18.967	-0.334	-0.263
-423.544	-92.835	0.287	0.101
-422.530	-200.000	0.322	0.001
-421.515	327.600	-0.073	-0.179
-420.500	0.870	0.088	0.080
-419.486	-58.928	0.699	0.381
-418.471	800.000	-0.085	0.356
-417.457	-200.000	0.020	0.260
-416.442	-190.058	0.394	0.005
-415.428	-97.391	0.345	0.113
-414.413	-177.507	0.173	-0.005
-413.398	-150.999	0.176	-0.017
-412.384	800.000	-0.118	0.504
-411.369	219.614	-0.198	0.403
-410.355	800.000	0.052	-0.250
-409.340	211.500	0.086	0.172
-408.325	-9.133	0.107	-0.091
-407.311	-158.128	-0.523	0.038
-406.296	-135.245	-0.505	0.076
-405.282	-200.000	-0.018	0.497
-404.267	-112.865	0.418	0.104
-403.252	-200.000	0.003	0.196
-402.238	447.792	-0.111	0.310
-401.223	-200.000	-0.023	0.358
-400.209	-83.045	0.098	-0.040
-399.194	-200.000	-0.057	0.330
-398.179	10.249	-0.090	0.087
-397.165	-52.880	0.073	-0.043
-396.150	-146.834	-0.087	0.009
-395.136	671.176	-0.054	0.178
-394.121	-115.410	-0.411	0.097
-393.106	-85.332	-0.365	-0.143
-392.092	-119.048	0.208	-0.046
-391.077	-115.991	0.514	-0.120
-390.063	728.065	0.065	-0.220
-389.048	-70.222	-0.251	-0.120
-388.033	-42.597	-0.378	0.243
-387.019	-27.170	0.093	-0.068
-386.004	27.446	-0.088	-0.094
-384.990	1.926	0.160	-0.146
-383.975	-63.633	-0.271	-0.140
-382.960	-53.540	-0.434	-0.251
-381.946	-96.622	0.378	0.125
-380.931	61.338	-0.425	-0.534
-379.917	-148.054	-0.199	0.021
-378.902	-200.000	-0.043	-0.239
-377.888	-60.822	-0.217	-0.116
-376.873	-130.676	0.159	-0.027
-375.858	-200.000	-0.024	-0.238
-374.844	87.096	0.051	-0.071
-373.829	800.000	0.054	0.252
-372.815	-200.000	0.007	0.307
-371.800	21.286	0.312	-0.320
-370.785	-93.461	0.301	-0.105
-369.771	-34.374	-0.343	0.238
-368.756	111.587	0.216	0.330
-367.742	-119.135	-0.320	-0.070
-366.727	-77.023	0.375	0.165
-365.712	-68.446	-0.133	0.065
-364.698	164.628	-0.100	0.180
-363.683	-73.708	-0.285	-0.130
-362.669	-50.013	0.190	-0.114
-361.654	-200.000	-0.010	-0.062
-360.639	-89.401	-0.101	-0.037
-359.625	-135.468	-0.351	0.052
-358.610	-200.000	-0.037	-0.311
-357.596	174.415	-0.086	0.157
-356.581	-56.446	-0.204	0.114
-355.566	-9.406	-0.409	0.344
-354.552	-200.000	0.001	0.031
-353.537	-116.957	0.281	-0.064
-352.523	-4.730	0.167	-0.146
-351.508	28.169	0.202	-0.216
-350.493	-105.599	0.169	-0.048
-349.479	188.881	0.166	0.315
-348.464	-114.809	-0.221	-0.053
-347.450	618.040	-0.056	-0.179
-346.435	-200.000	0.002	-0.307
-345.420	-27.476	-0.376	-0.276
-344.406	-104.991	-0.624	-0.179
-343.391	800.000	-0.041	0.216
-342.377	444.607	-0.084	0.234
-341.362	-47.979	0.328	0.200
-340.348	-31.261	0.007	0.005
-339.333	9.420	-0.299	0.286
-338.318	-71.636	-0.330	0.155
-337.304	-131.067	-0.225	-0.038
-336.289	-18.398	0.389	-0.306
-335.275	666.640	-0.131	-0.431
-334.260	635.308	0.070	-0.227
-333.245	21.776	-0.282	-0.290
-332.231	676.843	-0.056	-0.184
-331.216	307.477	0.186	0.441
-330.202	65.308	-0.056	-0.072
-329.187	-194.990	-0.574	-0.005
-328.172	-102.721	-0.131	0.039
-327.158	9.834	-0.336	0.322
-326.143	-103.138	0.499	0.148
-325.129	-124.355	0.350	0.068
-324.114	-163.275	-0.438	-0.026
-323.099	-9.928	-0.258	0.217
-322.085	242.300	0.311	0.660
-321.070	-200.000	0.042	0.385
-320.056	800.000	-0.051	0.178
-319.041	800.000	-0.027	0.141
-318.026	-106.577	0.474	-0.132
-317.012	-0.008	0.107	-0.096
-315.997	-40.874	-0.316	0.206
-314.983	705.382	-0.118	0.395
-313.968	-16.385	0.079	0.063
-312.953	23.518	0.276	0.286
-311.939	-21.277	-0.304	-0.234
-310.924	10.465	0.178	0.171
-309.910	-52.454	-0.523	-0.304
-308.895	-11.338	0.160	0.133
-307.880	257.302	0.217	0.473
-306.866	-143.028	0.258	0.031
-305.851	4.456	0.377	-0.348
-304.837	92.853	-0.068	-0.096
-303.822	-124.117	0.149	0.029
-302.807	-66.609	-0.042	-0.021
-301.793	-112.998	-0.510	0.126
-300.778	800.000	0.071	0.332
-299.764	-49.812	0.286	-0.171
-298.749	46.589	-0.326	0.382
-297.735	-131.155	-0.351	0.058
-296.720	-181.036	-0.625	0.016
-295.705	40.486	0.174	-0.198
-294.691	-102.712	0.222	0.066
-293.676	5.820	-0.473	0.441
-292.662	-153.125	-0.168	0.015
-291.647	80.039	-0.111	-0.151
-290.632	-77.566	-0.435	0.189
-289.618	-51.105	-0.209	0.123
-288.603	-200.000	0.010	-0.119
-287.589	-82.475	0.064	-0.026
-286.574	18.836	-0.080	0.081
-285.559	-200.000	-0.060	0.340
-284.545	41.885	-0.219	0.250
-283.530	-108.574	-0.260	0.070
-282.516	15.315	-0.476	-0.471
-281.501	-27.094	-0.311	-0.228
-280.486	4.770	0.203	-0.188
-279.472	-76.913	-0.450	-0.197
-278.457	800.000	-0.060	-0.293
-277.443	-108.749	-0.405	0.108
-276.428	116.179	-0.234	-0.362
-275.413	-43.696	0.236	0.150
-274.399	747.454	-0.182	0.623
-273.384	800.000	0.077	-0.402
-272.370	134.302	0.070	0.114
-271.355	130.091	-0.032	0.052
-270.340	-160.073	-0.392	-0.026
-269.326	70.038	0.138	0.179
-268.311	-142.397	0.557	0.068
-267.297	11.645	0.136	-0.131
-266.282	-193.594	0.377	0.004
-265.267	32.053	-0.122	0.133
-264.253	800.000	0.027	-0.110
-263.238	-114.822	0.349	-0.083
-262.224	715.191	0.115	-0.385
-261.209	-66.741	0.321	0.159
-260.195	-94.542	0.350	-0.119
-259.180	-116.960	0.225	-0.051
-258.165	629.645	0.090	0.287
-257.151	322.958	-0.084	-0.201
-256.136	559.469	-0.160	0.490
-255.122	-43.869	0.292	0.184
-254.107	-51.401	0.437	-0.256
-253.092	222.622	0.107	-0.217
-252.078	-39.345	0.500	0.330
-251.063	-192.675	-0.110	-0.001
-250.049	-200.000	-0.001	-0.118
-249.034	35.674	0.191	-0.211
-248.019	1.707	-0.092	-0.084
-247.005	177.788	0.182	0.335
-245.990	93.618	0.151	-0.216
-244.976	443.165	-0.093	0.258
-243.961	800.000	0.055	0.231
-242.946	-124.415	-0.348	0.068
-241.932	-168.493	-0.171	0.008
-240.917	-50.480	0.065	-0.038
-239.903	16.412	-0.248	-0.247
-238.888	800.000	-0.052	0.216
-237.873	-183.768	0.188	-0.004
-236.859	-2.745	0.237	-0.208
-235.844	44.740	0.064	0.074
-234.830	-194.334	0.606	0.006
-233.815	45.266	0.150	-0.174
-232.800	-78.161	-0.503	-0.217
-231.786	-200.000	0.213	0.001
-230.771	-32.169	-0.554	0.389
-229.757	88.989	0.105	-0.148
-228.742	25.272	0.158	0.165
-227.727	323.861	-0.025	-0.059
-226.713	-200.000	0.006	-0.099
-225.698	-130.086	0.459	0.078
-224.684	-98.294	0.383	0.123
-223.669	800.000	-0.096	0.475
-222.655	237.804	-0.189	0.396
-221.640	667.000	-0.144	0.470
-220.625	-57.204	-0.096	-0.053
-219.611	-48.280	-0.282	0.170
-218.596	303.526	-0.159	0.371
-217.582	-126.460	0.548	0.101
-216.567	148.789	-0.049	-0.084
-215.552	-86.077	0.250	-0.096
-214.538	-200.000	0.385	0.000
-213.523	800.000	-0.055	-0.248
-212.509	183.422	-0.156	0.291
-211.494	-74.597	0.327	-0.147
-210.479	800.000	0.099	0.346
-209.465	525.539	-0.107	-0.318
-208.450	-94.075	0.527	-0.180
-207.436	-108.081	0.154	0.042
-206.421	619.638	0.103	-0.328
-205.406	-200.000	-0.001	-0.354
-204.392	18.984	0.089	0.090
-203.377	684.456	0.034	-0.112
-202.363	-135.346	-0.866	-0.129
-201.348	193.472	-0.150	-0.285
-200.333	63.331	-0.213	0.269
-199.319	800.000	0.038	0.207
-198.304	446.029	-0.115	-0.318
-197.290	-143.731	0.360	-0.042
-196.275	76.604	-0.162	0.216
-195.260	479.879	-0.215	0.614
-194.246	-109.657	-0.308	-0.081
-193.231	-189.643	0.267	-0.004
-192.217	336.257	0.238	-0.583
-191.202	36.375	-0.283	0.313
-190.187	113.927	-0.112	0.172
-189.173	-200.000	-0.051	-0.734
-188.158	60.670	-0.132	-0.164
-187.144	110.796	-0.223	-0.338
-186.129	147.839	-0.166	0.281
-185.114	-32.909	-0.060	0.042
-184.100	338.246	-0.078	0.190
-183.085	-127.967	-0.318	-0.057
-182.071	-100.519	-0.277	0.085
-181.056	185.087	0.285	0.532
-180.042	185.945	-0.187	0.350
-179.027	-57.175	-0.090	0.050
-178.012	111.267	0.167	-0.253
-176.998	-69.634	0.373	-0.179
-175.983	-64.932	0.644	-0.326
-174.969	-200.000	0.013	-0.589
-173.954	228.366	-0.131	0.269
-172.939	-123.493	-0.392	-0.078
-171.925	-200.000	0.033	-0.267
-170.910	-73.051	0.183	-0.084
-169.896	-88.125	0.061	-0.023
-168.881	-149.144	0.438	0.044
-167.866	425.987	0.041	0.112
-166.852	123.109	0.138	-0.217
-165.837	-16.730	0.323	0.256
-164.823	-136.866	0.343	0.049
-163.808	-200.000	0.036	-0.374
-162.793	-200.000	-0.001	0.051
-161.779	-200.000	-0.006	0.391
-160.764	-92.758	0.536	-0.187
-159.750	-42.066	0.095	-0.061
-158.735	-72.146	0.165	-0.076
-157.720	140.197	0.293	0.485
-156.706	-118.643	-0.106	0.023
-155.691	-138.943	0.307	-0.041
-154.677	148.655	-0.116	0.198
-153.662	800.000	0.049	0.194
-152.647	-200.000	0.034	0.325
-151.633	39.555	-0.332	-0.373
-150.618	-70.451	0.208	-0.098
-149.604	24.189	-0.139	0.144
-148.589	138.652	-0.059	-0.097
-147.574	-138.039	0.419	-0.058
-146.560	346.841	0.048	-0.119
-145.545	-100.267	-0.371	-0.115
-144.531	149.925	-0.115	-0.195
-143.516	-94.154	-0.293	0.100
-142.502	-124.208	0.507	-0.099
-141.487	-168.207	-0.316	-0.015
-140.472	-102.034	-0.325	0.098
-139.458	-64.370	0.053	0.027
-138.443	-69.922	-0.334	0.159
-137.429	-64.420	-0.077	-0.039
-136.414	-76.301	0.291	-0.128
-135.399	-113.471	0.356	-0.087
-134.385	-200.000	-0.007	0.360
-133.370	800.000	-0.122	0.465
-132.356	-200.000	-0.013	-0.082
-131.341	23.984	0.313	-0.323
-130.326	632.983	0.027	0.086
-129.312	800.000	-0.107	-0.396
-128.297	-126.226	-0.124	0.023
-127.283	-47.083	0.240	-0.147
-126.268	-200.000	0.008	-0.524
-125.253	-39.569	-0.334	0.218
-124.239	-94.393	-0.033	-0.011
-123.224	-86.358	0.135	0.052
-122.210	93.190	-0.129	-0.183
-121.195	800.000	-0.110	-0.606
-120.180	800.000	-0.034	0.159
-119.166	-138.661	-0.371	0.050
-118.151	-78.808	-0.636	0.270
-117.137	800.000	-0.083	0.312
-116.122	203.072	-0.149	0.288
-115.107	-91.014	0.385	-0.138
-114.093	292.707	0.147	-0.337
-113.078	-62.308	0.261	-0.136
-112.064	-136.939	0.128	0.018
-111.049	-63.335	0.168	0.086
-110.034	-200.000	0.030	-0.220
-109.020	271.539	-0.197	0.435
-108.005	800.000	0.046	0.164
-106.991	699.730	-0.068	-0.225
-105.976	800.000	-0.081	-0.296
-104.962	458.098	-0.077	-0.215
-103.947	62.632	-0.061	0.076
-102.932	23.234	0.136	-0.139
-101.918	244.324	0.086	0.181
-100.903	163.374	-0.128	-0.227
-99.889	-109.563	0.442	0.116
-98.874	97.176	-0.293	0.421
-97.859	800.000	0.090	-0.395
-96.845	-67.201	-0.149	-0.073
-95.830	202.666	-0.070	-0.136
-94.816	-86.760	0.428	-0.163
-93.801	168.584	-0.249	-0.444
-92.786	244.894	0.243	-0.514
-91.772	-59.613	-0.234	-0.125
-90.757	800.000	-0.099	-0.487
-89.743	143.104	-0.255	0.425
-88.728	-180.526	-0.237	0.006
-87.713	800.000	0.094	-0.336
-86.699	-73.164	-0.292	-0.133
-85.684	-133.926	0.055	-0.008
-84.670	-32.165	0.205	0.143
-83.655	-165.622	-0.454	0.024
-82.640	228.295	0.152	0.310
-81.626	485.029	0.174	0.497
-80.611	800.000	-0.051	0.196
-79.597	512.725	-0.074	0.216
-78.582	27.036	0.389	0.408
-77.567	-82.057	-0.326	0.132
-76.553	-200.000	0.004	-0.308
-75.538	148.545	-0.139	-0.235
-74.524	-21.859	-0.187	0.142
-73.509	19.235	-0.120	-0.121
-72.494	84.079	0.227	0.311
-71.480	324.962	0.218	-0.523
-70.465	288.588	-0.250	-0.568
-69.451	88.856	0.132	0.184
-68.436	-112.548	-0.384	0.095
-67.422	-98.085	0.331	-0.106
-66.407	-57.050	0.177	-0.097
-65.392	-98.948	0.235	0.074
-64.378	-52.808	-0.199	0.114
-63.363	-200.000	-0.006	-0.293
-62.349	437.873	-0.119	0.325
-61.334	-35.451	-1.493	-1.011
-60.319	-51.372	0.058	-0.034
-59.305	312.986	-2.544	-5.995
-58.290	63.875	2.422	3.043
-57.276	726.747	3.051	10.225
-56.261	-200.000	13.459	212.012
-55.246	470.375	1159.053	3270.118
-54.232	64.251	2810.720	3536.538
-53.217	72.461	2712.658	3535.007
-52.203	55.734	2438.806	2953.092
-51.188	47.391	2085.403	2427.340
-50.173	40.259	1954.320	2195.536
-49.159	38.410	1942.838	2162.033
-48.144	38.148	1939.612	2155.449
-47.130	38.037	1937.180	2151.432
-46.115	37.847	1936.179	2148.125
-45.100	37.899	1935.038	2147.354
-44.086	37.917	1933.144	2145.366
-43.071	37.894	1930.940	2142.583
-42.057	37.697	1931.037	2140.433
-41.042	37.835	1928.829	2139.423
-40.027	37.771	1927.710	2137.389
-39.013	37.779	1925.208	2134.618
-37.998	37.608	1925.656	2133.148
-36.984	37.783	1923.549	2132.649
-35.969	37.733	1922.239	2130.562
-34.954	37.612	1921.165	2127.958
-33.940	37.861	1918.820	2128.013
-32.925	37.648	1918.311	2125.025
-31.911	37.764	1916.374	2124.069
-30.896	37.721	1915.190	2122.195
-29.881	37.688	1914.237	2120.693
-28.867	37.718	1911.990	2118.454
-27.852	37.523	1911.911	2116.147
-26.838	37.603	1910.432	2115.297
-25.823	37.600	1908.823	2113.406
-24.809	37.558	1907.037	2110.887
-23.794	37.639	1906.358	2110.932
-22.779	37.646	1904.835	2109.242
-21.765	37.480	1904.755	2107.254
-20.750	37.518	1902.808	2105.434
-19.736	37.476	1901.745	2103.717
-18.721	37.303	1900.158	2099.994
-17.706	37.535	1898.512	2100.607
-16.692	37.503	1897.011	2098.526
-15.677	37.399	1896.979	2097.273
-14.663	37.283	1896.083	2094.946
-13.648	37.499	1893.459	2094.305
-12.633	37.393	1892.783	2092.322
-11.619	37.388	1890.764	2089.947
-10.604	37.411	1889.668	2088.906
-9.590	37.359	1889.091	2087.619
-8.575	37.274	1888.046	2085.470
-7.560	37.243	1887.153	2084.063
-6.546	37.396	1884.636	2082.848
-5.531	37.346	1883.475	2080.948
-4.517	37.293	1882.864	2079.616
-3.502	37.445	1881.373	2079.529
-2.487	37.339	1881.401	2078.330
-1.473	37.456	1877.496	2075.196
-0.458	37.026	1855.841	2046.614
0.556	31.995	1983.645	2117.861
1.571	29.862	2198.093	2319.696
2.586	31.310	2245.236	2387.782
3.600	31.539	2247.674	2393.038
4.615	31.665	2247.567	2394.258
5.629	31.351	2246.340	2388.629
6.644	31.346	2243.991	2385.785
7.659	31.612	2241.818	2386.591
8.673	31.861	2240.426	2388.014
9.688	31.397	2243.866	2385.440
10.702	28.107	2313.017	2415.081
11.717	24.657	2376.325	2433.760
12.731	12.668	2345.964	2239.391
13.746	2.136	2316.779	2068.452
14.761	0.602	2312.626	2043.640
15.775	0.369	2309.697	2037.639
16.790	0.303	2308.972	2035.855
17.804	0.180	2307.570	2032.715
18.819	0.304	2305.640	2032.451
19.834	0.241	2304.769	2030.583
20.848	0.189	2302.793	2027.893
21.863	0.257	2301.622	2027.537
22.877	0.269	2298.956	2025.113
23.892	0.246	2296.821	2022.675
24.907	0.158	2295.393	2019.995
25.921	0.201	2293.715	2018.856
26.936	0.303	2290.811	2017.428
27.950	0.201	2288.041	2013.373
28.965	0.212	2286.193	2011.659
29.980	0.249	2284.668	2010.572
30.994	0.491	2282.440	2011.616
32.009	6.666	2304.453	2114.126
33.023	21.186	2348.050	2351.838
34.038	27.891	2362.102	2456.622
35.053	28.896	2361.401	2469.182
36.067	29.060	2358.650	2468.216
37.082	28.740	2356.982	2461.863
38.096	28.661	2355.346	2458.798
39.111	29.147	2352.568	2462.132
40.126	29.599	2351.809	2467.112
41.140	29.957	2351.566	2471.377
42.155	29.723	2349.270	2465.529
43.169	29.694	2346.956	2462.407
44.184	29.969	2344.258	2462.969
45.199	29.904	2343.024	2460.510
46.213	29.882	2341.450	2458.261
47.228	29.796	2341.313	2456.672
48.242	29.902	2338.719	2455.080
49.257	29.859	2337.480	2452.915
50.271	30.236	2335.562	2455.614
51.286	30.132	2333.127	2451.382
52.301	29.545	2330.756	2440.799
53.315	29.604	2330.438	2440.954
54.330	30.515	2331.729	2454.122
55.344	31.048	2329.609	2458.659
56.359	31.214	2326.857	2457.654
57.374	30.947	2325.615	2452.517
58.388	30.819	2320.900	2445.565
59.403	30.830	2317.868	2442.218
60.417	30.880	2315.759	2440.368
61.432	31.152	2313.977	2441.771
62.447	31.021	2311.753	2437.418
63.461	30.905	2308.913	2432.606
64.476	30.735	2307.262	2428.345
65.490	31.154	2307.709	2434.018
66.505	31.336	2305.397	2433.668
67.520	30.407	2302.457	2418.130
68.534	29.044	2296.382	2393.651
69.549	28.798	2291.700	2385.281
70.563	28.696	2290.159	2382.056
71.578	28.697	2288.262	2379.817
72.593	28.981	2286.440	2381.322
73.607	29.255	2285.489	2383.613
74.622	29.245	2283.480	2381.106
75.636	28.868	2279.705	2371.991
76.651	28.753	2277.584	2368.014
77.666	28.725	2276.669	2366.409
78.680	28.771	2274.098	2364.057
79.695	28.842	2272.301	2362.828
80.709	28.785	2271.709	2361.182
81.724	28.866	2269.306	2359.453
82.739	28.780	2267.132	2355.803
83.753	28.739	2265.518	2353.311
84.768	28.758	2263.186	2350.860
85.782	28.626	2261.623	2347.252
86.797	28.661	2259.588	2345.310
87.812	28.462	2257.150	2339.940
88.826	28.289	2254.843	2335.053
89.841	28.323	2252.774	2333.064
90.855	28.605	2250.455	2333.990
91.870	28.390	2248.043	2328.467
92.884	28.317	2247.361	2326.550
93.899	28.483	2245.912	2326.887
94.914	28.661	2246.203	2329.187
95.928	29.331	2248.101	2339.416
96.943	29.614	2247.008	2341.612
97.957	28.911	2242.495	2327.687
98.972	28.312	2238.321	2315.469
99.987	28.114	2233.974	2308.173
101.001	28.136	2231.866	2306.003
102.016	28.265	2230.553	2306.009
103.030	28.190	2228.243	2302.396
104.045	28.583	2225.873	2304.630
105.060	28.990	2225.019	2308.603
106.074	28.771	2224.026	2304.531
107.089	28.637	2221.225	2299.671
108.103	28.616	2220.323	2298.202
109.118	28.941	2218.896	2300.537
110.133	28.899	2216.522	2297.270
111.147	28.745	2214.347	2292.805
112.162	28.587	2213.736	2289.915
113.176	28.747	2211.063	2288.879
114.191	28.868	2209.276	2288.274
115.206	28.838	2207.965	2286.260
116.220	28.772	2206.402	2283.550
117.235	28.792	2203.940	2280.980
118.249	28.738	2202.198	2278.235
119.264	29.084	2200.971	2280.996
120.279	29.054	2199.693	2279.023
121.293	28.945	2197.770	2275.400
122.308	28.886	2196.600	2273.183
123.322	28.689	2194.746	2268.551
124.337	28.636	2193.558	2266.399
125.352	29.726	2197.261	2283.491
126.366	30.455	2196.788	2291.766
127.381	29.549	2189.409	2272.592
128.395	28.786	2185.958	2259.320
129.410	28.862	2184.993	2258.989
130.424	28.827	2182.284	2255.487
131.439	28.921	2180.532	2254.562
132.454	28.812	2178.687	2251.045
133.468	28.850	2177.097	2249.602
134.483	28.947	2176.381	2249.779
135.497	29.060	2174.304	2248.755
136.512	29.326	2171.802	2249.151
137.527	29.130	2169.572	2244.176
138.541	28.751	2167.441	2237.070
139.556	28.487	2166.559	2232.653
140.570	28.566	2165.198	2231.947
141.585	28.705	2163.153	2231.273
142.600	28.828	2162.174	2231.495
143.614	28.691	2160.030	2227.348
144.629	28.785	2159.353	2227.528
145.643	28.697	2157.232	2224.003
146.658	28.554	2154.241	2218.912
147.673	28.270	2151.790	2212.671
148.687	28.393	2151.742	2213.857
149.702	28.538	2150.981	2214.563
150.716	28.585	2149.186	2213.024
151.731	28.622	2147.744	2211.721
152.746	28.821	2147.940	2214.070
153.760	28.580	2147.369	2210.299
154.775	29.027	2149.124	2217.253
155.789	29.389	2147.742	2219.946
156.804	28.817	2141.254	2206.070
157.819	28.258	2136.089	2193.756
158.833	27.981	2134.564	2188.596
159.848	28.370	2133.339	2191.759
160.862	28.722	2132.434	2194.797
161.877	28.851	2131.964	2195.590
162.892	29.105	2131.411	2197.813
163.906	29.223	2131.581	2199.138
164.921	29.444	2129.197	2199.061
165.935	29.374	2126.245	2194.909
166.950	29.144	2124.594	2190.197
167.964	28.935	2121.296	2184.044
168.979	28.822	2119.468	2180.555
169.994	28.862	2117.901	2179.160
171.008	28.716	2115.978	2175.173
172.023	28.623	2114.971	2172.772
173.037	28.793	2114.587	2174.141
174.052	28.986	2113.119	2174.665
175.067	29.085	2111.674	2174.097
176.081	28.900	2109.450	2169.352
177.096	28.969	2108.965	2169.404
178.110	28.866	2106.680	2165.586
179.125	28.740	2105.200	2162.312
180.140	29.104	2103.168	2164.265
181.154	29.077	2103.446	2163.971
182.169	29.095	2102.330	2162.781
183.183	29.305	2101.532	2164.176
184.198	30.403	2103.449	2178.850
185.213	30.122	2101.349	2173.107
186.227	29.242	2096.799	2157.784
187.242	28.982	2093.507	2151.088
188.256	28.908	2091.872	2148.274
189.271	28.931	2091.080	2147.480
190.286	29.047	2089.138	2146.583
191.300	28.947	2086.661	2142.617
192.315	28.747	2084.991	2138.304
193.329	29.047	2084.086	2140.626
194.344	29.396	2083.524	2143.865
195.359	29.488	2082.116	2143.237
196.373	29.654	2079.760	2142.488
197.388	29.347	2077.046	2135.867
198.402	29.079	2074.432	2129.803
199.417	28.975	2072.611	2126.477
200.432	29.021	2071.159	2125.262
201.446	28.937	2069.889	2122.734
202.461	28.719	2067.821	2117.826
203.475	28.572	2065.476	2113.469
204.490	28.524	2062.310	2109.419
205.504	28.399	2061.008	2106.394
206.519	28.222	2059.148	2102.198
207.534	28.494	2056.941	2102.826
208.548	28.720	2056.713	2104.946
209.563	28.335	2054.332	2097.829
210.577	28.189	2053.794	2095.353
211.592	28.704	2053.373	2100.596
212.607	28.764	2053.614	2101.280
213.621	28.630	2053.110	2098.974
214.636	28.665	2050.892	2096.858
215.650	28.444	2048.039	2091.156
216.665	28.421	2045.629	2088.173
217.680	28.565	2044.301	2088.223
218.694	28.792	2043.477	2089.718
219.709	28.551	2042.086	2085.293
220.723	28.807	2041.281	2087.146
221.738	29.045	2039.501	2087.791
222.753	29.084	2036.857	2085.284
223.767	28.736	2035.461	2079.636
224.782	28.568	2032.610	2074.566
225.796	28.704	2031.487	2074.721
226.811	29.069	2030.935	2078.045
227.826	29.166	2029.768	2077.709
228.840	29.085	2028.478	2075.226
229.855	28.899	2026.943	2071.292
230.869	28.752	2024.356	2066.742
231.884	28.495	2022.510	2061.705
232.899	28.637	2021.153	2061.685
233.913	28.766	2021.678	2063.427
234.928	29.143	2020.693	2066.424
235.942	29.300	2018.697	2065.910
236.957	29.125	2017.457	2062.420
237.972	29.141	2016.291	2061.165
238.986	28.905	2015.444	2057.398
240.001	28.821	2012.792	2053.497
241.015	28.578	2011.347	2049.055
242.030	29.109	2012.000	2055.433
243.045	30.232	2013.745	2069.564
244.059	30.739	2012.047	2073.255
245.074	29.869	2006.668	2057.739
246.088	29.247	2002.882	2046.672
247.103	29.303	2001.475	2045.614
248.117	29.306	1999.808	2043.697
249.132	29.242	1998.468	2041.371
250.147	29.056	1995.893	2036.432
251.161	28.920	1994.619	2033.382
252.176	28.976	1993.315	2032.425
253.190	28.903	1990.689	2028.695
254.205	28.773	1988.058	2024.331
255.220	28.869	1987.538	2024.624
256.234	28.719	1986.795	2021.963
257.249	28.478	1984.904	2017.132
258.263	28.584	1984.385	2017.531
259.278	28.822	1983.581	2019.106
260.293	28.760	1981.429	2015.993
261.307	28.663	1979.322	2012.540
262.322	28.648	1977.058	2009.828
263.336	28.377	1975.017	2004.535
264.351	28.118	1973.091	1999.493
265.366	28.291	1972.289	2000.336
266.380	28.448	1971.677	2001.206
267.395	28.337	1969.146	1997.175
268.409	28.147	1967.620	1993.309
269.424	28.444	1967.333	1996.034
270.439	28.450	1966.701	1995.218
271.453	28.849	1966.431	1999.073
272.468	29.640	1967.571	2008.636
273.482	29.670	1965.342	2006.449
274.497	28.630	1959.863	1989.293
275.512	28.345	1955.961	1981.993
276.526	28.371	1953.564	1979.607
277.541	28.366	1952.013	1977.741
278.555	28.207	1950.855	1974.610
279.570	27.958	1948.719	1969.518
280.585	28.084	1946.736	1968.644
281.599	28.164	1945.915	1968.434
282.614	28.401	1946.079	1970.933
283.628	28.865	1946.011	1975.643
284.643	29.307	1944.602	1978.741
285.657	29.237	1944.015	1977.155
286.672	29.183	1941.301	1973.578
287.687	28.835	1939.692	1967.953
288.701	28.564	1937.972	1963.060
289.716	28.651	1936.212	1961.978
290.730	28.697	1935.947	1961.972
291.745	28.952	1934.560	1963.070
292.760	28.995	1933.538	1962.259
293.774	28.821	1933.550	1960.170
294.789	29.007	1932.790	1961.150
295.803	29.178	1930.608	1960.540
296.818	29.153	1929.654	1959.070
297.833	29.349	1927.879	1959.122
298.847	29.214	1927.078	1956.629
299.862	29.200	1925.126	1954.263
300.876	29.426	1924.948	1956.265
301.891	30.504	1925.653	1968.233
302.906	30.446	1924.900	1966.608
303.920	29.558	1921.386	1953.344
304.935	29.300	1917.832	1946.756
305.949	29.211	1915.829	1943.551
306.964	29.650	1914.598	1946.714
307.979	29.504	1912.129	1942.428
308.993	28.736	1909.920	1931.836
310.008	28.664	1907.850	1928.756
311.022	28.949	1907.252	1930.930
312.037	29.062	1905.817	1930.433
313.052	28.867	1903.005	1925.303
314.066	28.565	1901.194	1920.059
315.081	28.732	1899.688	1920.062
316.095	28.753	1899.386	1919.756
317.110	28.609	1897.970	1916.581
318.125	28.658	1895.946	1914.817
319.139	28.421	1895.214	1911.371
320.154	28.471	1893.946	1910.382
321.168	28.555	1890.822	1907.882
322.183	28.501	1890.590	1906.859
323.197	28.803	1889.986	1909.174
324.212	28.702	1888.240	1906.127
325.227	28.384	1886.468	1900.795
326.241	28.312	1883.864	1897.197
327.256	28.457	1882.084	1896.677
328.270	28.363	1882.284	1895.673
329.285	28.388	1882.580	1896.006
330.300	28.644	1883.454	1899.329
331.314	29.395	1883.061	1906.502
332.329	29.772	1880.718	1907.820
333.343	29.025	1876.029	1895.099
334.358	28.664	1873.630	1888.724
335.373	28.692	1872.550	1887.697
336.387	28.674	1870.205	1884.920
337.402	28.380	1869.093	1880.543
338.416	28.475	1867.778	1879.967
339.431	28.429	1866.480	1877.965
340.446	28.665	1865.601	1879.284
341.460	28.867	1863.889	1879.414
342.475	29.054	1862.599	1879.805
343.489	28.593	1860.235	1872.471
344.504	28.370	1858.919	1868.633
345.519	28.616	1857.393	1869.397
346.533	28.822	1855.530	1869.401
347.548	28.928	1853.976	1868.700
348.562	28.766	1852.130	1864.960
349.577	28.929	1852.008	1866.276
350.592	29.031	1851.613	1866.690
351.606	29.340	1851.138	1869.139
352.621	29.274	1849.653	1866.742
353.635	28.941	1848.754	1862.229
354.650	28.759	1845.689	1857.068
355.665	28.678	1843.978	1854.305
356.679	28.787	1843.213	1854.419
357.694	28.952	1844.100	1856.757
358.708	29.313	1842.509	1858.591
359.723	29.519	1842.531	1860.480
360.738	29.900	1842.493	1864.078
361.752	29.686	1839.801	1858.964
362.767	29.419	1836.214	1852.427
363.781	29.205	1833.841	1847.656
364.796	29.405	1833.160	1848.759
365.810	29.279	1831.754	1845.857
366.825	28.876	1829.644	1839.459
367.840	28.759	1827.970	1836.378
368.854	28.588	1826.646	1833.113
369.869	28.477	1824.958	1830.084
370.883	28.397	1824.131	1828.233
371.898	28.552	1821.587	1827.015
372.913	28.609	1820.714	1826.493
373.927	28.489	1819.196	1823.547
374.942	28.436	1818.798	1822.407
375.956	28.524	1817.573	1821.832
376.971	28.499	1814.102	1817.889
377.986	28.423	1814.145	1816.958
379.000	28.637	1813.272	1817.996
380.015	28.650	1811.864	1816.493
381.029	28.690	1809.085	1813.894
382.044	28.717	1808.585	1813.442
383.059	28.617	1806.207	1809.849
384.073	28.375	1805.220	1806.248
385.088	28.133	1804.281	1802.693
386.102	28.592	1802.424	1805.160
387.117	28.738	1801.284	1805.241
388.132	28.750	1801.377	1805.237
389.146	28.786	1802.059	1806.065
390.161	29.523	1800.784	1811.841
391.175	29.651	1798.002	1810.090
392.190	28.842	1792.796	1796.689
393.205	28.452	1790.963	1790.803
394.219	28.481	1789.304	1789.218
395.234	28.201	1788.395	1785.352
396.248	28.211	1785.906	1782.747
397.263	28.187	1783.126	1779.525
398.278	28.008	1782.074	1776.515
399.292	28.084	1781.390	1776.362
400.307	28.510	1781.704	1780.621
401.321	28.731	1780.540	1781.398
402.336	28.568	1779.061	1778.115
403.350	28.695	1776.538	1776.616
404.365	28.747	1776.830	1777.201
405.380	28.944	1775.247	1777.317
406.394	28.686	1774.278	1773.629
407.409	28.507	1772.480	1769.883
408.423	28.617	1769.631	1767.897
409.438	28.640	1768.621	1766.894
410.453	28.593	1769.098	1766.704
411.467	28.700	1767.507	1765.940
412.482	28.775	1766.173	1765.125
413.496	28.874	1765.667	1765.356
414.511	28.902	1764.455	1764.211
415.526	28.907	1761.630	1761.221
416.540	29.093	1760.590	1761.760
417.555	29.206	1759.484	1761.524
418.569	29.103	1759.660	1760.501
419.584	29.240	1760.478	1762.423
420.599	29.272	1758.334	1760.376
421.613	28.846	1756.476	1754.223
422.628	28.748	1755.596	1752.190
423.642	29.161	1754.223	1754.569
424.657	28.881	1752.324	1749.780
425.672	28.486	1750.233	1743.713
426.686	28.888	1749.146	1746.256
427.701	29.123	1748.786	1747.930
428.715	29.139	1747.505	1746.593
429.730	29.458	1746.805	1748.718
430.745	29.524	1745.613	1747.946
431.759	29.306	1743.355	1743.410
432.774	28.836	1741.622	1736.995
433.788	27.681	1738.084	1722.308
434.803	26.835	1736.426	1712.434
435.818	26.955	1735.011	1711.969
436.832	26.904	1734.389	1710.668
437.847	26.058	1728.716	1696.874
438.861	16.899	1701.384	1584.217
439.876	3.804	1676.887	1439.303
440.890	0.557	1670.797	1403.590
441.905	0.497	1669.162	1401.493
442.920	0.283	1668.297	1398.605
443.934	0.276	1666.519	1396.876
444.949	0.233	1665.695	1395.624
445.963	0.202	1665.239	1394.786
446.978	0.288	1664.260	1394.597
447.993	0.252	1663.058	1393.090
449.007	0.378	1660.919	1392.296
450.022	0.363	1658.041	1389.579
451.036	0.306	1657.248	1388.223
452.051	1.494	1664.009	1404.757
453.066	12.652	1690.102	1531.439
454.080	24.450	1709.148	1659.438
455.095	28.076	1716.091	1699.933
456.109	30.708	1720.494	1728.707
457.124	31.707	1720.959	1738.289
458.139	30.947	1718.980	1729.003
459.153	30.712	1716.296	1723.907
460.168	30.564	1714.420	1720.442
461.182	30.359	1713.076	1716.981
462.197	30.528	1711.193	1716.459
463.212	30.539	1709.818	1714.971
464.226	30.475	1709.461	1713.819
465.241	30.741	1708.924	1715.542
466.255	31.023	1707.683	1716.697
467.270	31.071	1706.451	1715.695
468.285	30.905	1704.305	1711.806
469.299	30.833	1703.529	1710.155
470.314	30.905	1702.482	1709.558
471.328	31.092	1701.139	1709.731
472.343	31.257	1699.923	1709.824
473.358	31.162	1698.237	1707.053
474.372	30.945	1697.559	1704.171
475.387	30.976	1696.937	1703.626
476.401	31.137	1693.948	1701.897
477.416	30.847	1692.570	1697.650
478.430	31.110	1691.893	1699.181
479.445	31.180	1690.644	1698.356
480.460	30.933	1688.716	1693.966
481.474	30.870	1688.242	1692.707
482.489	31.126	1687.724	1694.321
483.503	31.262	1685.429	1693.059
484.518	31.088	1684.838	1690.674
485.533	31.268	1683.953	1691.225
486.547	31.403	1682.854	1691.144
487.562	31.560	1681.265	1690.769
488.576	31.715	1680.545	1691.249
489.591	31.867	1679.115	1690.987
490.606	31.820	1677.964	1689.202
491.620	31.680	1676.435	1686.194
492.635	31.723	1674.907	1684.844
493.649	31.434	1673.099	1680.216
494.664	30.937	1671.681	1674.102
495.679	30.542	1669.341	1667.997
496.693	30.851	1668.025	1669.265
497.708	31.181	1667.229	1671.236
498.722	31.418	1667.549	1673.494
499.737	31.640	1665.956	1673.688
500.752	31.589	1663.754	1670.824
501.766	31.304	1662.782	1667.090
502.781	31.402	1661.325	1666.306
503.795	31.348	1659.455	1663.751
504.810	31.170	1658.656	1661.152
505.825	31.335	1658.162	1661.936
506.839	31.402	1656.486	1660.655
507.854	31.270	1655.199	1657.990
508.868	31.162	1652.913	1654.537
509.883	30.913	1652.086	1651.296
510.898	30.783	1650.347	1648.203
511.912	30.755	1648.207	1645.623
512.927	30.504	1646.311	1641.299
513.941	30.342	1645.629	1638.986
514.956	30.914	1646.375	1644.613
515.971	31.846	1645.278	1651.572
516.985	31.616	1643.346	1647.406
518.000	31.115	1642.056	1641.481
519.014	31.029	1640.296	1638.773
520.029	30.938	1638.905	1636.379
521.043	30.760	1636.886	1632.600
522.058	30.760	1635.428	1630.944
523.073	30.760	1635.808	1631.129
524.087	31.053	1634.842	1632.548
525.102	31.193	1633.765	1632.508
526.116	31.076	1632.611	1630.132
527.131	31.060	1631.723	1628.913
528.146	31.371	1631.223	1630.947
529.160	31.652	1630.318	1632.309
530.175	31.680	1629.437	1631.476
531.189	31.831	1628.725	1631.889
532.204	31.900	1627.411	1630.980
533.219	31.666	1624.857	1626.186
534.233	31.308	1623.990	1622.003
535.248	31.213	1623.175	1620.163
536.262	31.599	1622.702	1622.859
537.277	32.086	1622.095	1626.300
538.292	32.253	1620.853	1626.318
539.306	32.343	1618.457	1624.494
540.321	32.046	1616.601	1619.860
541.335	31.566	1615.255	1614.163
542.350	31.990	1614.143	1616.529
543.365	32.340	1612.889	1618.108
544.379	32.434	1612.739	1618.575
545.394	32.490	1611.336	1617.453
546.408	31.856	1607.862	1608.312
547.423	31.224	1606.672	1601.486
548.438	31.163	1605.704	1599.800
549.452	31.467	1604.371	1600.895
550.467	31.444	1603.732	1599.868
551.481	31.464	1603.582	1599.702
552.496	31.616	1603.086	1600.317
553.511	32.051	1601.945	1602.721
554.525	31.979	1600.713	1600.679
555.540	31.816	1600.159	1598.540
556.554	31.941	1598.504	1597.761
557.569	31.934	1595.586	1594.601
558.583	31.717	1594.088	1591.053
559.598	31.590	1593.291	1588.986
560.613	31.568	1592.733	1588.055
561.627	31.503	1591.307	1585.886
562.642	31.387	1589.225	1582.631
563.656	31.240	1587.773	1579.752
564.671	31.225	1586.120	1577.789
565.686	31.087	1584.694	1575.007
566.700	31.020	1582.971	1572.543
567.715	31.060	1581.714	1571.440
568.729	31.294	1581.343	1572.871
569.744	31.864	1580.959	1577.120
570.759	32.131	1580.245	1578.473
571.773	31.760	1578.712	1573.623
572.788	31.586	1577.081	1570.342
573.802	31.260	1575.065	1565.401
574.817	31.091	1572.755	1561.490
575.832	31.095	1572.004	1560.591
576.846	31.431	1571.501	1562.727
577.861	31.698	1570.355	1563.642
578.875	31.731	1570.367	1563.747
579.890	31.933	1570.593	1565.480
580.905	31.890	1569.142	1563.490
581.919	31.988	1569.318	1564.292
582.934	32.318	1568.067	1565.626
583.948	32.297	1566.235	1563.429
584.963	32.165	1564.752	1560.662
585.978	31.841	1562.781	1555.805
586.992	31.688	1562.158	1553.724
588.007	32.137	1561.568	1556.693
589.021	31.925	1558.691	1551.875
590.036	31.064	1558.006	1543.847
591.051	31.723	1557.724	1548.864
592.065	32.499	1556.334	1553.736
593.080	32.614	1555.629	1553.800
594.094	32.875	1553.493	1553.644
595.109	32.292	1551.000	1546.147
596.123	31.645	1549.622	1539.237
597.138	31.945	1548.937	1540.855
598.153	31.925	1547.930	1539.503
599.167	31.940	1545.904	1537.428
600.182	31.822	1545.386	1535.752
601.196	31.944	1544.853	1536.044
602.211	32.038	1543.478	1535.267
603.226	31.905	1542.493	1533.011
604.240	32.153	1540.908	1533.285
605.255	32.314	1539.528	1533.049
606.269	32.205	1538.903	1531.351
607.284	32.152	1537.451	1529.292
608.299	32.227	1535.654	1527.933
609.313	32.046	1533.846	1524.474
610.328	31.915	1532.813	1522.195
611.342	32.179	1531.449	1522.812
612.357	32.015	1530.414	1520.264
613.372	31.843	1529.875	1518.144
614.386	31.707	1529.065	1516.053
615.401	31.844	1527.816	1515.750
616.415	31.705	1526.704	1513.331
617.430	31.371	1525.926	1509.669
618.445	31.276	1523.542	1506.360
619.459	31.163	1522.341	1504.079
620.474	31.232	1522.136	1504.251
621.488	31.611	1522.288	1507.295
622.503	32.238	1521.314	1511.217
623.518	31.883	1519.311	1506.184
624.532	31.361	1517.022	1499.526
625.547	31.395	1515.314	1497.931
626.561	31.199	1515.769	1496.619
627.576	30.931	1515.586	1494.102
628.591	31.482	1514.116	1496.910
629.605	32.047	1513.802	1500.962
630.620	32.332	1513.354	1502.628
631.634	32.722	1512.705	1504.927
632.649	32.920	1511.595	1505.232
633.663	32.660	1508.786	1500.177
634.678	32.022	1507.161	1493.276
635.693	31.454	1504.542	1485.972
636.707	31.217	1502.543	1481.927
637.722	31.255	1502.174	1481.689
638.736	31.593	1502.035	1484.074
639.751	32.111	1500.800	1486.793
640.766	32.014	1500.050	1485.099
641.780	31.800	1498.772	1481.956
642.795	31.951	1497.959	1482.178
643.809	32.161	1497.505	1483.215
644.824	32.198	1496.686	1482.522
645.839	32.524	1496.014	1484.259
646.853	32.303	1495.360	1481.683
647.868	32.381	1492.409	1479.200
648.882	32.220	1491.280	1476.636
649.897	32.176	1490.000	1474.838
650.912	32.043	1488.667	1472.297
651.926	32.417	1488.304	1474.707
652.941	32.651	1486.733	1474.821
653.955	32.202	1484.440	1468.840
654.970	31.410	1481.582	1459.624
655.985	31.155	1481.082	1456.951
656.999	31.091	1479.409	1454.629
658.014	31.354	1478.395	1455.520
659.028	31.995	1478.341	1460.306
660.043	32.381	1479.069	1463.873
661.058	32.548	1477.938	1463.886
662.072	32.667	1475.992	1462.706
663.087	32.101	1475.122	1457.255
664.101	32.043	1473.516	1455.046
665.116	32.226	1472.455	1455.244
666.131	32.173	1470.938	1453.164
667.145	32.231	1470.083	1452.595
668.160	32.049	1469.432	1450.367
669.174	32.227	1467.204	1449.374
670.189	32.345	1466.084	1449.004
671.204	32.303	1466.076	1448.496
672.218	32.153	1465.560	1446.653
673.233	32.333	1464.489	1446.818
674.247	32.429	1462.428	1445.352
675.262	32.310	1460.773	1442.625
676.276	32.206	1459.843	1440.726
677.291	32.143	1459.597	1439.830
678.306	32.136	1458.549	1438.570
679.320	32.041	1457.340	1436.474
680.335	31.782	1456.599	1433.576
681.349	31.940	1455.197	1433.239
682.364	31.928	1454.806	1432.593
683.379	31.868	1452.726	1429.911
684.393	31.728	1450.718	1426.696
685.408	31.766	1449.804	1425.913
686.422	31.738	1448.616	1424.365
687.437	31.505	1447.057	1420.877
688.452	31.244	1446.773	1418.438
689.466	31.046	1445.707	1415.712
690.481	31.320	1443.453	1415.422
691.495	31.734	1443.847	1418.791
692.510	32.457	1445.156	1425.417
693.525	32.929	1443.730	1427.425
694.539	32.578	1441.793	1422.675
695.554	31.727	1440.128	1414.407
696.568	31.188	1437.981	1408.042
697.583	31.151	1436.768	1406.406
698.598	31.228	1436.271	1406.333
699.612	31.440	1435.058	1406.582
700.627	31.665	1433.416	1406.501
701.641	31.882	1433.607	1408.163
702.656	31.888	1432.623	1407.070
703.671	31.942	1432.508	1407.196
704.685	32.089	1431.964	1407.601
705.700	32.343	1430.045	1407.457
706.714	32.077	1428.390	1403.659
707.729	32.027	1427.338	1402.086
708.744	32.059	1426.785	1401.616
709.758	32.155	1425.208	1400.613
710.773	31.540	1423.182	1393.850
711.787	31.301	1421.446	1390.200
712.802	31.978	1420.757	1394.421
713.816	32.261	1420.867	1396.477
714.831	32.394	1419.724	1396.175
715.846	32.311	1418.395	1394.083
716.860	32.365	1416.745	1392.697
717.875	32.122	1415.567	1389.564
718.889	31.939	1414.448	1386.938
719.904	32.002	1413.560	1386.368
720.919	31.902	1412.432	1384.359
721.933	31.755	1411.441	1382.126
722.948	31.642	1410.833	1380.532
723.962	31.596	1409.563	1378.779
724.977	31.729	1408.409	1378.472
725.992	31.738	1407.444	1377.428
727.006	32.219	1406.630	1380.019
728.021	32.017	1404.580	1376.350
729.035	32.032	1403.522	1375.261
730.050	31.874	1403.005	1373.430
731.065	31.856	1402.057	1372.199
732.079	31.810	1400.426	1370.103
733.094	31.782	1399.899	1369.219
734.108	31.941	1398.297	1368.651
735.123	31.927	1396.668	1366.796
736.138	31.753	1395.388	1364.109
737.152	31.665	1394.612	1362.543
738.167	31.659	1393.659	1361.401
739.181	31.750	1392.635	1360.902
740.196	31.730	1391.780	1359.756
741.211	31.679	1390.906	1358.371
742.225	31.621	1389.600	1356.508
743.240	31.703	1387.760	1355.149
744.254	31.403	1386.090	1351.176
745.269	31.273	1384.629	1348.647
746.284	31.076	1383.763	1346.214
747.298	31.072	1383.097	1345.373
748.313	31.327	1382.146	1346.136
749.327	32.013	1383.289	1352.057
750.342	32.390	1384.293	1355.607
751.356	32.892	1382.957	1357.765
752.371	32.619	1381.480	1354.179
753.386	31.877	1378.371	1345.625
754.400	31.427	1376.644	1340.532
755.415	31.724	1376.236	1342.111
756.429	31.748	1375.323	1341.235
757.444	31.927	1374.160	1341.227
758.459	31.874	1373.053	1339.605
759.473	31.688	1371.280	1336.384
760.488	31.544	1369.881	1333.831
761.502	31.308	1369.111	1331.229
762.517	31.509	1368.118	1331.542
763.532	31.880	1367.335	1333.272
764.546	31.864	1366.570	1332.252
765.561	31.351	1364.271	1326.194
766.575	30.796	1362.846	1320.692
767.590	30.685	1362.231	1319.148
768.605	31.560	1361.889	1324.890
769.619	31.995	1361.272	1327.223
770.634	31.937	1359.245	1324.679
771.648	31.686	1358.103	1321.622
772.663	31.281	1357.250	1317.766
773.678	31.255	1356.862	1317.050
774.692	31.600	1356.150	1318.645
775.707	31.549	1355.598	1317.589
776.721	31.632	1354.384	1316.833
777.736	31.447	1352.601	1313.635
778.751	31.488	1351.826	1313.020
779.765	31.619	1350.945	1312.926
780.780	31.622	1350.463	1312.321
781.794	31.638	1349.350	1311.196
782.809	31.194	1347.978	1306.585
783.824	30.905	1346.617	1303.074
784.838	31.121	1346.146	1303.980
785.853	31.992	1346.544	1310.327
786.867	32.080	1345.159	1309.439
787.882	31.530	1344.174	1304.473
788.897	31.141	1343.096	1300.548
789.911	30.921	1341.140	1296.957
790.926	30.947	1339.553	1295.450
791.940	31.005	1337.908	1294.107
792.955	31.091	1336.896	1293.575
793.969	30.853	1336.050	1290.944
794.984	30.938	1336.065	1291.398
795.999	31.159	1335.425	1292.158
797.013	31.247	1333.422	1290.675
798.028	31.269	1331.661	1288.973
799.042	31.344	1331.120	1288.813
800.057	31.201	1330.361	1286.936
801.072	31.180	1328.928	1285.250
802.086	31.160	1328.363	1284.407
803.101	31.000	1327.345	1282.165
804.115	31.110	1326.273	1281.736
805.130	31.165	1324.742	1280.479
806.145	31.199	1323.577	1279.435
807.159	31.241	1321.890	1277.941
808.174	31.369	1321.748	1278.531
809.188	31.565	1321.080	1279.078
810.203	31.506	1319.059	1276.563
811.218	31.330	1317.654	1273.849
812.232	31.178	1315.128	1270.216
813.247	30.601	1314.645	1265.651
814.261	30.928	1315.305	1268.371
815.276	31.500	1314.122	1270.987
816.291	31.045	1312.605	1266.258
817.305	30.866	1311.644	1263.963
818.320	30.858	1310.365	1262.525
819.334	30.913	1309.718	1262.123
820.349	31.136	1308.254	1262.074
821.364	30.943	1306.763	1259.178
822.378	31.170	1305.104	1258.970
823.393	31.028	1303.618	1256.423
824.407	31.033	1302.487	1255.213
825.422	30.895	1302.586	1254.229
826.437	30.938	1301.645	1253.461
827.451	30.789	1299.625	1250.361
828.466	31.284	1299.587	1253.516
829.480	32.055	1298.355	1257.369
830.495	31.732	1296.046	1252.815
831.509	30.740	1295.325	1245.296
832.524	30.640	1294.594	1243.774
833.539	30.840	1293.089	1243.520
834.553	30.849	1291.006	1241.429
835.568	30.829	1289.650	1239.840
836.582	30.750	1288.994	1238.533
837.597	31.042	1288.004	1239.388
838.612	30.771	1286.447	1235.930
839.626	30.804	1285.706	1235.292
840.641	30.976	1284.472	1235.104
841.655	31.125	1283.095	1234.620
842.670	30.560	1281.789	1229.467
843.685	30.188	1280.674	1225.778
844.699	30.591	1279.656	1227.331
845.714	30.895	1278.752	1228.334
846.728	30.735	1277.924	1226.331
847.743	30.629	1277.411	1224.990
848.758	30.504	1276.482	1223.122
849.772	30.816	1274.778	1223.408
850.787	30.802	1272.967	1221.425
851.801	30.711	1272.041	1219.793
852.816	30.696	1270.987	1218.537
853.831	30.780	1269.922	1217.927
854.845	30.790	1268.278	1216.267
855.860	30.749	1266.636	1214.281
856.874	30.579	1265.337	1211.773
857.889	31.046	1265.373	1214.722
858.904	31.591	1264.612	1217.413
859.918	32.112	1263.778	1219.864
860.933	32.216	1263.675	1220.298
861.947	31.873	1261.792	1216.100
862.962	31.149	1259.473	1209.007
863.977	30.837	1257.949	1205.370
864.991	30.784	1257.044	1204.012
866.006	30.417	1256.850	1201.294
867.020	30.670	1255.574	1201.576
868.035	30.626	1254.192	1199.826
869.049	30.632	1253.418	1198.978
870.064	30.657	1252.459	1198.077
871.079	30.750	1251.718	1197.827
872.093	30.614	1250.881	1196.008
873.108	30.508	1249.417	1193.778
874.122	30.663	1248.033	1193.311
875.137	30.330	1248.003	1190.995
876.152	30.469	1246.575	1190.381
877.166	30.461	1244.264	1187.986
878.181	30.285	1243.241	1185.734
879.195	30.243	1243.442	1185.515
880.210	30.416	1242.474	1185.560
881.225	30.570	1241.575	1185.546
882.239	30.523	1240.944	1184.502
883.254	30.347	1240.110	1182.438
884.268	30.501	1238.663	1181.901
885.283	30.537	1237.711	1181.081
886.298	30.353	1236.478	1178.591
887.312	30.529	1235.284	1178.432
888.327	30.385	1233.963	1176.115
889.341	30.379	1232.299	1174.351
890.356	30.481	1231.601	1174.193
891.371	30.601	1231.417	1174.635
892.385	30.332	1231.571	1172.934
893.400	30.556	1230.288	1172.994
894.414	30.597	1229.070	1171.952
895.429	30.786	1228.767	1172.722
896.444	31.622	1228.226	1177.350
897.458	32.308	1227.082	1180.443
898.473	32.055	1225.727	1177.401
899.487	31.191	1224.070	1170.231
900.502	30.717	1222.179	1165.300
901.517	30.513	1220.692	1162.458
902.531	30.320	1219.921	1160.370
903.546	30.434	1218.987	1160.061
904.560	30.250	1218.477	1158.281
905.575	30.286	1217.254	1157.207
906.589	30.128	1216.482	1155.345
907.604	30.176	1215.921	1154.971
