DTS Sentinel unit serial number:	SN409020Multiplexer serial number:	ORYXHardware model number:	OX4-SRSoftware version number:	ORYX F/W v3.00 Oryx Data Collector v3.7.2.0data status	okinstallation	HaddamTimeLapsedifferential loss correction	single-endedforward channel	channel 3reverse channel	N/Adate	2011/06/21time	20:46:17forward acquisition time	30.00reverse acquisition time	0.00gamma	498.7831k internal	0.1772k external	0.1772temperature offset calibration	1.0074default loss term (dB/km)	0.3790temperature slope calibration	1.3530multiplexer offset coefficient	1.0000multiplexer slope coefficient	1.0000fibre end	0.00T internal ref (°C)	28.84T ext. ref 1 (°C)	21.41T ext. ref 2 (°C)	0.03length (m)	temperature (°C)	Stokes	anti-Stokes-747.200	-31.117	0.058	0.043
-746.185	-200.000	0.044	0.498
-745.171	-200.000	0.018	0.632
-744.156	-28.841	0.261	0.197
-743.142	-122.078	-0.277	0.059
-742.127	260.465	0.283	0.645
-741.112	-138.062	-0.478	-0.069
-740.098	63.504	0.130	0.171
-739.083	40.509	0.250	-0.296
-738.069	-200.000	-0.063	0.436
-737.054	-133.390	-0.284	0.047
-736.039	61.141	-0.447	0.584
-735.025	800.000	0.069	-0.358
-734.010	-121.503	-0.375	-0.081
-732.996	-141.790	-0.535	0.070
-731.981	-200.000	0.038	-0.342
-730.966	256.594	0.109	-0.248
-729.952	-53.439	-0.301	-0.180
-728.937	-149.233	-0.475	-0.049
-727.923	-35.239	-0.227	-0.162
-726.908	-200.000	-0.010	0.108
-725.894	-72.007	0.193	-0.094
-724.879	93.619	0.015	0.023
-723.864	-50.055	0.415	-0.257
-722.850	413.319	0.064	-0.180
-721.835	-51.398	-0.409	0.250
-720.821	800.000	-0.171	-0.734
-719.806	5.638	0.152	-0.147
-718.791	-82.758	-0.331	0.140
-717.777	-93.002	-0.056	0.021
-716.762	97.695	0.079	0.119
-715.748	-133.488	-0.308	-0.050
-714.733	-76.804	0.139	0.064
-713.718	-168.937	-0.437	-0.021
-712.704	800.000	0.009	-0.040
-711.689	19.428	-0.059	-0.062
-710.675	571.425	-0.169	-0.542
-709.660	-184.886	-0.180	-0.004
-708.645	74.106	-0.200	0.275
-707.631	415.756	0.049	0.139
-706.616	-107.020	0.156	0.045
-705.602	393.982	0.203	-0.556
-704.587	7.505	0.197	-0.193
-703.572	-200.000	0.022	0.163
-702.558	297.374	0.135	0.327
-701.543	-108.071	0.214	-0.060
-700.529	-41.285	0.255	0.172
-699.514	-99.093	0.257	-0.085
-698.499	-113.549	0.408	0.104
-697.485	169.026	-0.081	0.151
-696.470	460.088	0.140	-0.411
-695.456	9.157	-0.068	0.067
-694.441	314.216	0.049	-0.121
-693.426	-200.000	0.026	-0.547
-692.412	-30.113	0.152	-0.113
-691.397	-200.000	-0.009	-0.185
-690.383	320.606	-0.160	0.399
-689.368	800.000	-0.028	0.151
-688.354	-43.225	0.158	-0.104
-687.339	-200.000	0.031	-0.283
-686.324	-1.173	-0.342	-0.317
-685.310	27.523	0.054	-0.059
-684.295	-132.001	-0.339	-0.057
-683.281	-171.652	-0.511	0.022
-682.266	567.854	0.014	-0.044
-681.251	-80.434	0.423	0.184
-680.237	800.000	-0.175	-0.664
-679.222	29.057	0.111	0.123
-678.208	-92.740	0.648	0.236
-677.193	-175.682	-0.424	-0.015
-676.178	800.000	-0.087	0.320
-675.164	-0.856	0.139	-0.129
-674.149	-164.234	-0.160	-0.009
-673.135	-114.971	-0.101	-0.025
-672.120	-143.821	-0.541	0.066
-671.105	177.151	-0.033	-0.063
-670.091	-172.272	0.074	0.003
-669.076	-80.762	-0.559	0.242
-668.062	55.687	0.093	-0.118
-667.047	-86.076	-0.281	-0.113
-666.032	206.983	0.067	-0.137
-665.018	-117.053	-0.207	-0.049
-664.003	-200.000	0.009	0.150
-662.989	-200.000	0.051	0.390
-661.974	-161.619	-0.285	0.019
-660.959	-200.000	-0.010	0.201
-659.945	-104.476	-0.333	-0.100
-658.930	-80.027	-0.334	0.146
-657.916	-146.982	-0.320	0.035
-656.901	800.000	-0.048	-0.198
-655.886	28.966	0.102	-0.113
-654.872	26.557	-0.043	0.047
-653.857	355.731	0.047	-0.122
-652.843	336.536	-0.078	-0.198
-651.828	-66.289	0.058	0.030
-650.814	413.651	-0.174	-0.486
-649.799	-134.116	-0.507	-0.081
-648.784	24.042	0.165	-0.178
-647.770	109.907	0.216	0.339
-646.755	-127.984	-0.200	0.037
-645.741	-200.000	0.037	0.239
-644.726	-172.851	-0.190	-0.008
-643.711	800.000	0.027	-0.136
-642.697	-200.000	0.046	-0.492
-641.682	-57.951	-0.290	0.165
-640.668	-51.237	-0.238	-0.145
-639.653	-130.616	0.416	-0.073
-638.638	516.422	-0.168	0.515
-637.624	-200.000	-0.001	0.016
-636.609	-88.628	-0.185	0.072
-635.595	45.571	0.320	-0.387
-634.580	-24.852	0.397	0.308
-633.565	-150.552	0.618	-0.061
-632.551	-200.000	-0.050	0.354
-631.536	-200.000	0.018	0.211
-630.522	373.887	0.097	0.258
-629.507	-100.628	0.126	-0.040
-628.492	-103.488	-0.336	0.103
-627.478	273.956	0.043	0.100
-626.463	-200.000	-0.002	-0.142
-625.449	-200.000	-0.098	-0.619
-624.434	-200.000	0.042	0.375
-623.419	-138.320	0.148	-0.021
-622.405	49.258	0.206	-0.253
-621.390	49.210	-0.131	0.161
-620.376	-15.918	0.157	-0.131
-619.361	800.000	-0.052	0.230
-618.346	364.100	-0.081	0.214
-617.332	419.710	0.082	-0.231
-616.317	-200.000	0.053	0.402
-615.303	-143.479	-0.681	0.084
-614.288	338.215	-0.083	0.211
-613.273	800.000	0.109	-0.403
-612.259	548.523	0.076	0.240
-611.244	-99.895	-0.447	-0.145
-610.230	-24.918	0.126	0.097
-609.215	6.680	-0.028	0.027
-608.201	198.787	0.104	0.208
-607.186	31.784	0.168	-0.189
-606.171	114.999	-0.299	-0.477
-605.157	268.590	0.103	0.236
-604.142	800.000	0.145	0.737
-603.128	-118.449	-0.140	-0.032
-602.113	104.085	0.297	0.457
-601.098	137.395	-0.278	0.476
-600.084	317.081	-0.055	-0.137
-599.069	63.217	-0.185	-0.242
-598.055	-17.926	0.147	-0.120
-597.040	-97.072	0.130	0.044
-596.025	70.394	0.362	-0.489
-595.011	478.980	-0.085	-0.253
-593.996	-40.522	0.304	0.206
-592.982	343.778	0.111	-0.286
-591.967	800.000	0.056	0.260
-590.952	-200.000	-0.002	0.157
-589.938	-136.355	-0.311	-0.047
-588.923	-180.931	0.431	-0.011
-587.909	-42.053	0.222	0.148
-586.894	-78.769	0.351	-0.156
-585.879	-138.306	0.140	0.020
-584.865	91.905	0.144	0.212
-583.850	-113.848	0.360	0.091
-582.836	291.867	0.144	0.343
-581.821	-139.752	0.322	0.044
-580.806	215.471	-0.102	-0.212
-579.792	382.338	0.206	-0.555
-578.777	3.348	0.156	-0.148
-577.763	24.762	-0.152	-0.164
-576.748	-144.854	-0.015	-0.002
-575.733	-200.000	0.032	0.455
-574.719	154.868	0.097	-0.174
-573.704	800.000	-0.126	-0.458
-572.690	88.822	0.100	-0.145
-571.675	145.765	-0.218	0.381
-570.661	800.000	-0.057	0.235
-569.646	-112.604	0.188	0.049
-568.631	800.000	-0.062	0.286
-567.617	7.600	-0.051	-0.050
-566.602	511.077	-0.060	0.184
-565.588	-73.563	0.308	0.146
-564.573	-62.775	-0.706	-0.380
-563.558	38.757	-0.121	-0.140
-562.544	-49.509	0.164	-0.102
-561.529	256.194	0.118	-0.264
-560.515	-98.675	-0.049	-0.016
-559.500	192.725	-0.207	-0.409
-558.485	800.000	0.093	-0.350
-557.471	-35.178	0.071	-0.050
-556.456	-200.000	0.017	0.268
-555.442	-71.934	-0.412	0.199
-554.427	173.773	-0.070	-0.132
-553.412	328.730	0.104	-0.261
-552.398	-121.050	-0.436	0.094
-551.383	141.871	-0.177	0.307
-550.369	257.613	-0.159	-0.358
-549.354	-142.157	0.523	0.067
-548.339	-117.054	0.495	-0.117
-547.325	-42.860	0.352	0.233
-546.310	-200.000	0.008	-0.085
-545.296	800.000	0.051	-0.257
-544.281	97.158	-0.115	0.172
-543.266	367.573	-0.061	-0.162
-542.252	-78.343	0.490	0.218
-541.237	-166.416	0.422	0.023
-540.223	28.131	0.266	-0.293
-539.208	-106.224	0.148	0.043
-538.193	-200.000	0.018	-0.124
-537.179	22.262	-0.427	-0.454
-536.164	-61.385	-0.177	0.096
-535.150	7.737	-0.249	0.243
-534.135	-48.834	0.049	-0.030
-533.121	-200.000	0.019	-0.279
-532.106	441.333	-0.160	-0.459
-531.091	-91.442	0.426	0.157
-530.077	-108.000	0.167	0.047
-529.062	355.325	-0.158	-0.411
-528.048	-104.420	-0.179	0.054
-527.033	-49.423	-0.107	0.066
-526.018	-42.694	0.416	-0.275
-525.004	18.179	-0.226	0.235
-523.989	-13.630	-0.111	0.094
-522.975	-25.112	-0.347	-0.267
-521.960	-159.732	0.073	-0.005
-520.945	-95.690	0.507	-0.176
-519.931	72.800	-0.191	0.260
-518.916	-200.000	-0.019	0.109
-517.902	-10.166	0.034	-0.029
-516.887	210.197	0.106	0.217
-515.872	274.294	-0.146	0.338
-514.858	373.883	0.077	0.204
-513.843	-177.693	-0.290	0.009
-512.829	800.000	0.063	0.358
-511.814	146.682	-0.107	-0.188
-510.799	-3.435	-0.353	0.319
-509.785	118.694	0.174	0.279
-508.770	193.721	-0.199	-0.393
-507.756	145.564	-0.105	-0.183
-506.741	-24.839	-0.102	0.079
-505.726	-84.884	0.040	0.016
-504.712	-90.758	0.427	-0.159
-503.697	109.938	-0.234	0.365
-502.683	15.672	0.455	-0.465
-501.668	25.640	-0.102	0.110
-500.653	-131.198	-0.222	-0.038
-499.639	200.104	-0.142	0.284
-498.624	-59.068	0.444	0.248
-497.610	4.855	-0.111	0.106
-496.595	-59.158	0.252	0.141
-495.581	-97.540	0.165	-0.055
-494.566	-117.362	-0.069	0.016
-493.551	116.276	-0.233	0.373
-492.537	-200.000	-0.025	0.406
-491.522	-125.873	0.449	0.087
-490.508	-128.318	-0.255	-0.047
-489.493	150.020	-0.301	-0.531
-488.478	-28.514	-0.114	0.086
-487.464	-104.360	0.461	-0.138
-486.449	103.226	-0.278	0.424
-485.435	493.852	-0.034	0.103
-484.420	-116.577	-0.340	-0.081
-483.405	-13.517	0.070	-0.059
-482.391	64.255	0.142	-0.186
-481.376	102.528	-0.125	-0.191
-480.362	-200.000	0.056	0.338
-479.347	4.688	-0.324	-0.309
-478.332	-73.855	-0.403	-0.190
-477.318	31.325	-0.296	0.330
-476.303	244.958	-0.042	0.091
-475.289	157.205	-0.128	-0.231
-474.274	-117.214	-0.461	0.108
-473.259	800.000	-0.137	0.649
-472.245	-45.284	0.234	0.150
-471.230	-131.103	0.172	-0.029
-470.216	800.000	0.059	0.284
-469.201	-50.201	0.281	-0.172
-468.186	128.402	0.278	0.460
-467.172	193.173	-0.147	0.290
-466.157	10.637	0.151	0.149
-465.143	-200.000	-0.022	0.139
-464.128	-17.067	0.456	0.373
-463.113	-86.314	-0.183	0.073
-462.099	-64.345	-0.380	-0.200
-461.084	-16.182	-0.080	0.066
-460.070	-200.000	0.052	0.349
-459.055	-63.773	-0.407	-0.216
-458.040	182.230	0.211	-0.405
-457.026	-117.177	0.139	0.033
-456.011	36.377	0.111	0.127
-454.997	337.075	-0.186	-0.470
-453.982	-46.516	-0.314	-0.199
-452.968	110.946	0.450	0.704
-451.953	300.239	0.110	-0.264
-450.938	-54.023	0.216	-0.127
-449.924	372.389	0.075	-0.199
-448.909	-101.890	0.310	-0.097
-447.895	426.312	-0.122	0.344
-446.880	800.000	0.092	0.349
-445.865	285.874	0.022	-0.052
-444.851	-137.455	-0.555	0.081
-443.836	115.644	-0.295	-0.470
-442.822	-125.715	0.274	0.053
-441.807	-200.000	0.021	-0.273
-440.792	-110.432	-0.252	0.067
-439.778	-123.164	-0.539	0.111
-438.763	-139.286	-0.090	0.012
-437.749	320.202	0.096	0.236
-436.734	-119.680	-0.083	-0.019
-435.719	-31.710	0.269	-0.195
-434.705	800.000	-0.070	-0.340
-433.690	-71.695	-0.089	0.043
-432.676	800.000	0.028	-0.114
-431.661	800.000	-0.026	0.100
-430.646	89.296	-0.182	0.264
-429.632	313.767	0.027	0.067
-428.617	-125.262	0.633	-0.124
-427.603	-119.627	0.172	-0.038
-426.588	-200.000	-0.009	0.300
-425.573	-55.753	-0.476	0.275
-424.559	-56.799	-0.187	0.107
-423.544	800.000	-0.055	0.258
-422.530	-150.574	0.169	-0.017
-421.515	-84.249	0.052	0.021
-420.500	-22.499	-0.180	-0.141
-419.486	676.346	-0.186	-0.630
-418.471	-5.234	-0.272	0.242
-417.457	128.709	-0.203	0.335
-416.442	-200.000	0.043	0.633
-415.428	447.046	-0.290	-0.830
-414.413	712.602	-0.071	0.246
-413.398	-44.088	-0.416	0.270
-412.384	68.072	-0.096	-0.128
-411.369	295.233	0.059	0.142
-410.355	240.928	-0.040	0.088
-409.340	102.218	-0.147	0.223
-408.325	39.298	0.164	0.190
-407.311	-200.000	0.003	-0.773
-406.296	79.275	0.059	0.082
-405.282	158.181	0.117	0.211
-404.267	231.514	0.099	0.212
-403.252	-200.000	-0.007	-0.369
-402.238	70.332	-0.443	0.593
-401.223	311.735	0.152	-0.372
-400.209	248.140	0.420	-0.923
-399.194	-67.233	0.317	-0.161
-398.179	-141.523	-0.302	-0.039
-397.165	-0.964	-0.372	-0.341
-396.150	-133.902	0.189	0.030
-395.136	369.607	0.017	-0.046
-394.121	209.501	-0.221	0.450
-393.106	330.072	-0.127	0.319
-392.092	83.428	0.153	0.216
-391.077	-112.718	-0.464	-0.118
-390.063	489.025	0.075	0.223
-389.048	-200.000	-0.003	0.577
-388.033	800.000	-0.114	0.454
-387.019	162.236	0.019	0.035
-386.004	10.203	-0.184	-0.181
-384.990	90.735	0.092	-0.133
-383.975	107.306	-0.074	0.114
-382.960	231.849	0.163	0.348
-381.946	23.970	-0.264	-0.282
-380.931	-57.213	-0.506	-0.287
-379.917	-134.523	-0.239	0.037
-378.902	-51.613	-0.329	-0.198
-377.888	-124.722	-0.437	-0.087
-376.873	800.000	-0.059	0.292
-375.858	800.000	-0.082	-0.419
-374.844	-71.667	0.255	-0.123
-373.829	783.962	0.132	-0.472
-372.815	288.084	0.060	-0.140
-371.800	-71.016	0.134	-0.065
-370.785	-28.776	0.365	-0.271
-369.771	-193.255	0.230	-0.003
-368.756	-119.546	-0.375	-0.083
-367.742	-158.360	0.288	0.021
-366.727	208.822	0.099	0.200
-365.712	-84.197	-0.198	0.081
-364.698	-200.000	-0.002	-0.278
-363.683	-111.022	0.253	0.067
-362.669	466.021	0.116	0.337
-361.654	-6.735	-0.274	0.241
-360.639	-1.414	-0.261	-0.238
-359.625	-115.417	0.921	-0.223
-358.610	65.020	0.142	-0.186
-357.596	539.297	-0.260	-0.806
-356.581	-46.383	0.301	-0.190
-355.566	47.772	-0.041	-0.050
-354.552	-160.840	-0.396	0.027
-353.537	-97.159	0.452	0.152
-352.523	71.273	0.297	-0.399
-351.508	-144.631	-0.126	0.015
-350.493	-6.869	0.242	-0.213
-349.479	531.394	0.106	0.325
-348.464	105.255	0.275	0.421
-347.450	403.518	-0.076	-0.209
-346.435	-23.635	-0.418	-0.324
-345.420	17.560	0.318	0.327
-344.406	-125.481	0.263	0.051
-343.391	173.828	0.264	-0.494
-342.377	800.000	-0.044	0.161
-341.362	-142.915	0.153	-0.019
-340.348	-200.000	0.026	-0.170
-339.333	-107.199	-0.030	-0.008
-338.318	-65.784	0.255	0.131
-337.304	-45.770	0.125	0.080
-336.289	-133.622	0.109	-0.018
-335.275	-37.085	0.188	0.130
-334.260	-45.180	-0.074	-0.047
-333.245	800.000	-0.009	-0.039
-332.231	-85.655	0.294	0.117
-331.216	595.175	-0.116	-0.374
-330.202	800.000	0.050	0.189
-329.187	0.577	-0.331	0.306
-328.172	-148.597	-0.381	0.040
-327.158	-44.487	-0.236	0.152
-326.143	-72.057	0.147	0.070
-325.129	127.984	0.312	0.513
-324.114	-200.000	0.051	-0.490
-323.099	-23.731	-0.421	-0.325
-322.085	800.000	0.059	0.240
-321.070	-173.033	-0.031	0.001
-320.056	-95.927	-0.689	-0.236
-319.041	-153.055	-0.150	0.013
-318.026	63.650	0.163	-0.211
-317.012	-200.000	-0.018	0.233
-315.997	800.000	0.052	-0.195
-314.983	-200.000	0.052	-0.384
-313.968	-200.000	0.039	0.257
-312.953	-47.250	-0.409	0.257
-311.939	7.451	-0.307	0.296
-310.924	-31.674	0.124	0.090
-309.910	112.657	-0.111	0.173
-308.895	-130.301	-0.226	-0.039
-307.880	-49.170	0.604	-0.372
-306.866	-141.739	0.245	-0.031
-305.851	-179.960	0.297	0.008
-304.837	800.000	0.059	0.275
-303.822	-76.332	-0.423	-0.191
-302.807	-131.964	0.496	0.083
-301.793	-200.000	0.059	0.460
-300.778	-190.254	-0.315	-0.004
-299.764	259.391	0.133	-0.298
-298.749	-174.930	0.591	-0.021
-297.735	800.000	0.209	-0.835
-296.720	-99.079	-0.186	0.060
-295.705	-200.000	-0.022	0.158
-294.691	83.897	0.231	-0.326
-293.676	235.780	0.238	0.509
-292.662	26.493	-0.151	-0.162
-291.647	-105.245	-0.823	-0.241
-290.632	-200.000	0.007	-0.273
-289.618	-90.367	0.096	-0.036
-288.603	-28.172	0.048	-0.036
-287.589	0.708	0.375	-0.346
-286.574	-200.000	0.033	0.594
-285.559	800.000	0.045	-0.189
-284.545	123.190	-0.071	0.114
-283.530	-200.000	0.003	0.242
-282.516	58.761	0.153	0.195
-281.501	213.882	0.081	0.165
-280.486	521.724	0.075	0.228
-279.472	-21.358	0.140	0.110
-278.457	-200.000	-0.029	0.267
-277.443	-152.480	-0.517	0.047
-276.428	-38.671	-0.222	0.151
-275.413	695.731	-0.186	0.634
-274.399	172.354	-0.019	-0.035
-273.384	-17.794	0.318	0.257
-272.370	-107.087	-0.690	0.195
-271.355	-62.679	0.335	-0.178
-270.340	-197.389	0.344	0.003
-269.326	7.282	0.051	-0.049
-268.311	-81.439	0.271	-0.114
-267.297	8.212	-0.272	-0.263
-266.282	-153.334	-0.625	-0.055
-265.267	-138.661	0.185	0.026
-264.253	-79.961	0.272	-0.117
-263.238	207.686	-0.089	0.179
-262.224	150.578	-0.102	0.178
-261.209	-65.338	-0.238	-0.123
-260.195	-10.101	-0.382	0.327
-259.180	-55.745	-0.068	-0.039
-258.165	783.425	0.113	-0.403
-257.151	279.273	-0.074	-0.171
-256.136	-122.099	-0.242	0.051
-255.122	-200.000	0.023	0.273
-254.107	81.710	0.017	-0.024
-253.092	490.802	-0.057	-0.168
-252.078	40.203	-0.278	-0.323
-251.063	119.632	-0.150	0.240
-250.049	-174.533	0.475	0.017
-249.034	-141.024	-0.297	0.039
-248.019	800.000	0.098	-0.422
-247.005	-185.398	-0.475	0.009
-245.990	-71.874	0.196	-0.093
-244.976	-200.000	0.013	0.147
-243.961	-152.969	0.568	0.051
-242.946	-32.308	-0.269	0.193
-241.932	-35.160	0.116	0.081
-240.917	-135.970	0.269	0.040
-239.903	-200.000	-0.045	-0.345
-238.888	565.916	0.107	0.336
-237.873	-61.146	-0.208	0.112
-236.859	-51.999	-0.192	0.114
-235.844	58.928	0.161	0.204
-234.830	-8.597	-0.183	-0.158
-233.815	-84.349	-0.273	0.111
-232.800	3.334	0.372	-0.349
-231.786	77.193	0.178	0.243
-230.771	-120.283	0.440	-0.096
-229.757	-31.842	-0.344	-0.248
-228.742	719.810	0.158	-0.542
-227.727	-199.184	-0.308	-0.002
-226.713	-165.202	-0.405	0.023
-225.698	-81.000	-0.367	0.156
-224.684	-156.987	0.443	0.034
-223.669	368.382	-0.158	-0.413
-222.655	42.866	0.249	0.292
-221.640	-200.000	-0.065	-0.479
-220.625	-112.815	-0.544	-0.138
-219.611	800.000	0.155	-0.586
-218.596	800.000	0.056	0.285
-217.582	419.605	0.108	0.298
-216.567	14.611	-0.237	-0.238
-215.552	-122.139	0.077	-0.016
-214.538	-146.335	-0.270	0.030
-213.523	-200.000	0.021	-0.227
-212.509	-66.822	0.217	-0.110
-211.494	-86.816	0.129	-0.050
-210.479	-78.189	0.266	0.117
-209.465	-6.271	-0.457	-0.400
-208.450	-147.798	0.358	-0.038
-207.436	-97.599	0.406	-0.134
-206.421	-122.697	0.156	-0.032
-205.406	-200.000	-0.011	-0.523
-204.392	-84.529	-0.528	0.213
-203.377	305.582	0.090	0.216
-202.363	-200.000	0.168	0.000
-201.348	-147.482	-0.151	-0.016
-200.333	597.526	0.012	-0.040
-199.319	-54.415	-0.108	0.062
-198.304	266.842	-0.220	-0.495
-197.290	-134.562	0.165	0.026
-196.275	391.615	-0.039	-0.104
-195.260	-1.654	0.131	-0.119
-194.246	-190.353	0.392	0.005
-193.231	135.753	-0.242	-0.406
-192.217	-110.694	-0.271	-0.071
-191.202	-200.000	0.044	0.537
-190.187	520.333	0.149	0.452
-189.173	800.000	0.117	-0.417
-188.158	-105.182	-0.724	-0.211
-187.144	-200.000	0.032	0.355
-186.129	-71.760	-0.256	0.122
-185.114	447.423	-0.116	-0.328
-184.100	-71.542	-0.464	0.222
-183.085	-68.067	0.114	0.057
-182.071	-200.000	-0.038	0.520
-181.056	-134.541	0.218	0.034
-180.042	-182.734	-0.096	-0.002
-179.027	24.525	-0.130	-0.138
-178.012	223.399	0.155	0.321
-176.998	-44.690	-0.154	0.098
-175.983	24.716	0.198	-0.210
-174.969	111.864	0.117	0.181
-173.954	-121.518	0.304	-0.064
-172.939	302.443	-0.080	0.191
-171.925	800.000	-0.046	-0.204
-170.910	-30.535	0.344	-0.249
-169.896	-200.000	-0.022	-0.381
-168.881	-41.359	-0.250	-0.165
-167.866	271.082	0.190	-0.431
-166.852	-53.580	0.232	0.136
-165.837	91.101	0.233	0.335
-164.823	-129.186	-0.043	-0.008
-163.808	-20.301	-0.384	-0.303
-162.793	-80.048	-0.283	0.121
-161.779	800.000	0.099	-0.379
-160.764	-53.324	0.451	-0.265
-159.750	-200.000	0.022	0.660
-158.735	-200.000	0.009	0.442
-157.720	52.369	0.088	-0.108
-156.706	-158.224	0.536	0.040
-155.691	-152.733	0.503	-0.045
-154.677	72.624	-0.091	0.121
-153.662	-200.000	-0.024	-0.247
-152.647	-200.000	0.002	0.041
-151.633	8.926	0.358	-0.346
-150.618	-43.403	0.198	0.128
-149.604	-157.559	0.327	-0.025
-148.589	800.000	0.042	-0.225
-147.574	-138.601	0.186	-0.026
-146.560	-63.121	-0.283	-0.149
-145.545	-109.523	-0.614	0.165
-144.531	800.000	0.027	-0.109
-143.516	297.363	0.172	0.406
-142.502	-121.980	-0.200	-0.042
-141.487	-115.150	0.238	-0.058
-140.472	-83.363	0.083	-0.034
-139.458	213.761	0.147	0.298
-138.443	-200.000	0.053	-0.400
-137.429	-21.180	-0.175	-0.137
-136.414	-104.808	0.445	-0.130
-135.399	-82.445	0.151	0.062
-134.385	72.718	0.155	0.208
-133.370	380.070	-0.118	-0.313
-132.356	-183.512	0.223	0.005
-131.341	127.558	-0.239	0.390
-130.326	-25.826	0.414	0.312
-129.312	-31.268	0.381	0.274
-128.297	154.703	0.082	0.145
-127.283	-108.727	0.129	-0.035
-126.268	-108.316	-0.405	0.111
-125.253	363.756	0.384	-0.995
-124.239	179.118	0.030	0.057
-123.224	-46.019	0.266	0.168
-122.210	400.738	-0.058	0.157
-121.195	-200.000	0.002	-0.421
-120.180	-89.675	0.602	-0.225
-119.166	-200.000	0.022	-0.157
-118.151	-0.078	0.071	-0.065
-117.137	100.744	0.130	-0.194
-116.122	800.000	-0.062	-0.332
-115.107	800.000	0.099	0.384
-114.093	95.308	0.371	-0.542
-113.078	218.221	0.143	0.294
-112.064	-173.596	0.080	0.003
-111.049	800.000	-0.050	-0.243
-110.034	-75.227	0.289	0.132
-109.020	22.087	-0.089	-0.093
-108.005	-200.000	0.010	-0.346
-106.991	459.778	0.029	-0.084
-105.976	800.000	0.027	-0.124
-104.962	-200.000	-0.037	-0.346
-103.947	-200.000	-0.023	0.154
-102.932	-126.198	-0.550	-0.104
-101.918	-117.788	0.102	0.023
-100.903	-46.065	0.113	-0.071
-99.889	-14.901	0.075	-0.062
-98.874	29.333	0.256	-0.278
-97.859	-200.000	-0.013	0.659
-96.845	132.607	-0.185	0.306
-95.830	68.021	-0.265	-0.347
-94.816	-4.950	-0.410	-0.361
-93.801	165.375	0.072	-0.131
-92.786	236.685	0.026	-0.056
-91.772	21.378	0.057	-0.059
-90.757	-83.421	-0.739	-0.302
-89.743	253.768	-0.099	-0.217
-88.728	24.060	-0.198	-0.209
-87.713	308.294	0.225	0.539
-86.699	-108.603	0.464	0.127
-85.684	-165.201	-0.315	-0.018
-84.670	48.666	-0.224	-0.269
-83.655	-200.000	-0.021	0.128
-82.640	-91.316	-0.420	-0.153
-81.626	-29.467	-0.271	-0.198
-80.611	-200.000	-0.026	0.345
-79.597	-29.242	0.143	0.105
-78.582	53.967	0.309	-0.381
-77.567	-116.624	-0.388	-0.091
-76.553	-138.314	0.212	0.030
-75.538	688.792	-0.116	-0.392
-74.524	800.000	-0.079	-0.357
-73.509	-104.948	-0.287	0.084
-72.494	-25.418	-0.252	-0.190
-71.480	16.684	0.309	-0.312
-70.465	-88.015	0.678	0.259
-69.451	44.013	0.286	-0.335
-68.436	-37.359	0.207	-0.141
-67.422	-200.000	0.013	0.440
-66.407	-88.052	-0.222	-0.085
-65.392	456.492	0.004	0.012
-64.378	358.474	-0.143	-0.368
-63.363	521.766	0.062	0.188
-62.349	-200.000	0.030	0.221
-61.334	39.163	-1.781	-2.038
-60.319	-26.600	1.370	1.024
-59.305	293.167	-2.844	-6.659
-58.290	45.744	3.566	4.216
-57.276	353.280	4.020	10.241
-56.261	-200.000	20.429	286.958
-55.246	391.618	1256.116	3350.353
-54.232	55.154	2854.043	3528.157
-53.217	53.743	2710.301	3328.443
-52.203	38.690	2437.928	2781.243
-51.188	34.940	2095.663	2344.589
-50.173	30.895	1974.457	2161.831
-49.159	29.687	1963.446	2135.673
-48.144	29.185	1959.612	2125.597
-47.130	29.258	1956.880	2123.392
-46.115	29.245	1955.417	2121.565
-45.100	29.247	1953.635	2119.574
-44.086	29.093	1952.888	2116.906
-43.071	29.266	1950.852	2116.606
-42.057	29.023	1949.195	2111.923
-41.042	29.158	1947.616	2111.690
-40.027	28.998	1947.590	2109.731
-39.013	29.114	1945.276	2108.478
-37.998	28.996	1945.032	2106.765
-36.984	28.936	1943.268	2104.080
-35.969	29.037	1941.246	2102.972
-34.954	28.973	1940.895	2101.770
-33.940	29.036	1938.706	2100.036
-32.925	29.033	1937.640	2098.763
-31.911	28.958	1936.566	2096.665
-30.896	28.975	1935.358	2095.459
-29.881	28.926	1934.081	2093.440
-28.867	28.942	1931.895	2091.175
-27.852	28.968	1929.911	2089.237
-26.838	28.803	1930.042	2087.410
-25.823	28.814	1927.838	2085.075
-24.809	28.839	1926.487	2083.810
-23.794	28.821	1925.735	2082.709
-22.779	28.945	1923.414	2081.529
-21.765	28.847	1922.424	2079.257
-20.750	28.781	1921.343	2077.261
-19.736	28.864	1919.330	2075.940
-18.721	28.671	1918.806	2073.109
-17.706	28.759	1918.209	2073.370
-16.692	28.836	1916.001	2071.782
-15.677	28.869	1915.048	2071.040
-14.663	28.732	1913.052	2067.246
-13.648	28.665	1912.613	2065.939
-12.633	28.741	1911.188	2065.174
-11.619	28.779	1908.906	2063.055
-10.604	28.648	1908.083	2060.602
-9.590	28.650	1907.083	2059.469
-8.575	28.730	1906.127	2059.250
-7.560	28.781	1904.540	2058.026
-6.546	28.831	1903.582	2057.480
-5.531	28.606	1902.373	2053.556
-4.517	28.786	1900.645	2053.634
-3.502	28.669	1901.226	2052.866
-2.487	28.751	1899.955	2052.333
-1.473	28.654	1896.285	2047.200
-0.458	27.985	1876.438	2018.271
0.556	23.468	2016.238	2102.254
1.571	21.166	2225.546	2289.897
2.586	22.135	2267.148	2345.437
3.600	22.114	2269.734	2347.550
4.615	22.211	2269.220	2348.039
5.629	22.123	2267.144	2344.428
6.644	22.078	2264.875	2341.189
7.659	22.143	2263.556	2340.415
8.673	22.285	2260.785	2339.176
9.688	22.065	2269.025	2344.470
10.702	20.590	2347.155	2404.420
11.717	18.419	2412.372	2439.889
12.731	9.099	2389.462	2283.716
13.746	1.270	2369.028	2152.599
14.761	0.274	2364.661	2134.201
15.775	0.078	2363.396	2130.019
16.790	0.102	2361.178	2128.096
17.804	-0.041	2359.973	2124.730
18.819	0.032	2359.266	2124.866
19.834	0.028	2357.595	2123.053
20.848	0.166	2354.907	2122.340
21.863	0.106	2353.577	2120.033
22.877	0.092	2351.268	2117.507
23.892	0.009	2350.650	2115.526
24.907	0.120	2347.357	2113.866
25.921	0.074	2345.697	2111.473
26.936	-0.041	2344.164	2108.217
27.950	0.096	2340.973	2107.020
28.965	-0.018	2339.562	2103.908
29.980	0.114	2337.666	2103.806
30.994	0.196	2335.796	2103.013
32.009	4.488	2349.817	2175.906
33.023	14.877	2379.751	2350.861
34.038	18.914	2386.228	2414.088
35.053	18.939	2383.048	2410.932
36.067	19.014	2380.403	2409.019
37.082	18.887	2378.305	2404.827
38.096	18.923	2377.101	2403.822
39.111	19.167	2374.934	2404.766
40.126	19.291	2373.051	2404.308
41.140	19.452	2370.783	2403.980
42.155	19.294	2369.672	2400.353
43.169	19.395	2368.831	2400.624
44.184	19.298	2364.633	2394.737
45.199	19.254	2362.359	2391.530
46.213	19.272	2361.906	2391.041
47.228	19.290	2361.594	2390.692
48.242	19.241	2359.838	2387.945
49.257	19.497	2357.226	2388.570
50.271	19.501	2355.136	2386.223
51.286	19.367	2350.525	2379.414
52.301	19.180	2349.064	2375.046
53.315	19.934	2352.929	2389.145
54.330	23.018	2362.162	2441.100
55.344	25.018	2363.940	2470.407
56.359	25.314	2360.322	2470.412
57.374	25.460	2359.409	2471.180
58.388	25.477	2357.386	2469.011
59.403	25.118	2352.979	2459.151
60.417	24.752	2349.365	2450.036
61.432	24.798	2347.847	2448.795
62.447	25.047	2346.891	2450.931
63.461	25.090	2344.971	2449.223
64.476	25.284	2342.027	2448.512
65.490	25.098	2339.824	2443.365
66.505	24.254	2335.611	2427.128
67.520	22.082	2326.868	2388.110
68.534	19.595	2318.681	2345.504
69.549	18.987	2312.696	2330.897
70.563	18.710	2310.677	2324.806
71.578	18.844	2308.919	2324.585
72.593	19.044	2307.525	2325.621
73.607	19.181	2305.580	2325.240
74.622	19.110	2303.984	2322.395
75.636	18.965	2300.081	2316.224
76.651	18.799	2298.461	2312.066
77.666	18.904	2296.299	2311.026
78.680	18.814	2294.425	2307.657
79.695	18.672	2292.075	2303.106
80.709	18.525	2291.045	2299.802
81.724	18.533	2288.279	2296.857
82.739	18.567	2285.776	2294.535
83.753	18.679	2282.875	2292.845
84.768	18.600	2281.631	2290.266
85.782	18.464	2280.459	2286.985
86.797	18.422	2278.574	2284.263
87.812	18.459	2276.696	2282.600
88.826	18.564	2275.368	2282.407
89.841	18.653	2272.596	2280.539
90.855	18.644	2269.058	2276.598
91.870	18.614	2268.763	2275.627
92.884	18.564	2267.673	2273.591
93.899	18.725	2265.886	2273.673
94.914	19.284	2269.210	2284.186
95.928	22.061	2277.110	2328.938
96.943	23.069	2275.703	2340.628
97.957	20.356	2265.180	2293.560
98.972	18.764	2258.146	2265.073
99.987	18.749	2254.058	2260.493
101.001	18.640	2252.295	2257.022
102.016	18.699	2249.736	2254.962
103.030	18.553	2247.824	2250.845
104.045	18.613	2245.100	2248.640
105.060	18.592	2243.660	2246.658
106.074	18.701	2241.859	2246.011
107.089	18.640	2241.680	2244.762
108.103	18.714	2239.141	2242.927
109.118	18.795	2237.934	2242.515
110.133	18.826	2235.944	2240.660
111.147	18.656	2233.717	2235.929
112.162	18.652	2233.006	2234.898
113.176	18.833	2230.877	2234.872
114.191	18.944	2228.922	2234.094
115.206	18.924	2227.516	2232.152
116.220	18.808	2225.644	2228.497
117.235	18.950	2223.062	2227.501
118.249	18.978	2220.601	2225.130
119.264	18.892	2220.081	2223.222
120.279	18.901	2218.744	2221.731
121.293	18.870	2216.444	2218.764
122.308	18.844	2214.814	2216.526
123.322	18.834	2213.436	2214.755
124.337	19.221	2215.478	2221.551
125.352	21.943	2223.695	2264.887
126.366	22.959	2221.890	2275.936
127.381	20.154	2209.848	2227.157
128.395	18.905	2203.950	2204.852
129.410	18.657	2202.653	2200.102
130.424	18.704	2200.300	2198.095
131.439	18.860	2199.135	2198.672
132.454	18.871	2197.194	2196.615
133.468	18.952	2195.008	2195.195
134.483	19.131	2193.882	2196.103
135.497	19.120	2192.416	2194.235
136.512	19.132	2190.447	2192.160
137.527	18.938	2187.786	2186.747
138.541	18.771	2186.889	2183.453
139.556	18.668	2185.655	2180.652
140.570	18.855	2183.701	2180.828
141.585	18.767	2181.667	2177.411
142.600	18.674	2180.393	2174.699
143.614	18.730	2178.933	2173.685
144.629	18.531	2177.652	2169.623
145.643	18.666	2175.103	2168.540
146.658	18.579	2173.465	2165.535
147.673	18.429	2171.079	2161.003
148.687	18.472	2169.699	2159.908
149.702	18.582	2169.133	2160.481
150.716	18.613	2168.579	2160.069
151.731	18.570	2167.022	2157.710
152.746	18.592	2165.653	2156.371
153.760	19.444	2168.377	2169.593
154.775	22.297	2176.623	2213.725
155.789	23.489	2175.064	2226.932
156.804	20.566	2164.560	2179.145
157.819	18.682	2156.676	2147.280
158.833	18.528	2153.018	2141.441
159.848	18.609	2150.616	2139.813
160.862	18.754	2149.498	2140.261
161.877	18.740	2149.276	2139.617
162.892	18.813	2148.564	2139.562
163.906	18.865	2147.574	2138.963
164.921	18.894	2144.650	2136.165
165.935	18.868	2143.382	2134.315
166.950	18.954	2141.432	2133.190
167.964	18.997	2138.883	2130.941
168.979	18.752	2137.390	2126.146
169.994	18.643	2135.727	2122.881
171.008	18.620	2132.756	2119.383
172.023	18.684	2132.385	2119.559
173.037	18.903	2130.566	2120.219
174.052	19.010	2130.202	2120.926
175.067	18.935	2128.083	2117.626
176.081	18.853	2126.220	2114.506
177.096	18.834	2125.626	2113.425
178.110	18.846	2124.198	2111.901
179.125	18.892	2122.940	2110.966
180.140	18.825	2121.428	2108.382
181.154	18.917	2121.113	2108.956
182.169	18.993	2120.664	2109.193
183.183	19.816	2122.624	2121.044
184.198	23.092	2129.422	2168.015
185.213	23.506	2127.576	2170.977
186.227	20.579	2116.743	2123.778
187.242	19.139	2112.398	2101.508
188.256	19.017	2109.780	2097.153
189.271	18.781	2107.598	2091.848
190.286	18.604	2106.410	2088.255
191.300	18.665	2104.823	2087.172
192.315	18.676	2101.795	2084.060
193.329	18.981	2100.882	2086.627
194.344	19.173	2100.626	2088.459
195.359	19.215	2099.604	2087.710
196.373	19.081	2096.758	2082.996
197.388	18.948	2094.777	2079.154
198.402	18.800	2093.131	2075.475
199.417	18.842	2089.577	2072.220
200.432	18.790	2087.610	2069.385
201.446	18.721	2087.400	2068.100
202.461	18.802	2084.864	2066.321
203.475	18.751	2083.957	2064.553
204.490	18.603	2082.396	2060.978
205.504	18.592	2079.606	2057.831
206.519	18.725	2076.657	2056.271
207.534	18.652	2075.336	2053.836
208.548	18.629	2073.148	2051.145
209.563	18.722	2073.023	2051.896
210.577	18.716	2072.039	2050.604
211.592	18.833	2071.383	2051.110
212.607	20.081	2075.909	2070.353
213.621	23.453	2084.305	2119.053
214.636	23.055	2078.658	2108.294
215.650	19.805	2068.373	2058.791
216.665	18.840	2064.126	2042.793
217.680	18.817	2062.356	2040.520
218.694	18.570	2059.518	2034.522
219.709	18.539	2058.969	2033.366
220.723	18.615	2057.418	2032.497
221.738	18.797	2056.290	2033.301
222.753	18.909	2054.421	2032.548
223.767	18.826	2052.858	2029.769
224.782	19.124	2050.681	2030.907
225.796	19.049	2049.703	2028.808
226.811	18.978	2048.829	2026.854
227.826	18.987	2046.693	2024.606
228.840	18.868	2044.769	2021.051
229.855	18.799	2044.054	2019.288
230.869	18.806	2042.553	2017.646
231.884	18.888	2041.145	2016.986
232.899	18.884	2039.307	2014.876
233.913	18.968	2038.583	2014.918
234.928	18.857	2036.700	2011.505
235.942	18.836	2035.058	2009.401
236.957	18.927	2033.761	2008.946
237.972	18.833	2032.759	2006.613
238.986	18.809	2031.741	2005.083
240.001	18.812	2029.560	2002.721
241.015	18.848	2028.755	2002.111
242.030	19.599	2030.960	2012.845
243.045	22.512	2037.418	2053.192
244.059	23.165	2034.262	2057.390
245.074	20.259	2024.889	2013.812
246.088	19.218	2020.226	1996.817
247.103	19.084	2018.885	1993.695
248.117	19.275	2016.727	1993.543
249.132	18.964	2014.231	1987.221
250.147	18.805	2013.317	1984.243
251.161	18.873	2011.026	1982.527
252.176	19.151	2010.976	1985.469
253.190	19.296	2009.149	1985.106
254.205	19.362	2007.740	1984.240
255.220	19.276	2006.687	1981.963
256.234	19.198	2005.525	1979.684
257.249	19.067	2004.330	1976.745
258.263	19.125	2002.347	1975.224
259.278	18.863	2001.572	1971.200
260.293	19.013	1999.199	1970.355
261.307	18.888	1997.154	1966.673
262.322	18.967	1994.526	1964.759
263.336	18.786	1992.524	1960.472
264.351	18.578	1990.853	1956.207
265.366	18.508	1990.118	1954.450
266.380	18.513	1989.222	1953.388
267.395	18.394	1988.290	1950.878
268.409	18.540	1985.864	1949.935
269.424	18.554	1984.980	1949.001
270.439	18.680	1982.945	1948.199
271.453	19.674	1986.662	1962.976
272.468	22.918	1992.940	2006.041
273.482	23.120	1989.189	2004.316
274.497	20.053	1978.920	1958.928
275.512	18.738	1974.113	1939.017
276.526	18.622	1972.030	1935.428
277.541	18.599	1969.813	1932.766
278.555	18.488	1968.354	1929.835
279.570	18.452	1966.455	1927.346
280.585	18.680	1965.387	1928.639
281.599	18.587	1964.941	1926.923
282.614	18.881	1963.988	1929.075
283.628	19.169	1963.828	1931.938
284.643	19.349	1962.571	1932.492
285.657	19.314	1961.873	1931.178
286.672	19.474	1960.575	1931.471
287.687	19.545	1959.041	1930.527
288.701	19.452	1956.903	1927.149
289.716	19.472	1955.941	1926.192
290.730	19.559	1953.537	1924.565
291.745	19.554	1952.281	1923.040
292.760	19.535	1951.430	1921.763
293.774	19.313	1950.362	1917.997
294.789	19.208	1948.641	1914.905
295.803	19.064	1946.059	1910.531
296.818	18.935	1944.864	1907.694
297.833	18.898	1943.992	1906.194
298.847	18.962	1942.525	1905.240
299.862	18.945	1941.063	1903.390
300.876	19.700	1943.392	1913.853
301.891	22.767	1950.731	1955.059
302.906	23.551	1947.273	1960.074
303.920	20.315	1938.412	1915.085
304.935	19.094	1933.997	1896.972
305.949	19.055	1931.512	1893.882
306.964	18.999	1929.396	1890.956
307.979	19.029	1927.462	1889.174
308.993	19.022	1927.561	1888.958
310.008	19.454	1926.521	1892.477
311.022	19.775	1924.877	1894.171
312.037	19.600	1923.530	1890.691
313.052	19.611	1921.362	1888.464
314.066	19.731	1919.695	1887.912
315.081	19.653	1919.491	1886.629
316.095	19.598	1916.608	1882.971
317.110	19.245	1915.070	1877.368
318.125	19.071	1913.513	1873.708
319.139	18.835	1912.733	1870.137
320.154	19.131	1910.578	1871.042
321.168	18.966	1908.765	1867.246
322.183	18.818	1907.475	1864.147
323.197	18.742	1905.508	1861.172
324.212	18.555	1904.161	1857.591
325.227	18.470	1902.365	1854.698
326.241	18.403	1900.467	1851.894
327.256	18.560	1899.678	1852.617
328.270	18.595	1897.908	1851.048
329.285	18.589	1897.654	1850.508
330.300	19.639	1902.791	1866.704
331.314	23.063	1908.899	1909.712
332.329	23.197	1904.086	1906.124
333.343	19.948	1895.229	1861.959
334.358	18.779	1890.614	1844.590
335.373	18.645	1888.299	1840.669
336.387	18.480	1886.791	1837.196
337.402	18.602	1884.483	1836.040
338.416	18.636	1883.089	1834.834
339.431	18.633	1881.999	1833.519
340.446	18.678	1881.234	1833.036
341.460	18.852	1879.985	1833.464
342.475	19.092	1878.533	1834.403
343.489	19.263	1877.325	1834.836
344.504	19.142	1876.346	1832.359
345.519	19.167	1875.145	1831.244
346.533	19.403	1873.586	1832.013
347.548	19.463	1872.604	1831.475
348.562	19.823	1872.934	1835.426
349.577	20.496	1873.406	1842.842
350.592	20.562	1871.746	1841.692
351.606	19.915	1868.084	1830.986
352.621	19.566	1865.990	1825.011
353.635	19.221	1864.290	1819.469
354.650	19.024	1862.896	1815.798
355.665	18.859	1860.620	1811.609
356.679	18.932	1859.268	1810.850
357.694	18.983	1858.600	1810.523
358.708	18.850	1857.443	1807.775
359.723	20.136	1861.461	1825.084
360.738	23.331	1867.265	1864.415
361.752	23.009	1862.092	1855.637
362.767	20.061	1853.918	1816.252
363.781	19.266	1848.921	1802.778
364.796	19.000	1847.428	1798.318
365.810	18.917	1846.248	1796.080
366.825	18.886	1844.416	1793.750
367.840	18.997	1844.243	1794.534
368.854	19.273	1843.869	1796.849
369.869	19.659	1842.658	1799.496
370.883	19.307	1841.278	1794.248
371.898	19.402	1839.837	1793.629
372.913	19.235	1838.506	1790.366
373.927	19.271	1837.891	1789.933
374.942	19.275	1836.392	1788.297
375.956	19.229	1834.801	1786.062
376.971	19.234	1832.064	1783.236
377.986	18.995	1830.673	1779.182
379.000	18.885	1829.758	1776.936
380.015	18.968	1827.643	1775.529
381.029	18.918	1825.677	1772.893
382.044	18.668	1823.610	1768.085
383.059	18.679	1821.816	1766.244
384.073	18.720	1821.773	1766.411
385.088	18.680	1821.130	1765.167
386.102	18.841	1819.194	1764.740
387.117	18.835	1817.577	1762.894
388.132	18.944	1817.054	1763.305
389.146	19.802	1821.877	1776.633
390.161	22.961	1827.133	1814.199
391.175	22.983	1820.243	1807.366
392.190	20.043	1810.690	1767.561
393.205	19.051	1807.754	1754.327
394.219	19.017	1805.416	1751.496
395.234	18.843	1804.005	1748.136
396.248	18.938	1802.035	1746.997
397.263	18.864	1800.481	1744.523
398.278	18.768	1799.070	1741.970
399.292	18.727	1797.405	1739.731
400.307	18.721	1796.957	1739.030
401.321	18.878	1796.661	1740.134
402.336	19.026	1794.982	1739.798
403.350	19.003	1793.147	1737.579
404.365	19.145	1791.889	1737.592
405.380	19.083	1791.263	1736.151
406.394	19.166	1790.974	1736.504
407.409	19.313	1789.958	1736.802
408.423	19.525	1788.093	1736.921
409.438	19.424	1786.035	1733.699
410.453	19.326	1785.048	1731.543
411.467	19.287	1784.404	1730.322
412.482	19.189	1781.918	1726.713
413.496	18.929	1780.332	1722.351
414.511	18.887	1778.577	1720.019
415.526	18.953	1776.144	1718.127
416.540	18.839	1775.090	1715.761
417.555	18.854	1774.591	1715.220
418.569	19.109	1774.770	1717.742
419.584	19.167	1774.608	1717.967
420.599	19.033	1774.139	1715.962
421.613	19.018	1772.786	1714.303
422.628	19.042	1771.242	1712.841
423.642	19.048	1768.771	1710.305
424.657	18.979	1766.992	1707.691
425.672	18.955	1766.053	1706.344
426.686	19.130	1764.306	1706.188
427.701	19.092	1763.331	1704.671
428.715	19.226	1762.124	1704.627
429.730	19.347	1761.065	1704.607
430.745	19.211	1760.504	1702.508
431.759	19.268	1759.896	1702.284
432.774	19.672	1759.639	1705.835
433.788	19.969	1759.575	1708.519
434.803	20.103	1759.166	1709.246
435.818	20.109	1758.571	1708.522
436.832	20.177	1757.643	1708.089
437.847	19.519	1751.215	1695.147
438.861	11.562	1728.842	1595.453
439.876	2.295	1710.797	1488.263
440.890	0.348	1707.359	1466.068
441.905	0.178	1706.271	1463.301
442.920	0.224	1704.759	1462.281
443.934	0.104	1703.488	1459.844
444.949	0.168	1701.934	1458.955
445.963	0.167	1701.382	1458.305
446.978	0.083	1701.101	1457.069
447.993	0.078	1699.230	1455.240
449.007	0.131	1697.103	1453.757
450.022	0.188	1694.999	1452.335
451.036	0.083	1694.117	1450.389
452.051	1.097	1698.873	1464.131
453.066	9.714	1718.390	1565.136
454.080	18.591	1732.822	1665.074
455.095	21.044	1737.003	1692.853
456.109	22.288	1738.637	1706.379
457.124	22.655	1738.891	1710.005
458.139	22.726	1737.828	1709.446
459.153	22.888	1737.392	1710.391
460.168	22.804	1734.997	1707.011
461.182	22.717	1733.166	1704.158
462.197	22.735	1731.574	1702.569
463.212	22.639	1729.309	1699.208
464.226	22.559	1728.605	1697.535
465.241	22.978	1726.928	1699.734
466.255	23.280	1726.768	1702.293
467.270	23.309	1725.373	1701.000
468.285	22.820	1723.690	1694.418
469.299	22.691	1721.743	1691.061
470.314	22.771	1721.292	1691.179
471.328	22.818	1720.017	1690.180
472.343	22.811	1718.941	1688.857
473.358	22.858	1718.407	1688.579
474.372	22.828	1716.965	1686.669
475.387	22.890	1714.443	1684.588
476.401	22.740	1712.522	1681.056
477.416	22.694	1711.475	1679.391
478.430	22.987	1710.268	1680.808
479.445	22.612	1708.798	1675.581
480.460	22.426	1707.592	1672.419
481.474	22.557	1707.651	1673.526
482.489	22.879	1707.028	1675.787
483.503	23.313	1705.638	1678.355
484.518	23.407	1704.092	1677.535
485.533	23.341	1702.784	1675.412
486.547	23.273	1702.013	1673.813
487.562	23.776	1701.048	1677.435
488.576	23.695	1699.593	1675.030
489.591	23.503	1698.129	1671.568
490.606	23.356	1695.555	1667.449
491.620	23.369	1694.342	1666.180
492.635	23.771	1693.824	1669.268
493.649	23.940	1692.481	1669.336
494.664	23.250	1689.541	1659.737
495.679	22.599	1687.331	1651.236
496.693	22.754	1686.760	1651.941
497.708	23.142	1686.057	1654.703
498.722	23.819	1685.927	1660.734
499.737	23.801	1684.292	1658.760
500.752	23.333	1682.659	1652.566
501.766	23.186	1680.263	1648.639
502.781	23.420	1678.672	1649.071
503.795	23.294	1677.763	1646.796
504.810	23.412	1676.982	1646.938
505.825	23.621	1677.567	1649.270
506.839	23.458	1675.941	1645.953
507.854	23.636	1673.651	1645.166
508.868	23.592	1671.965	1642.898
509.883	23.521	1670.702	1640.802
510.898	23.756	1670.715	1642.803
511.912	23.477	1669.290	1638.617
512.927	23.175	1667.457	1633.822
513.941	23.211	1665.519	1632.054
514.956	22.987	1663.962	1628.261
515.971	23.191	1662.624	1628.644
516.985	23.282	1661.347	1628.044
518.000	23.394	1662.029	1629.546
519.014	23.681	1661.005	1630.998
520.029	23.895	1659.521	1631.322
521.043	23.713	1658.234	1628.179
522.058	23.653	1656.130	1625.369
523.073	23.743	1656.257	1626.132
524.087	24.154	1655.991	1629.454
525.102	24.183	1653.412	1626.982
526.116	23.541	1652.257	1619.769
527.131	23.428	1650.592	1616.907
528.146	24.073	1650.768	1622.793
529.160	24.276	1649.798	1623.502
530.175	24.237	1648.831	1622.003
531.189	24.341	1647.820	1621.760
532.204	24.485	1646.329	1621.418
533.219	23.921	1644.317	1614.094
534.233	23.413	1642.586	1607.570
535.248	23.730	1642.600	1610.282
536.262	24.484	1642.422	1616.788
537.277	24.311	1641.302	1613.913
538.292	24.108	1638.440	1609.067
539.306	23.945	1637.015	1605.991
540.321	23.887	1635.795	1604.080
541.335	23.790	1634.128	1601.374
542.350	24.098	1633.080	1602.937
543.365	24.488	1631.763	1604.986
544.379	24.491	1631.093	1604.155
545.394	24.517	1629.980	1603.109
546.408	24.026	1627.325	1595.880
547.423	23.375	1624.650	1587.209
548.438	23.085	1624.948	1584.698
549.452	23.753	1623.597	1589.195
550.467	23.935	1622.740	1589.803
551.481	23.965	1621.876	1589.037
552.496	24.290	1622.366	1592.239
553.511	24.786	1621.260	1595.416
554.525	24.539	1620.247	1592.014
555.540	24.660	1619.825	1592.493
556.554	24.777	1618.145	1591.696
557.569	24.525	1616.672	1587.808
558.583	24.414	1615.041	1585.022
559.598	24.201	1612.913	1580.844
560.613	24.314	1611.538	1580.316
561.627	24.431	1610.458	1580.107
562.642	24.590	1609.720	1580.606
563.656	24.951	1608.848	1582.772
564.671	24.888	1607.936	1581.128
565.686	24.734	1606.574	1578.230
566.700	24.492	1603.812	1573.185
567.715	24.357	1601.634	1569.662
568.729	24.036	1600.854	1565.875
569.744	23.771	1599.243	1561.774
570.759	23.947	1598.184	1562.107
571.773	24.251	1596.899	1563.337
572.788	24.502	1596.555	1565.031
573.802	24.528	1595.544	1564.082
574.817	24.548	1594.381	1562.926
575.832	24.982	1593.312	1565.508
576.846	24.805	1592.586	1563.048
577.861	24.704	1590.732	1560.155
578.875	24.839	1590.666	1561.092
579.890	25.077	1590.335	1562.668
580.905	25.202	1588.293	1561.566
581.919	25.189	1588.456	1561.425
582.934	25.481	1587.383	1562.737
583.948	25.393	1586.516	1560.925
584.963	25.281	1584.079	1557.363
585.978	24.674	1582.880	1550.709
586.992	24.891	1582.394	1551.941
588.007	25.293	1582.025	1554.892
589.021	24.632	1578.580	1545.573
590.036	23.908	1576.563	1537.127
591.051	24.379	1576.672	1541.138
592.065	24.936	1576.139	1545.267
593.080	25.207	1575.018	1546.338
594.094	25.274	1573.170	1544.916
595.109	24.608	1569.945	1535.811
596.123	24.134	1567.656	1529.292
597.138	24.695	1568.295	1534.577
598.153	25.007	1567.361	1536.172
599.167	24.887	1566.466	1534.076
600.182	24.951	1565.441	1533.436
601.196	25.149	1564.741	1534.276
602.211	25.044	1563.489	1531.960
603.226	25.414	1562.550	1534.029
604.240	25.423	1561.235	1532.638
605.255	25.754	1559.737	1533.820
606.269	25.614	1559.055	1531.767
607.284	25.490	1558.348	1529.826
608.299	25.600	1556.925	1529.188
609.313	25.214	1555.217	1524.028
610.328	25.181	1554.753	1523.107
611.342	25.454	1552.738	1523.284
612.357	25.540	1552.415	1523.511
613.372	25.636	1551.186	1522.942
614.386	25.435	1549.597	1519.495
615.401	25.553	1549.077	1519.803
616.415	25.560	1548.740	1519.348
617.430	25.632	1547.735	1518.790
618.445	25.685	1546.374	1517.724
619.459	25.564	1544.628	1514.803
620.474	25.201	1542.293	1509.261
621.488	24.556	1540.050	1501.440
622.503	24.143	1539.246	1496.985
623.518	24.757	1539.489	1502.235
624.532	25.443	1539.195	1507.552
625.547	25.658	1538.599	1508.602
626.561	25.762	1538.458	1509.157
627.576	26.032	1537.125	1509.939
628.591	25.374	1534.559	1501.708
629.605	25.013	1533.115	1497.091
630.620	24.936	1531.072	1494.269
631.634	24.475	1529.716	1488.903
632.649	24.791	1528.836	1490.511
633.663	25.111	1528.864	1493.038
634.678	25.770	1528.282	1497.804
635.693	26.035	1526.269	1497.869
636.707	25.972	1525.979	1496.877
637.722	26.238	1524.908	1497.864
638.736	26.244	1523.487	1496.336
639.751	26.214	1522.382	1494.828
640.766	26.166	1520.962	1492.853
641.780	26.130	1519.596	1491.034
642.795	25.924	1518.703	1488.274
643.809	26.177	1517.783	1489.289
644.824	26.172	1517.291	1488.583
645.839	25.946	1516.397	1485.662
646.853	26.199	1515.200	1486.402
647.868	26.124	1512.861	1483.307
648.882	25.895	1512.099	1480.491
649.897	25.794	1510.866	1478.279
650.912	25.918	1509.509	1477.795
651.926	26.093	1507.554	1477.147
652.941	25.728	1505.516	1471.974
653.955	25.030	1503.364	1463.957
654.970	24.476	1500.937	1456.879
655.985	24.583	1499.384	1456.072
656.999	24.570	1499.308	1455.716
658.014	25.192	1498.018	1459.384
659.028	25.573	1498.257	1462.551
660.043	25.785	1498.507	1464.352
661.058	26.032	1497.300	1465.015
662.072	26.119	1496.498	1464.771
663.087	25.961	1495.353	1462.181
664.101	25.883	1493.597	1459.652
665.116	25.972	1493.505	1460.113
666.131	26.043	1492.843	1459.869
667.145	26.050	1491.179	1458.126
668.160	26.326	1490.152	1459.184
669.174	26.542	1488.474	1459.123
670.189	26.564	1488.145	1458.804
671.204	26.174	1486.750	1454.101
672.218	26.312	1485.336	1453.665
673.233	26.413	1485.129	1454.101
674.247	26.737	1484.397	1455.827
675.262	26.873	1483.966	1456.331
676.276	26.635	1482.696	1452.988
677.291	26.552	1480.565	1450.058
678.306	26.212	1479.017	1445.633
679.320	26.186	1478.139	1444.396
680.335	26.397	1478.018	1445.795
681.349	26.478	1477.487	1445.755
682.364	26.550	1476.613	1445.308
683.379	26.382	1474.581	1441.798
684.393	26.329	1473.197	1439.848
685.408	26.574	1471.218	1439.697
686.422	26.479	1470.165	1437.737
687.437	26.397	1470.994	1437.719
688.452	26.477	1470.005	1437.223
689.466	26.479	1467.917	1435.025
690.481	26.409	1466.181	1432.596
691.495	25.922	1465.410	1427.795
692.510	25.475	1462.488	1421.222
693.525	25.139	1460.390	1416.351
694.539	25.474	1459.999	1418.462
695.554	26.194	1461.010	1424.984
696.568	26.659	1460.512	1428.017
697.583	26.693	1459.849	1427.461
698.598	26.678	1459.426	1426.757
699.612	26.699	1457.871	1425.232
700.627	26.918	1456.386	1425.343
701.641	26.785	1455.342	1423.099
702.656	26.902	1454.012	1422.556
703.671	27.042	1454.028	1423.499
704.685	27.150	1453.632	1423.793
705.700	26.916	1451.978	1420.163
706.714	26.692	1449.841	1416.142
707.729	26.443	1447.600	1411.827
708.744	26.468	1446.633	1410.917
709.758	26.533	1445.379	1410.032
710.773	25.781	1443.014	1401.676
711.787	25.584	1442.011	1398.993
712.802	25.996	1440.830	1400.900
713.816	26.381	1440.933	1403.833
714.831	26.586	1440.579	1404.918
715.846	26.664	1440.217	1405.008
716.860	26.863	1438.642	1404.855
717.875	26.821	1437.059	1402.810
718.889	26.544	1436.255	1399.707
719.904	26.629	1435.331	1399.298
720.919	26.884	1434.409	1400.212
721.933	27.002	1433.681	1400.247
722.948	26.973	1432.595	1398.792
723.962	26.945	1431.892	1397.723
724.977	27.115	1430.740	1397.748
725.992	27.107	1429.654	1396.455
727.006	27.037	1428.039	1394.170
728.021	27.233	1427.400	1394.891
729.035	27.303	1426.310	1394.201
730.050	27.164	1424.940	1391.626
731.065	27.036	1424.104	1389.655
732.079	27.334	1422.766	1390.478
733.094	27.262	1421.451	1388.466
734.108	27.081	1419.612	1385.121
735.123	27.086	1418.322	1383.736
736.138	27.063	1417.546	1382.638
737.152	27.075	1417.062	1382.087
738.167	27.362	1416.381	1383.455
739.181	27.350	1415.480	1382.313
740.196	27.352	1414.381	1381.095
741.211	27.358	1412.960	1379.587
742.225	27.186	1411.458	1376.643
743.240	27.325	1410.132	1376.241
744.254	27.226	1409.398	1374.608
745.269	27.089	1408.367	1372.402
746.284	26.946	1407.755	1370.552
747.298	26.776	1405.875	1367.274
748.313	26.652	1404.563	1364.891
749.327	26.033	1403.315	1358.832
750.342	25.606	1401.757	1353.931
751.356	25.144	1399.791	1348.375
752.371	25.557	1398.888	1350.467
753.386	26.454	1399.170	1357.341
754.400	26.888	1399.309	1360.590
755.415	27.324	1398.622	1363.041
756.429	27.464	1397.570	1362.909
757.444	27.357	1396.051	1360.457
758.459	27.501	1395.734	1361.065
759.473	27.523	1394.688	1360.047
760.488	27.301	1393.768	1357.322
761.502	27.416	1391.967	1356.269
762.517	27.283	1390.931	1354.104
763.532	27.213	1388.716	1351.266
764.546	26.814	1387.084	1346.534
765.561	26.202	1385.971	1340.730
766.575	25.460	1383.710	1332.849
767.590	25.317	1382.573	1330.532
768.605	26.209	1382.430	1336.870
769.619	26.878	1381.855	1341.131
770.634	27.054	1381.385	1341.824
771.648	27.316	1380.824	1343.064
772.663	27.381	1380.026	1342.604
773.678	27.317	1380.111	1342.054
774.692	27.472	1379.530	1342.473
775.707	27.548	1378.202	1341.582
776.721	27.491	1377.638	1340.453
777.736	27.516	1376.527	1339.395
778.751	27.512	1375.365	1338.077
779.765	27.362	1374.911	1336.368
780.780	27.528	1373.723	1336.276
781.794	27.617	1372.332	1335.418
782.809	27.318	1371.007	1331.767
783.824	27.256	1369.249	1329.446
784.838	26.907	1366.184	1323.753
785.853	26.089	1365.054	1316.503
786.867	26.261	1365.378	1317.919
787.882	26.410	1366.330	1319.778
788.897	26.671	1365.581	1320.807
789.911	27.061	1363.641	1321.626
790.926	27.071	1362.885	1320.811
791.940	27.253	1361.769	1320.898
792.955	27.391	1360.932	1320.932
793.969	27.371	1359.890	1319.620
794.984	27.403	1359.447	1319.262
795.999	27.530	1358.314	1318.933
797.013	27.654	1356.541	1317.955
798.028	27.786	1354.801	1317.059
799.042	27.616	1354.545	1315.423
800.057	27.909	1353.499	1316.372
801.072	27.709	1352.297	1313.600
802.086	27.624	1350.946	1311.516
803.101	27.862	1350.078	1312.235
804.115	27.701	1349.897	1310.737
805.130	27.635	1348.654	1308.896
806.145	27.664	1346.953	1307.296
807.159	27.626	1345.677	1305.632
808.174	27.390	1344.694	1302.821
809.188	27.235	1342.955	1299.868
810.203	26.930	1341.501	1296.114
811.218	26.810	1338.937	1292.621
812.232	26.272	1336.635	1286.401
813.247	25.894	1335.606	1282.548
814.261	26.463	1336.844	1287.660
815.276	27.185	1336.428	1292.262
816.291	27.353	1335.272	1292.192
817.305	27.410	1334.685	1291.874
818.320	27.522	1333.937	1291.797
819.334	27.653	1332.594	1291.274
820.349	27.658	1331.173	1289.776
821.364	27.745	1329.401	1288.520
822.378	27.870	1328.876	1288.749
823.393	27.799	1326.855	1286.127
824.407	27.813	1325.581	1284.842
825.422	27.598	1325.610	1283.194
826.437	27.551	1324.337	1281.474
827.451	27.245	1322.408	1277.295
828.466	26.479	1319.545	1268.979
829.480	26.428	1317.245	1266.255
830.495	26.646	1316.128	1266.561
831.509	27.066	1316.278	1269.509
832.524	27.246	1316.493	1270.828
833.539	27.614	1315.061	1271.872
834.553	27.789	1313.931	1271.851
835.568	27.825	1312.747	1270.808
836.582	27.832	1311.828	1269.814
837.597	27.686	1310.849	1267.696
838.612	27.750	1308.580	1265.793
839.626	27.601	1307.481	1263.543
840.641	27.203	1306.375	1259.551
841.655	26.849	1305.309	1255.912
842.670	26.261	1302.671	1249.138
843.685	25.486	1301.444	1242.431
844.699	26.417	1301.328	1248.634
845.714	27.013	1300.811	1252.117
846.728	26.962	1300.288	1251.109
847.743	27.181	1300.062	1252.261
848.758	27.505	1299.227	1253.546
849.772	27.779	1297.366	1253.498
850.787	27.810	1295.540	1251.793
851.801	27.655	1295.142	1250.190
852.816	27.610	1293.995	1248.629
853.831	27.590	1292.347	1246.752
854.845	27.620	1290.601	1245.122
855.860	27.336	1288.984	1241.462
856.874	27.337	1287.532	1239.926
857.889	27.078	1286.035	1236.566
858.904	26.451	1284.236	1230.402
859.918	26.308	1281.717	1226.865
860.933	25.920	1280.825	1223.217
861.947	26.507	1280.185	1226.457
862.962	26.963	1279.012	1228.291
863.977	26.945	1278.650	1227.672
864.991	27.167	1278.707	1229.089
866.006	27.417	1278.611	1230.549
867.020	27.521	1277.554	1230.095
868.035	27.814	1276.601	1231.015
869.049	27.786	1275.694	1229.802
870.064	27.870	1274.754	1229.317
871.079	27.855	1273.743	1228.093
872.093	27.586	1273.090	1225.499
873.108	27.572	1271.195	1223.434
874.122	27.291	1269.231	1219.503
875.137	26.668	1268.752	1214.699
876.152	26.462	1267.725	1212.183
877.166	26.571	1265.946	1211.074
878.181	27.064	1264.881	1213.217
879.195	27.333	1264.697	1214.702
880.210	27.501	1264.510	1215.506
881.225	27.647	1263.597	1215.456
882.239	27.679	1262.580	1214.548
883.254	27.632	1261.936	1213.473
884.268	27.830	1261.539	1214.263
885.283	27.828	1259.578	1212.221
886.298	27.832	1257.558	1210.161
887.312	27.896	1256.917	1209.822
888.327	27.777	1256.180	1208.178
889.341	27.687	1255.142	1206.439
890.356	27.649	1254.547	1205.465
891.371	27.452	1254.057	1203.543
892.385	27.353	1253.502	1202.212
893.400	27.228	1251.818	1199.624
894.414	27.122	1249.963	1196.999
895.429	27.046	1247.567	1194.059
896.444	26.386	1244.192	1186.335
897.458	25.631	1243.234	1180.304
898.473	26.028	1243.785	1183.300
899.487	26.737	1243.821	1187.866
900.502	27.239	1242.516	1189.779
901.517	27.575	1241.556	1190.924
902.531	27.541	1241.673	1190.676
903.546	27.484	1241.913	1190.384
904.560	27.670	1240.280	1189.900
905.575	27.610	1239.616	1188.726
906.589	27.629	1238.081	1187.236
907.604	27.501	1236.843	1185.071
