DTS Sentinel unit serial number:	SN409020Multiplexer serial number:	ORYXHardware model number:	OX4-SRSoftware version number:	ORYX F/W v3.00 Oryx Data Collector v3.7.2.0data status	okinstallation	HaddamTimeLapsedifferential loss correction	single-endedforward channel	channel 3reverse channel	N/Adate	2011/06/21time	18:41:17forward acquisition time	30.00reverse acquisition time	0.00gamma	498.7831k internal	0.1817k external	0.1817temperature offset calibration	1.0074default loss term (dB/km)	0.3790temperature slope calibration	1.3530multiplexer offset coefficient	1.0000multiplexer slope coefficient	1.0000fibre end	0.00T internal ref (°C)	35.87T ext. ref 1 (°C)	26.86T ext. ref 2 (°C)	0.25length (m)	temperature (°C)	Stokes	anti-Stokes-747.200	-16.801	-0.212	-0.171
-746.185	736.148	0.052	0.178
-745.171	88.066	0.058	-0.082
-744.156	-64.764	0.396	0.205
-743.142	800.000	0.106	-0.413
-742.127	-119.820	-0.479	0.105
-741.112	-42.590	-0.385	-0.250
-740.098	226.235	-0.255	0.531
-739.083	-133.425	-0.808	0.129
-738.069	-200.000	-0.060	0.389
-737.054	287.885	0.061	0.141
-736.039	-12.105	-0.603	0.504
-735.025	-92.787	-0.238	-0.085
-734.010	-200.000	0.006	-0.099
-732.996	-200.000	-0.033	0.195
-731.981	800.000	0.120	0.553
-730.966	-135.813	0.510	-0.076
-729.952	221.853	-0.157	-0.325
-728.937	-57.184	-0.359	-0.202
-727.923	43.866	0.131	-0.154
-726.908	-101.452	-0.168	0.052
-725.894	-125.658	-0.499	0.096
-724.879	-37.976	0.156	-0.106
-723.864	27.586	0.186	0.200
-722.850	-65.092	0.113	0.058
-721.835	-200.000	-0.009	-0.075
-720.821	-200.000	-0.070	0.486
-719.806	104.389	-0.168	0.253
-718.791	-200.000	0.005	-0.061
-717.777	494.179	-0.171	-0.506
-716.762	-19.525	-0.332	-0.263
-715.748	-84.128	-0.391	0.158
-714.733	-1.532	0.335	0.301
-713.718	-48.106	-0.399	-0.246
-712.704	-14.400	-0.279	0.230
-711.689	71.883	0.090	-0.120
-710.675	-14.211	0.115	0.095
-709.660	-134.263	0.179	0.028
-708.645	19.385	-0.351	0.360
-707.631	-146.307	0.382	-0.042
-706.616	-83.799	-0.167	-0.068
-705.602	-155.518	-0.521	-0.042
-704.587	-86.434	-0.520	-0.203
-703.572	59.629	-0.156	-0.197
-702.558	-200.000	0.029	0.421
-701.543	-52.206	-0.294	-0.174
-700.529	35.327	-0.082	0.092
-699.514	-72.142	0.440	-0.208
-698.499	800.000	0.027	0.132
-697.485	772.739	-0.106	-0.372
-696.470	-84.276	-0.429	0.173
-695.456	187.010	0.098	-0.187
-694.441	-104.905	-0.216	-0.063
-693.426	55.873	0.170	0.211
-692.412	-13.499	0.079	0.066
-691.397	-200.000	-0.035	-0.659
-690.383	-108.692	-0.244	0.066
-689.368	-200.000	-0.004	0.225
-688.354	-94.607	0.192	-0.066
-687.339	-108.711	0.277	-0.075
-686.324	-4.922	0.392	0.345
-685.310	-135.779	0.437	0.065
-684.295	-43.602	0.258	-0.166
-683.281	800.000	-0.017	-0.082
-682.266	-24.994	-0.277	-0.210
-681.251	623.987	-0.204	-0.661
-680.237	37.405	-0.288	-0.326
-679.222	84.490	0.121	-0.169
-678.208	-94.993	-0.499	-0.171
-677.193	-96.693	0.572	0.191
-676.178	-107.627	-0.089	-0.025
-675.164	-72.726	-0.240	-0.112
-674.149	37.576	-0.020	-0.023
-673.135	-200.000	-0.283	-0.000
-672.120	684.510	0.056	-0.188
-671.105	40.029	-0.214	-0.246
-670.091	800.000	-0.066	-0.359
-669.076	-45.000	0.246	-0.156
-668.062	-200.000	-0.008	0.121
-667.047	-49.272	-0.503	0.305
-666.032	166.427	-0.255	0.462
-665.018	-200.000	-0.079	0.492
-664.003	-103.711	-0.311	-0.092
-662.989	-200.000	-0.021	-0.612
-661.974	23.934	0.027	0.028
-660.959	-51.904	-0.143	0.085
-659.945	-97.421	-0.274	0.091
-658.930	211.042	0.046	-0.092
-657.916	-129.702	-0.532	-0.093
-656.901	-87.192	0.381	0.147
-655.886	-16.122	-0.319	-0.258
-654.872	-146.727	0.573	0.062
-653.857	-120.942	-0.351	0.075
-652.843	-117.712	0.261	-0.059
-651.828	-111.952	-0.086	0.022
-650.814	-52.391	0.486	-0.286
-649.799	800.000	0.019	-0.098
-648.784	-45.408	-0.059	-0.037
-647.770	-8.299	-0.413	0.354
-646.755	17.209	-0.338	-0.342
-645.741	800.000	-0.200	-0.718
-644.726	-2.166	0.124	-0.111
-643.711	494.275	0.047	0.137
-642.697	-98.985	-0.674	-0.217
-641.682	-78.000	-0.657	0.288
-640.668	89.552	-0.439	-0.626
-639.653	283.475	0.061	-0.140
-638.638	126.658	0.277	-0.449
-637.624	251.826	-0.219	-0.477
-636.609	-93.599	0.059	0.021
-635.595	-52.268	-0.355	-0.209
-634.580	711.638	-0.116	0.394
-633.565	-0.164	-0.344	0.311
-632.551	81.173	-0.085	0.118
-631.536	-3.747	-0.262	0.231
-630.522	0.111	-0.337	0.306
-629.507	-140.545	-0.260	0.034
-628.492	-94.851	0.468	-0.161
-627.478	-178.630	0.241	-0.007
-626.463	-200.000	0.024	0.460
-625.449	-70.980	0.179	-0.085
-624.434	800.000	-0.022	0.095
-623.419	800.000	0.124	-0.621
-622.405	-45.580	0.154	-0.097
-621.390	358.561	0.225	-0.576
-620.376	2.581	-0.205	0.189
-619.361	232.469	-0.116	0.243
-618.346	298.612	0.314	0.738
-617.332	556.100	0.137	0.421
-616.317	-182.738	0.084	-0.002
-615.303	-39.907	0.214	0.142
-614.288	-191.406	0.177	-0.002
-613.273	269.906	-0.062	0.139
-612.259	-199.274	-0.289	-0.002
-611.244	-58.908	-0.256	-0.141
-610.230	233.457	-0.086	-0.180
-609.215	-200.000	0.007	-0.289
-608.201	-0.642	0.244	-0.220
-607.186	-15.867	-0.517	0.418
-606.171	60.908	0.205	-0.259
-605.157	-96.579	0.296	0.099
-604.142	-28.239	0.258	0.189
-603.128	182.820	-0.167	0.315
-602.113	159.359	-0.235	-0.417
-601.098	-79.849	-0.056	0.024
-600.084	372.630	-0.132	0.344
-599.069	83.690	0.169	-0.234
-598.055	53.356	-0.062	-0.076
-597.040	-200.000	0.052	-0.322
-596.025	-200.000	0.043	0.752
-595.011	141.714	0.143	0.242
-593.996	800.000	-0.080	0.345
-592.982	-1.110	-0.438	-0.394
-591.967	438.798	-0.094	0.263
-590.952	-88.135	0.254	-0.096
-589.938	-58.475	0.104	0.057
-588.923	118.988	-0.113	0.178
-587.909	3.257	0.259	-0.240
-586.894	761.999	-0.061	-0.211
-585.879	-200.000	0.032	-0.210
-584.865	800.000	-0.028	-0.110
-583.850	-187.342	0.407	-0.007
-582.836	2.610	-0.177	-0.163
-581.821	-70.334	0.200	-0.096
-580.806	-132.903	-0.479	0.077
-579.792	-63.116	-0.033	-0.017
-578.777	-21.411	0.193	0.150
-577.763	-200.000	-0.042	0.437
-576.748	-200.000	-0.008	-0.271
-575.733	209.150	0.232	-0.463
-574.719	71.561	-0.036	-0.048
-573.704	-48.966	0.107	0.065
-572.690	-2.629	0.137	0.122
-571.675	198.077	-0.097	-0.189
-570.661	-145.488	-0.182	0.021
-569.646	-60.852	-0.444	-0.238
-568.631	-125.728	0.454	-0.086
-567.617	139.645	0.245	0.411
-566.602	-100.460	-0.400	-0.125
-565.588	390.820	-0.126	-0.333
-564.573	-200.000	0.024	-0.203
-563.558	-95.764	-0.299	0.101
-562.544	-74.872	0.115	-0.052
-561.529	253.195	0.069	0.150
-560.515	85.790	0.355	-0.497
-559.500	-56.299	0.189	0.106
-558.485	-17.921	-0.079	0.063
-557.471	-52.668	-0.072	-0.042
-556.456	-17.424	0.279	0.223
-555.442	-32.131	0.392	-0.278
-554.427	-9.819	0.032	0.027
-553.412	111.241	-0.133	-0.204
-552.398	-127.869	-0.147	0.027
-551.383	115.459	0.081	-0.127
-550.369	-91.933	-0.436	-0.156
-549.354	-142.971	-0.084	0.010
-548.339	77.213	0.163	0.220
-547.325	214.310	0.269	0.543
-546.310	200.840	-0.046	0.090
-545.296	-200.000	-0.032	0.260
-544.281	-29.798	0.086	0.062
-543.266	102.485	-0.307	0.456
-542.252	18.940	0.369	0.375
-541.237	45.493	0.170	0.199
-540.223	-10.839	-0.185	0.155
-539.208	-147.419	0.207	0.022
-538.193	-92.473	-0.343	-0.122
-537.179	126.476	-0.126	-0.202
-536.164	0.972	0.386	0.351
-535.150	342.911	-0.092	-0.229
-534.135	206.867	0.033	0.065
-533.121	247.400	-0.191	-0.411
-532.106	-47.645	-0.410	0.252
-531.091	-128.653	-0.048	-0.008
-530.077	83.690	0.178	0.247
-529.062	70.064	0.314	-0.411
-528.048	706.262	0.099	0.333
-527.033	-29.390	0.346	-0.251
-526.018	-29.835	0.162	0.117
-525.004	800.000	0.026	0.145
-523.989	-25.368	0.209	-0.156
-522.975	-35.064	-0.134	-0.092
-521.960	65.044	0.203	-0.261
-520.945	-126.388	0.375	0.070
-519.931	85.713	-0.157	0.219
-518.916	98.583	-0.206	0.301
-517.902	-200.000	0.036	0.244
-516.887	-90.481	-0.289	0.105
-515.872	-48.391	-0.403	-0.245
-514.858	-200.000	0.008	0.532
-513.843	113.676	0.062	-0.097
-512.829	-88.139	-0.274	-0.104
-511.814	-200.000	0.039	-0.240
-510.799	106.342	-0.145	0.218
-509.785	457.104	-0.117	-0.331
-508.770	22.618	-0.261	0.271
-507.756	-90.572	-0.547	0.199
-506.741	800.000	0.093	0.430
-505.726	-66.121	-0.053	-0.027
-504.712	459.250	-0.205	0.583
-503.697	347.537	-0.055	0.137
-502.683	-91.877	0.772	0.276
-501.668	326.991	0.137	0.336
-500.653	-159.619	0.168	0.012
-499.639	96.216	0.137	-0.199
-498.624	-43.309	0.258	-0.165
-497.610	91.097	0.386	-0.550
-496.595	-145.525	0.633	0.071
-495.581	-52.435	-0.506	0.296
-494.566	115.444	-0.208	0.322
-493.551	-185.663	0.361	-0.007
-492.537	513.998	0.033	-0.098
-491.522	221.751	0.221	-0.451
-490.508	-92.241	-0.108	-0.038
-489.493	-126.455	0.135	0.025
-488.478	-62.138	-0.312	-0.165
-487.464	800.000	-0.106	0.469
-486.449	54.348	0.272	0.332
-485.435	395.986	-0.146	0.387
-484.420	-104.026	-0.421	0.124
-483.405	-118.702	-0.169	0.038
-482.391	-139.627	-0.245	-0.033
-481.376	-200.000	0.013	-0.553
-480.362	-148.508	-0.384	-0.039
-479.347	35.001	0.223	0.248
-478.332	-56.735	-0.283	-0.158
-477.318	-84.659	0.555	0.220
-476.303	-177.523	0.181	0.006
-475.289	107.286	-0.104	0.156
-474.274	21.333	-0.353	0.363
-473.259	211.856	-0.176	-0.352
-472.245	-200.000	-0.012	-0.171
-471.230	47.225	0.367	0.433
-470.216	3.900	-0.287	0.265
-469.201	203.369	0.099	-0.194
-468.186	-101.855	-0.369	0.112
-467.172	-200.000	-0.015	-0.314
-466.157	-169.014	0.023	-0.001
-465.143	-96.964	0.330	0.109
-464.128	-200.000	0.004	0.289
-463.113	1.882	0.329	0.300
-462.099	100.266	-0.268	-0.395
-461.084	97.684	-0.074	0.107
-460.070	-172.522	-0.324	0.013
-459.055	800.000	-0.075	-0.295
-458.040	336.209	-0.120	-0.296
-457.026	-133.100	-0.005	-0.001
-456.011	-56.976	0.237	-0.132
-454.997	172.148	-0.230	0.420
-453.982	-5.770	0.415	0.360
-452.968	67.349	-0.096	0.125
-451.953	-4.134	0.395	-0.346
-450.938	629.484	0.047	-0.152
-449.924	479.670	-0.135	-0.389
-448.909	-123.295	0.106	-0.021
-447.895	800.000	0.019	0.102
-446.880	-44.314	0.375	0.237
-445.865	-200.000	0.035	0.244
-444.851	-136.016	-0.369	0.054
-443.836	33.627	0.096	-0.106
-442.822	-200.000	0.020	-0.164
-441.807	-26.220	0.304	-0.225
-440.792	-200.000	0.037	-0.299
-439.778	-200.000	0.016	-0.210
-438.763	-200.000	-0.053	0.344
-437.749	148.258	-0.293	0.502
-436.734	-158.606	0.188	0.014
-435.719	-142.766	-0.529	-0.064
-434.705	-153.187	0.622	-0.054
-433.690	132.574	-0.032	0.053
-432.676	-200.000	0.000	0.374
-431.661	-152.316	-0.252	-0.023
-430.646	-89.201	0.124	-0.046
-429.632	151.082	-0.155	0.267
-428.617	-123.457	0.131	0.026
-427.603	-104.564	-0.448	0.130
-426.588	800.000	-0.078	0.279
-425.573	-108.402	-0.200	-0.054
-424.559	-97.248	0.126	-0.041
-423.544	34.641	-0.356	0.394
-422.530	238.246	-0.151	-0.318
-421.515	-82.148	0.138	-0.056
-420.500	97.507	-0.204	-0.297
-419.486	-182.843	-0.675	0.015
-418.471	-58.876	-0.439	0.239
-417.457	-200.000	-0.043	0.767
-416.442	-181.440	0.536	0.013
-415.428	-94.506	-0.336	0.115
-414.413	-200.000	0.024	0.173
-413.398	102.044	0.299	-0.442
-412.384	-49.869	-0.140	-0.084
-411.369	375.476	-0.116	0.301
-410.355	562.861	-0.045	0.137
-409.340	185.317	0.285	0.537
-408.325	31.882	0.152	-0.165
-407.311	0.061	-0.122	0.110
-406.296	-200.000	-0.074	-0.460
-405.282	100.181	-0.092	0.136
-404.267	252.442	0.114	0.247
-403.252	-132.438	-0.119	-0.019
-402.238	185.199	-0.114	0.215
-401.223	-103.954	0.329	-0.096
-400.209	31.034	0.177	-0.192
-399.194	193.073	0.214	-0.410
-398.179	-40.885	0.300	0.195
-397.165	-93.377	-0.327	0.114
-396.150	76.420	-0.040	0.054
-395.136	-158.275	-0.167	-0.012
-394.121	-200.000	0.015	0.227
-393.106	-54.137	-0.490	0.280
-392.092	-73.897	-0.177	0.081
-391.077	-21.959	0.171	0.131
-390.063	-82.375	0.144	-0.059
-389.048	-75.147	0.431	0.194
-388.033	-25.493	-0.234	0.175
-387.019	-51.500	-0.336	0.198
-386.004	800.000	-0.132	0.592
-384.990	-68.500	0.565	0.276
-383.975	-63.114	0.470	0.244
-382.960	-154.755	-0.342	0.028
-381.946	54.381	-0.316	-0.384
-380.931	800.000	-0.096	-0.336
-379.917	-49.741	-0.343	-0.205
-378.902	-102.364	-0.387	-0.116
-377.888	-200.000	0.039	-0.232
-376.873	375.219	0.069	-0.177
-375.858	339.670	0.130	0.321
-374.844	83.298	0.317	0.437
-373.829	-130.148	-0.388	0.066
-372.815	800.000	0.042	0.196
-371.800	13.340	0.269	-0.263
-370.785	248.366	-0.103	0.221
-369.771	338.653	-0.133	-0.328
-368.756	83.644	0.304	-0.419
-367.742	-200.000	-0.032	-0.236
-366.727	-54.909	-0.354	0.201
-365.712	-119.607	-0.205	0.044
-364.698	194.545	0.194	-0.372
-363.683	155.833	-0.146	-0.254
-362.669	-160.939	0.462	0.030
-361.654	624.839	0.123	-0.395
-360.639	681.230	-0.028	-0.092
-359.625	-37.381	0.323	-0.217
-358.610	-200.000	0.001	0.063
-357.596	15.683	-0.250	0.248
-356.581	-113.349	0.605	0.149
-355.566	28.164	-0.065	0.069
-354.552	-200.000	-0.020	0.341
-353.537	282.059	-0.041	0.093
-352.523	-7.188	0.188	-0.161
-351.508	-89.065	-0.410	0.152
-350.493	-124.208	0.162	-0.032
-349.479	-55.930	0.367	-0.206
-348.464	-168.654	-0.502	0.024
-347.450	22.413	0.198	0.204
-346.435	-170.001	0.675	0.030
-345.420	190.343	0.169	0.322
-344.406	-111.655	0.267	0.068
-343.391	-200.000	0.005	-0.092
-342.377	800.000	0.125	-0.479
-341.362	88.468	-0.222	-0.311
-340.348	57.909	-0.211	-0.261
-339.333	132.287	-0.197	0.320
-338.318	-91.876	0.396	-0.141
-337.304	-150.078	-0.398	0.039
-336.289	-134.874	-0.192	0.029
-335.275	-16.260	0.166	-0.132
-334.260	-75.234	-0.259	-0.116
-333.245	88.718	0.107	0.151
-332.231	800.000	0.009	-0.037
-331.216	218.394	0.210	0.424
-330.202	-104.219	-0.187	0.054
-329.187	800.000	-0.044	-0.172
-328.172	-94.723	-0.444	0.151
-327.158	-115.087	-0.092	-0.022
-326.143	-114.611	0.237	-0.057
-325.129	-144.513	-0.250	0.029
-324.114	-90.967	0.531	0.191
-323.099	-127.451	0.271	-0.049
-322.085	800.000	0.087	0.430
-321.070	-39.563	-0.069	0.045
-320.056	195.258	0.070	-0.134
-319.041	-93.127	0.183	0.064
-318.026	-144.811	0.252	-0.029
-317.012	147.250	-0.250	-0.425
-315.997	57.205	-0.173	-0.212
-314.983	-71.210	-0.428	0.201
-313.968	-1.277	-0.167	-0.149
-312.953	-174.622	0.215	-0.008
-311.939	38.206	-0.033	0.037
-310.924	-72.490	0.200	0.093
-309.910	270.391	0.139	-0.309
-308.895	402.785	-0.064	0.169
-307.880	185.443	-0.148	-0.277
-306.866	51.488	-0.111	0.133
-305.851	-116.627	0.141	0.032
-304.837	-101.638	-0.253	0.077
-303.822	-13.317	0.232	-0.189
-302.807	-200.000	0.068	-0.403
-301.793	-200.000	0.038	-0.490
-300.778	375.717	-0.151	0.390
-299.764	-120.273	-0.504	0.107
-298.749	-200.000	-0.024	0.597
-297.735	-83.409	0.349	0.140
-296.720	-200.000	0.082	0.714
-295.705	91.960	0.220	0.311
-294.691	105.070	-0.174	-0.258
-293.676	247.458	-0.085	0.181
-292.662	-118.863	0.328	-0.072
-291.647	17.338	-0.236	-0.236
-290.632	-144.288	-0.753	-0.087
-289.618	-200.000	0.018	-0.236
-288.603	-80.805	0.072	0.030
-287.589	-82.560	0.163	-0.066
-286.574	175.148	0.037	-0.068
-285.559	-72.168	-0.114	-0.053
-284.545	144.462	-0.220	0.370
-283.530	-68.327	-0.111	-0.054
-282.516	110.368	0.168	0.255
-281.501	-200.000	-0.010	-0.076
-280.486	-43.214	0.427	0.271
-279.472	-21.546	0.313	0.239
-278.457	7.344	0.304	-0.285
-277.443	38.856	0.117	-0.132
-276.428	-200.000	0.004	0.059
-275.413	-10.730	-0.230	-0.191
-274.399	-187.386	0.239	-0.004
-273.384	800.000	-0.164	-0.650
-272.370	-197.718	0.265	-0.002
-271.355	-153.355	0.283	-0.024
-270.340	-86.762	-0.272	-0.104
-269.326	-141.469	-0.498	-0.063
-268.311	-30.587	0.227	-0.161
-267.297	477.509	-0.059	-0.170
-266.282	-64.124	0.150	-0.077
-265.267	345.132	-0.045	-0.112
-264.253	-200.000	-0.002	-0.042
-263.238	-172.066	0.402	-0.016
-262.224	-200.000	-0.011	0.490
-261.209	18.385	0.129	-0.130
-260.195	725.742	0.163	0.549
-259.180	-35.070	-0.320	0.218
-258.165	-200.000	0.031	0.242
-257.151	7.725	0.166	0.156
-256.136	116.387	-0.136	0.210
-255.122	-166.146	0.510	-0.027
-254.107	40.923	0.414	-0.469
-253.092	800.000	-0.057	-0.260
-252.078	10.183	0.208	0.198
-251.063	800.000	-0.014	0.066
-250.049	800.000	0.087	-0.324
-249.034	-12.976	-0.264	-0.216
-248.019	202.039	-0.092	0.179
-247.005	27.031	0.354	-0.372
-245.990	89.699	0.305	0.428
-244.976	-187.769	-0.169	-0.003
-243.961	-45.285	-0.325	0.202
-242.946	-30.135	0.116	-0.083
-241.932	-136.201	0.272	-0.040
-240.917	-200.000	-0.195	-0.000
-239.903	-68.816	0.337	0.163
-238.888	-185.926	-0.213	-0.004
-237.873	18.978	-0.239	-0.240
-236.859	-200.000	0.016	0.161
-235.844	27.325	-0.065	0.068
-234.830	-200.000	-0.018	-0.344
-233.815	7.160	-0.274	0.256
-232.800	7.881	-0.112	0.105
-231.786	-8.215	-0.172	-0.145
-230.771	-120.905	0.473	-0.099
-229.757	-127.684	0.472	-0.085
-228.742	-200.000	0.027	0.382
-227.727	107.588	0.089	-0.133
-226.713	-200.000	-0.036	0.384
-225.698	-200.000	0.063	0.395
-224.684	-75.739	0.236	0.105
-223.669	800.000	-0.115	-0.457
-222.655	62.867	-0.291	-0.366
-221.640	-7.748	0.190	0.161
-220.625	-90.196	0.315	0.114
-219.611	-130.402	-0.152	0.026
-218.596	-86.422	-0.273	0.105
-217.582	-29.482	0.198	0.142
-216.567	-7.948	-0.158	-0.133
-215.552	-197.485	-0.043	0.000
-214.538	699.988	0.065	0.216
-213.523	-174.571	-0.510	0.018
-212.509	-200.000	-0.040	0.305
-211.494	-200.000	0.015	-0.188
-210.479	-14.662	0.124	0.100
-209.465	-200.000	-0.010	-0.235
-208.450	800.000	-0.082	-0.412
-207.436	118.722	-0.237	-0.368
-206.421	60.410	-0.122	-0.151
-205.406	-200.000	0.464	-0.001
-204.392	100.366	0.262	-0.381
-203.377	-200.000	0.024	-0.356
-202.363	-1.746	0.048	0.042
-201.348	102.467	0.158	-0.232
-200.333	416.268	0.148	-0.397
-199.319	78.416	-0.332	-0.445
-198.304	-4.294	0.193	0.167
-197.290	29.542	-0.139	-0.148
-196.275	33.156	-0.265	-0.288
-195.260	800.000	0.046	-0.216
-194.246	-86.272	-0.459	-0.176
-193.231	800.000	-0.122	-0.535
-192.217	-37.385	-0.352	-0.235
-191.202	-122.491	-0.218	-0.044
-190.187	-196.675	0.353	0.003
-189.173	29.143	-0.176	-0.187
-188.158	-182.157	-0.332	0.008
-187.144	-82.238	0.132	0.054
-186.129	-103.819	0.547	0.159
-185.114	-110.052	0.878	-0.228
-184.100	-90.845	0.338	0.121
-183.085	-3.345	0.397	0.346
-182.071	800.000	-0.064	-0.303
-181.056	-84.777	0.186	0.073
-180.042	-200.000	0.090	-0.884
-179.027	304.909	0.118	-0.274
-178.012	203.576	-0.244	-0.475
-176.998	510.567	0.100	-0.292
-175.983	254.511	0.059	0.126
-174.969	-40.154	-0.164	0.107
-173.954	180.413	0.148	-0.272
-172.939	-200.000	-0.014	-0.720
-171.925	-22.501	-0.302	-0.228
-170.910	-9.850	0.170	0.142
-169.896	-95.663	0.048	-0.016
-168.881	-53.149	-0.315	0.180
-167.866	552.880	0.119	0.359
-166.852	800.000	0.034	-0.177
-165.837	800.000	-0.104	0.485
-164.823	-20.146	-0.182	0.140
-163.808	-200.000	0.014	-0.087
-162.793	-92.828	-0.721	-0.251
-161.779	14.406	0.237	0.231
-160.764	-200.000	-0.016	-0.110
-159.750	-14.739	0.511	-0.410
-158.735	-74.768	0.266	0.119
-157.720	63.672	0.273	0.344
-156.706	-200.000	-0.038	0.297
-155.691	376.693	0.073	-0.189
-154.677	249.097	-0.092	-0.195
-153.662	-61.172	0.141	-0.074
-152.647	-200.000	0.002	-0.404
-151.633	-121.201	-0.391	-0.081
-150.618	-200.000	0.096	-0.561
-149.604	416.039	0.129	-0.345
-148.589	-122.066	-0.316	-0.064
-147.574	-136.505	-0.154	0.022
-146.560	-32.044	-0.253	-0.177
-145.545	-84.304	0.603	-0.238
-144.531	-15.583	0.357	0.285
-143.516	-200.000	0.024	-0.406
-142.502	422.835	-0.074	0.200
-141.487	-51.076	-0.383	-0.224
-140.472	-147.168	-0.195	0.021
-139.458	-102.441	-0.264	0.079
-138.443	83.391	-0.134	-0.183
-137.429	564.563	-0.109	-0.332
-136.414	-200.000	-0.019	-0.235
-135.399	-200.000	-0.033	0.224
-134.385	-39.713	0.268	-0.175
-133.370	-96.692	0.288	0.094
-132.356	-128.637	0.252	0.044
-131.341	-74.969	0.117	-0.052
-130.326	800.000	0.080	-0.285
-129.312	-175.323	0.158	0.005
-128.297	-76.423	-0.436	0.191
-127.283	-200.000	0.001	0.043
-126.268	-194.956	0.070	0.001
-125.253	-150.339	0.546	0.052
-124.239	-47.318	0.446	0.271
-123.224	247.911	-0.127	0.269
-122.210	-164.078	0.332	0.019
-121.195	-86.929	-0.422	-0.160
-120.180	-170.473	0.111	-0.005
-119.166	179.130	0.227	-0.416
-118.151	227.057	-0.147	-0.300
-117.137	-119.705	0.504	0.108
-116.122	800.000	0.065	0.341
-115.107	-200.000	-0.045	-0.590
-114.093	-138.019	0.536	0.074
-113.078	-44.779	-0.343	0.213
-112.064	-29.815	0.160	-0.113
-111.049	-30.011	-0.193	0.137
-110.034	155.251	-0.175	0.302
-109.020	-21.129	0.315	0.240
-108.005	-200.000	-0.058	-0.415
-106.991	-200.000	-0.040	0.691
-105.976	153.085	0.164	0.281
-104.962	-200.000	-0.034	-0.268
-103.947	-146.947	-0.497	0.053
-102.932	-182.236	-0.299	-0.007
-101.918	800.000	0.174	-0.642
-100.903	34.533	-0.115	-0.126
-99.889	726.108	0.075	0.251
-98.874	-186.203	0.208	0.004
-97.859	-200.000	0.015	0.617
-96.845	-80.894	-0.451	-0.186
-95.830	-86.007	0.263	0.101
-94.816	-145.157	-0.229	-0.026
-93.801	800.000	0.023	-0.122
-92.786	-127.351	-0.541	0.098
-91.772	-200.000	-0.046	0.355
-90.757	-153.574	0.357	0.030
-89.743	800.000	0.058	0.287
-88.728	-19.528	0.065	-0.050
-87.713	-69.347	0.045	0.021
-86.699	800.000	0.100	-0.380
-85.684	-200.000	0.006	-0.511
-84.670	-76.796	-0.251	-0.109
-83.655	81.424	-0.150	-0.202
-82.640	375.591	0.040	-0.103
-81.626	195.488	-0.144	-0.275
-80.611	69.186	-0.178	0.229
-79.597	-200.000	-0.056	-0.379
-78.582	-200.000	0.013	-0.152
-77.567	4.660	-0.252	0.231
-76.553	100.534	-0.305	0.443
-75.538	-200.000	-0.017	-0.144
-74.524	42.011	-0.344	-0.390
-73.509	-117.774	-0.232	-0.052
-72.494	-129.271	0.440	-0.076
-71.480	26.580	-0.255	-0.266
-70.465	-200.000	0.083	-0.492
-69.451	113.203	0.315	-0.477
-68.436	-136.151	-0.641	-0.093
-67.422	-200.000	0.010	-0.227
-66.407	-92.000	0.063	0.022
-65.392	-64.664	-0.350	0.176
-64.378	13.047	-0.210	-0.202
-63.363	800.000	0.063	-0.304
-62.349	7.774	0.277	-0.259
-61.334	-109.329	-1.421	-0.373
-60.319	-94.442	1.149	0.388
-59.305	241.928	-2.941	-6.151
-58.290	67.510	2.565	3.268
-57.276	469.752	3.721	10.472
-56.261	-200.000	14.294	221.786
-55.246	474.762	1162.435	3286.107
-54.232	64.294	2812.354	3532.300
-53.217	72.975	2709.601	3531.637
-52.203	73.037	2438.684	3179.224
-51.188	39.366	2088.100	2330.678
-50.173	39.500	1956.961	2185.715
-49.159	36.821	1946.839	2144.546
-48.144	36.468	1942.111	2135.328
-47.130	36.233	1939.764	2130.054
-46.115	36.238	1938.056	2128.159
-45.100	36.132	1937.180	2125.937
-44.086	36.149	1935.141	2123.804
-43.071	36.111	1934.347	2122.420
-42.057	36.156	1932.400	2120.701
-41.042	36.081	1931.955	2119.294
-40.027	36.176	1930.063	2118.192
-39.013	36.211	1928.081	2116.315
-37.998	36.078	1927.533	2114.163
-36.984	36.111	1925.742	2112.479
-35.969	36.047	1925.106	2110.992
-34.954	36.121	1923.037	2109.450
-33.940	35.956	1923.059	2107.576
-32.925	36.080	1920.853	2106.435
-31.911	36.101	1919.615	2105.228
-30.896	35.975	1918.641	2102.698
-29.881	35.984	1916.575	2100.444
-28.867	35.940	1915.489	2098.693
-27.852	35.894	1914.573	2097.094
-26.838	35.897	1912.974	2095.295
-25.823	35.950	1911.401	2094.067
-24.809	35.910	1909.950	2091.957
-23.794	35.807	1908.991	2089.708
-22.779	35.905	1907.511	2089.065
-21.765	35.778	1906.151	2086.114
-20.750	35.769	1905.055	2084.732
-19.736	35.884	1903.051	2083.707
-18.721	35.772	1902.364	2081.654
-17.706	35.812	1901.858	2081.455
-16.692	35.774	1900.219	2079.165
-15.677	35.746	1899.379	2077.854
-14.663	35.793	1897.467	2076.196
-13.648	35.823	1896.380	2075.246
-12.633	35.793	1894.891	2073.210
-11.619	35.837	1893.170	2071.717
-10.604	35.685	1892.445	2069.204
-9.590	35.805	1891.150	2069.002
-8.575	35.672	1890.015	2066.243
-7.560	35.614	1889.209	2064.649
-6.546	35.731	1888.361	2064.910
-5.531	35.731	1886.646	2062.950
-4.517	35.775	1885.300	2061.868
-3.502	35.665	1884.708	2059.955
-2.487	35.791	1883.890	2060.339
-1.473	35.785	1881.026	2057.058
-0.458	35.817	1860.505	2034.869
0.556	30.983	1990.915	2109.941
1.571	29.190	2205.199	2314.129
2.586	30.707	2252.206	2382.720
3.600	30.647	2255.113	2384.745
4.615	30.978	2253.745	2387.270
5.629	30.787	2251.226	2381.858
6.644	30.963	2249.541	2382.052
7.659	31.131	2249.075	2383.430
8.673	31.273	2247.388	2383.187
9.688	30.577	2250.750	2377.523
10.702	26.869	2318.934	2400.035
11.717	23.307	2380.913	2415.156
12.731	12.117	2352.572	2233.731
13.746	1.895	2325.341	2068.720
14.761	0.325	2320.558	2042.840
15.775	0.180	2318.459	2038.766
16.790	0.140	2316.562	2036.317
17.804	0.142	2314.669	2034.441
18.819	0.116	2313.960	2033.221
19.834	0.085	2311.668	2030.542
20.848	0.095	2310.249	2029.189
21.863	0.103	2308.799	2027.779
22.877	0.044	2307.652	2025.733
23.892	0.061	2305.448	2023.782
24.907	0.071	2303.134	2021.638
25.921	0.111	2301.024	2020.086
26.936	0.020	2299.277	2017.078
27.950	0.025	2296.353	2014.351
28.965	0.090	2294.900	2013.706
29.980	0.160	2293.411	2013.093
30.994	0.302	2291.708	2013.263
32.009	6.284	2311.131	2110.926
33.023	20.205	2353.467	2339.336
34.038	26.595	2365.841	2438.146
35.053	27.256	2363.844	2444.723
36.067	26.996	2361.254	2438.247
37.082	26.904	2358.300	2433.666
38.096	27.013	2356.675	2433.168
39.111	27.083	2355.365	2432.466
40.126	27.014	2353.451	2429.270
41.140	27.145	2351.825	2429.064
42.155	27.212	2350.565	2428.370
43.169	27.043	2347.592	2422.739
44.184	27.136	2345.203	2421.231
45.199	27.126	2343.591	2419.141
46.213	26.990	2341.762	2415.144
47.228	27.020	2340.965	2414.433
48.242	27.375	2339.898	2417.788
49.257	27.472	2338.604	2417.456
50.271	27.685	2336.834	2418.168
51.286	27.657	2333.664	2414.230
52.301	27.124	2330.863	2403.955
53.315	27.009	2331.362	2402.648
54.330	27.418	2331.500	2407.947
55.344	27.868	2327.918	2409.932
56.359	27.886	2325.909	2407.795
57.374	27.699	2323.742	2402.797
58.388	27.698	2319.565	2398.180
59.403	27.676	2316.306	2394.232
60.417	27.468	2312.931	2387.713
61.432	27.733	2311.943	2389.890
62.447	27.613	2310.784	2386.831
63.461	27.652	2309.283	2385.505
64.476	27.559	2307.089	2381.733
65.490	27.788	2305.793	2383.121
66.505	27.548	2302.885	2376.682
67.520	26.959	2301.574	2367.331
68.534	27.190	2298.547	2366.947
69.549	27.000	2293.988	2359.486
70.563	26.887	2292.290	2355.984
71.578	26.952	2291.469	2355.711
72.593	27.433	2290.240	2360.441
73.607	27.501	2288.613	2359.359
74.622	27.392	2286.578	2355.559
75.636	27.369	2284.608	2352.947
76.651	27.228	2282.478	2348.642
77.666	27.394	2280.841	2348.832
78.680	27.304	2278.708	2345.191
79.695	26.932	2275.040	2336.328
80.709	26.266	2270.253	2322.528
81.724	25.891	2268.606	2315.714
82.739	26.518	2269.022	2323.957
83.753	27.575	2269.222	2337.523
84.768	27.538	2267.726	2335.222
85.782	27.461	2267.035	2333.238
86.797	27.501	2264.535	2330.904
87.812	27.236	2261.257	2323.843
88.826	27.238	2259.425	2321.719
89.841	27.404	2258.766	2322.885
90.855	27.824	2255.747	2324.887
91.870	27.315	2253.214	2315.485
92.884	27.146	2251.265	2311.041
93.899	27.179	2250.206	2310.100
94.914	26.848	2249.065	2304.428
95.928	26.715	2248.469	2301.850
96.943	26.903	2245.955	2301.398
97.957	27.234	2244.196	2303.527
98.972	27.258	2242.906	2302.235
99.987	26.922	2239.704	2294.405
101.001	26.959	2236.695	2291.512
102.016	27.182	2235.226	2292.560
103.030	27.030	2232.082	2287.139
104.045	26.961	2230.231	2284.097
105.060	27.296	2229.978	2287.802
106.074	27.620	2227.951	2289.543
107.089	27.229	2224.683	2280.977
108.103	26.857	2224.072	2275.390
109.118	27.160	2222.697	2277.530
110.133	27.209	2220.421	2275.534
111.147	27.168	2219.270	2273.573
112.162	27.167	2218.722	2272.730
113.176	27.362	2216.017	2272.131
114.191	27.083	2212.851	2265.118
115.206	27.077	2211.263	2263.146
116.220	27.195	2210.484	2263.544
117.235	27.203	2207.616	2260.441
118.249	27.123	2205.437	2256.944
119.264	27.063	2203.886	2254.339
120.279	26.910	2202.293	2250.534
121.293	26.786	2200.564	2246.950
122.308	26.838	2198.142	2244.859
123.322	26.646	2196.277	2240.290
124.337	26.259	2193.883	2232.777
125.352	26.393	2195.445	2235.762
126.366	27.258	2195.234	2246.029
127.381	27.531	2192.615	2246.465
128.395	27.485	2190.537	2243.490
129.410	27.105	2187.232	2235.146
130.424	27.015	2185.506	2231.998
131.439	27.328	2184.327	2234.392
132.454	27.182	2183.510	2231.482
133.468	27.473	2180.598	2231.834
134.483	27.392	2178.464	2228.387
135.497	27.265	2176.912	2224.964
136.512	27.582	2175.836	2227.490
137.527	27.666	2174.498	2226.884
138.541	27.494	2173.134	2223.110
139.556	27.519	2172.141	2222.136
140.570	27.435	2169.822	2218.477
141.585	27.199	2167.120	2212.560
142.600	27.178	2166.326	2211.221
143.614	27.111	2164.913	2208.702
144.629	27.374	2163.543	2210.247
145.643	27.043	2161.149	2203.505
146.658	26.930	2158.613	2199.278
147.673	26.870	2154.900	2194.501
148.687	26.689	2153.961	2191.080
149.702	26.744	2153.816	2191.343
150.716	27.020	2153.380	2193.994
151.731	27.609	2153.331	2200.819
152.746	27.851	2153.083	2203.244
153.760	27.238	2151.089	2193.511
154.775	26.745	2148.925	2185.065
155.789	26.736	2148.032	2183.794
156.804	26.928	2144.126	2181.879
157.819	26.916	2140.852	2178.136
158.833	26.953	2138.426	2175.858
159.848	27.169	2136.982	2176.729
160.862	27.227	2136.317	2176.485
161.877	27.503	2136.047	2179.271
162.892	27.658	2135.035	2179.837
163.906	27.743	2134.029	2179.570
164.921	27.751	2131.983	2177.318
165.935	27.546	2128.954	2171.504
166.950	27.282	2125.925	2164.999
167.964	27.085	2124.490	2160.923
168.979	26.972	2123.511	2158.316
169.994	27.079	2121.683	2157.479
171.008	27.044	2118.983	2154.063
172.023	26.760	2117.336	2148.747
173.037	27.177	2117.737	2153.858
174.052	27.162	2115.896	2151.553
175.067	27.093	2113.508	2148.051
176.081	26.879	2111.770	2143.479
177.096	27.041	2111.855	2145.243
178.110	27.237	2110.315	2145.735
179.125	26.990	2108.434	2140.640
180.140	27.230	2106.377	2141.136
181.154	27.303	2105.414	2140.770
182.169	27.422	2104.664	2141.152
183.183	27.307	2103.407	2138.264
184.198	27.360	2102.470	2137.677
185.213	27.204	2101.079	2134.173
186.227	27.436	2098.179	2133.706
187.242	27.109	2095.967	2127.352
188.256	27.002	2094.302	2124.145
189.271	27.229	2093.655	2125.902
190.286	27.156	2091.778	2122.893
191.300	27.047	2086.961	2116.462
192.315	27.059	2086.847	2116.234
193.329	27.146	2087.622	2117.792
194.344	27.453	2086.467	2119.964
195.359	27.265	2084.584	2115.591
196.373	27.379	2082.859	2114.925
197.388	27.387	2079.588	2111.443
198.402	27.201	2077.613	2107.022
199.417	27.316	2075.708	2106.165
200.432	27.413	2073.423	2104.728
201.446	27.251	2072.924	2102.084
202.461	27.110	2071.366	2098.613
203.475	26.986	2069.608	2095.144
204.490	27.119	2067.413	2094.217
205.504	27.052	2065.272	2091.022
206.519	26.983	2062.575	2087.237
207.534	27.103	2062.422	2088.228
208.548	27.505	2061.537	2091.717
209.563	27.077	2059.666	2084.636
210.577	27.257	2058.573	2085.356
211.592	27.642	2058.075	2089.038
212.607	27.296	2056.933	2083.642
213.621	26.615	2054.982	2073.578
214.636	26.634	2054.157	2072.721
215.650	27.466	2052.821	2080.685
216.665	27.787	2051.558	2082.831
217.680	27.525	2050.440	2078.451
218.694	27.599	2047.705	2076.277
219.709	27.110	2045.082	2067.771
220.723	27.230	2043.040	2066.834
221.738	27.688	2043.425	2072.200
222.753	27.886	2042.153	2072.927
223.767	27.716	2039.143	2067.687
224.782	27.313	2036.800	2060.476
225.796	27.313	2034.923	2058.328
226.811	27.357	2034.559	2058.220
227.826	27.309	2032.542	2055.388
228.840	27.088	2030.681	2050.753
229.855	27.200	2029.458	2050.541
230.869	27.171	2027.343	2047.830
231.884	27.255	2026.455	2047.642
232.899	27.320	2026.118	2047.789
233.913	27.428	2025.191	2047.824
234.928	27.453	2024.065	2046.727
235.942	27.293	2020.751	2041.327
236.957	26.804	2019.183	2033.978
237.972	27.027	2018.296	2035.354
238.986	26.984	2017.706	2034.038
240.001	26.936	2014.389	2029.913
241.015	26.695	2013.474	2026.040
242.030	27.151	2015.247	2032.707
243.045	27.284	2013.071	2031.763
244.059	27.509	2011.839	2032.800
245.074	27.625	2008.624	2030.606
246.088	27.340	2005.505	2024.017
247.103	27.339	2004.506	2022.765
248.117	27.738	2003.331	2025.783
249.132	27.610	2001.917	2022.690
250.147	27.325	1998.891	2016.211
251.161	26.824	1997.774	2009.269
252.176	27.077	1996.271	2010.325
253.190	27.025	1992.985	2006.202
254.205	26.821	1991.416	2002.119
255.220	26.911	1990.266	2001.726
256.234	26.644	1989.008	1997.254
257.249	26.662	1987.844	1996.053
258.263	26.958	1986.363	1997.599
259.278	27.086	1986.204	1998.616
260.293	27.081	1985.911	1998.027
261.307	27.048	1983.496	1994.998
262.322	27.194	1981.459	1994.315
263.336	26.753	1979.615	1987.356
264.351	26.923	1977.528	1986.896
265.366	27.252	1977.198	1989.954
266.380	27.348	1977.367	1990.936
267.395	27.164	1975.345	1986.646
268.409	27.174	1973.840	1985.005
269.424	27.297	1972.474	1984.739
270.439	27.302	1972.080	1984.161
271.453	27.723	1970.448	1986.885
272.468	27.232	1968.323	1979.140
273.482	26.979	1965.800	1973.602
274.497	27.119	1963.823	1972.912
275.512	27.411	1961.242	1973.257
276.526	27.519	1958.805	1971.751
277.541	27.083	1956.874	1964.827
278.555	26.834	1955.031	1960.043
279.570	26.832	1952.980	1957.729
280.585	26.911	1951.517	1956.881
281.599	26.989	1951.281	1957.259
282.614	27.260	1950.033	1958.705
283.628	27.088	1948.249	1954.814
284.643	26.733	1946.638	1949.134
285.657	26.148	1943.900	1939.836
286.672	26.102	1941.749	1936.968
287.687	25.810	1939.224	1931.063
288.701	25.824	1938.295	1930.065
289.716	25.376	1935.796	1922.522
290.730	24.424	1931.764	1908.057
291.745	25.166	1932.585	1916.617
292.760	25.920	1933.054	1924.948
293.774	26.207	1934.354	1929.098
294.789	27.227	1935.087	1940.545
295.803	27.296	1932.673	1938.631
296.818	27.123	1931.283	1935.155
297.833	27.290	1931.103	1936.526
298.847	27.190	1929.246	1933.363
299.862	27.075	1926.732	1929.388
300.876	26.973	1926.013	1927.351
301.891	27.210	1925.991	1929.618
302.906	27.469	1925.009	1931.172
303.920	27.357	1922.305	1927.034
304.935	27.501	1920.070	1926.098
305.949	27.365	1918.581	1922.921
306.964	27.523	1916.845	1922.633
307.979	26.953	1913.127	1912.634
308.993	25.347	1906.855	1889.169
310.008	23.573	1901.194	1864.610
311.022	23.342	1900.020	1860.800
312.037	23.782	1899.023	1864.237
313.052	23.588	1896.645	1859.642
314.066	23.036	1895.042	1852.032
315.081	23.224	1894.275	1853.039
316.095	23.299	1892.841	1852.208
317.110	23.085	1891.623	1848.541
318.125	23.021	1889.376	1845.458
319.139	22.927	1887.747	1842.663
320.154	23.224	1886.570	1844.400
321.168	23.473	1885.862	1846.096
322.183	24.802	1889.103	1862.970
323.197	26.753	1892.411	1886.438
324.212	27.246	1892.129	1891.087
325.227	27.208	1890.426	1888.754
326.241	27.278	1887.729	1886.568
327.256	27.356	1887.524	1886.952
328.270	27.127	1885.659	1882.474
329.285	27.214	1885.316	1882.812
330.300	27.279	1885.057	1883.007
331.314	26.941	1883.969	1878.172
332.329	27.003	1881.936	1876.572
333.343	27.304	1879.700	1877.243
334.358	27.224	1878.060	1874.548
335.373	27.356	1877.085	1874.720
336.387	27.561	1876.600	1876.131
337.402	27.582	1874.072	1873.596
338.416	27.442	1872.265	1870.116
339.431	27.372	1870.784	1867.692
340.446	27.374	1868.846	1865.553
341.460	26.738	1865.295	1855.242
342.475	26.552	1863.317	1851.142
343.489	25.377	1857.602	1833.196
344.504	23.739	1853.434	1812.089
345.519	23.436	1851.775	1807.139
346.533	23.210	1849.826	1802.708
347.548	23.197	1848.707	1801.272
348.562	23.368	1847.961	1802.079
349.577	23.345	1846.830	1800.528
350.592	23.571	1846.118	1801.923
351.606	23.574	1844.750	1800.397
352.621	23.267	1841.041	1793.443
353.635	23.059	1840.808	1790.881
354.650	24.148	1843.712	1804.592
355.665	25.990	1844.935	1824.321
356.679	26.542	1845.711	1830.481
357.694	27.035	1845.542	1835.104
358.708	27.310	1845.028	1837.163
359.723	27.366	1843.831	1836.319
360.738	27.261	1842.194	1833.402
361.752	27.241	1841.376	1832.172
362.767	27.392	1839.800	1831.910
363.781	27.405	1837.214	1829.243
364.796	27.396	1836.294	1828.024
365.810	27.350	1835.472	1826.518
366.825	27.058	1831.512	1819.425
367.840	25.323	1825.018	1795.329
368.854	23.281	1821.599	1771.244
369.869	23.136	1818.744	1766.795
370.883	23.178	1818.470	1766.747
371.898	23.417	1817.707	1768.187
372.913	23.509	1816.438	1767.659
373.927	23.321	1813.249	1762.464
374.942	23.371	1812.706	1762.231
375.956	24.251	1814.399	1772.465
376.971	25.137	1814.265	1780.968
377.986	25.301	1813.132	1781.283
379.000	25.349	1811.646	1780.083
380.015	25.390	1811.049	1779.697
381.029	26.436	1812.173	1791.006
382.044	27.162	1811.657	1797.500
383.059	27.077	1810.461	1795.253
384.073	27.109	1809.673	1794.576
385.088	27.319	1809.225	1796.004
386.102	27.286	1807.305	1793.557
387.117	27.170	1805.575	1790.474
388.132	27.278	1804.725	1790.484
389.146	27.207	1804.849	1789.688
390.161	27.184	1802.708	1787.124
391.175	27.121	1798.540	1782.155
392.190	26.750	1796.049	1775.826
393.205	26.858	1795.152	1775.783
394.219	27.060	1792.850	1775.281
395.234	27.091	1791.455	1773.993
396.248	27.069	1789.635	1771.761
397.263	26.999	1787.533	1768.789
398.278	26.910	1786.390	1766.566
399.292	26.749	1784.877	1763.284
400.307	26.560	1783.114	1759.488
401.321	25.887	1780.490	1750.118
402.336	25.746	1778.899	1746.975
403.350	25.727	1777.033	1744.751
404.365	25.758	1776.120	1743.945
405.380	25.523	1772.554	1737.950
406.394	23.991	1768.232	1718.642
407.409	23.325	1765.979	1709.788
408.423	23.318	1765.220	1708.782
409.438	23.347	1762.299	1706.030
410.453	23.108	1761.906	1703.134
411.467	23.392	1761.403	1705.187
412.482	23.940	1762.677	1711.518
413.496	26.059	1766.594	1735.635
414.511	27.119	1766.235	1745.310
415.526	27.102	1764.251	1742.976
416.540	27.126	1762.909	1741.678
417.555	26.984	1762.029	1739.236
418.569	26.914	1760.964	1737.300
419.584	26.794	1761.125	1736.089
420.599	26.866	1760.982	1736.440
421.613	26.909	1760.105	1735.780
422.628	26.859	1757.648	1732.670
423.642	26.645	1755.935	1728.717
424.657	26.224	1753.890	1722.464
425.672	26.466	1752.751	1723.456
426.686	26.681	1751.133	1723.712
427.701	26.353	1749.675	1718.937
428.715	26.495	1748.121	1718.559
429.730	26.745	1747.789	1720.415
430.745	27.112	1746.897	1722.832
431.759	27.448	1747.660	1726.582
432.774	27.949	1747.109	1730.601
433.788	26.535	1742.349	1712.239
434.803	24.757	1738.879	1691.745
435.818	24.603	1738.125	1689.344
436.832	24.496	1736.955	1686.986
437.847	24.043	1730.015	1675.757
438.861	15.531	1705.572	1572.130
439.876	3.433	1682.364	1437.683
440.890	0.344	1677.044	1404.076
441.905	0.163	1675.427	1400.864
442.920	0.215	1674.167	1400.129
443.934	0.192	1673.127	1398.873
444.949	0.071	1672.502	1397.055
445.963	-0.002	1671.602	1395.451
446.978	0.151	1670.747	1395.995
447.993	0.168	1668.644	1394.230
449.007	0.163	1666.361	1392.108
450.022	0.081	1664.679	1389.777
451.036	0.200	1662.859	1389.200
452.051	1.546	1670.053	1407.569
453.066	12.654	1696.339	1534.077
454.080	23.275	1712.380	1648.316
455.095	25.638	1717.749	1675.437
456.109	27.951	1721.996	1701.047
457.124	28.931	1720.517	1708.543
458.139	28.353	1718.922	1701.360
459.153	27.897	1716.874	1694.881
460.168	27.774	1715.588	1692.255
461.182	28.028	1716.045	1694.877
462.197	28.812	1715.303	1701.239
463.212	28.836	1713.750	1699.719
464.226	29.120	1713.194	1701.603
465.241	29.392	1713.202	1703.933
466.255	29.597	1711.545	1703.982
467.270	29.723	1709.879	1703.282
468.285	29.725	1709.112	1702.336
469.299	29.921	1709.041	1703.877
470.314	30.182	1707.195	1704.239
471.328	30.263	1705.656	1703.250
472.343	30.269	1705.299	1702.748
473.358	30.308	1704.153	1701.753
474.372	30.544	1702.855	1702.426
475.387	30.706	1701.864	1702.726
476.401	30.407	1700.400	1698.311
477.416	30.083	1699.068	1693.797
478.430	30.161	1697.304	1692.555
479.445	30.205	1696.058	1691.508
480.460	29.963	1694.002	1687.038
481.474	30.147	1694.318	1688.839
482.489	30.473	1694.238	1691.541
483.503	30.531	1691.526	1689.157
484.518	30.312	1689.803	1685.237
485.533	30.515	1688.826	1685.913
486.547	30.422	1686.891	1682.931
487.562	30.207	1685.574	1679.464
488.576	30.466	1685.065	1681.110
489.591	30.879	1684.459	1684.059
490.606	30.754	1682.684	1680.948
491.620	30.701	1681.186	1678.771
492.635	30.801	1679.574	1677.863
493.649	30.351	1677.273	1671.297
494.664	29.873	1676.318	1665.819
495.679	29.845	1674.496	1663.559
496.693	29.961	1673.508	1663.418
497.708	30.380	1672.205	1665.707
498.722	30.528	1672.527	1667.165
499.737	30.801	1671.118	1668.021
500.752	30.645	1669.281	1664.581
501.766	30.428	1668.325	1661.483
502.781	30.663	1666.531	1661.602
503.795	30.555	1664.761	1658.669
504.810	30.601	1663.398	1657.522
505.825	30.450	1662.649	1655.231
506.839	30.173	1660.412	1650.328
507.854	30.000	1659.302	1647.481
508.868	30.022	1656.882	1645.077
509.883	29.467	1654.825	1637.886
510.898	29.123	1652.719	1632.545
511.912	28.604	1650.293	1625.331
512.927	28.079	1647.369	1617.589
513.941	28.092	1646.149	1616.310
514.956	28.359	1646.129	1618.467
515.971	29.293	1646.198	1626.631
516.985	28.867	1645.301	1621.778
518.000	28.351	1643.454	1615.189
519.014	28.370	1641.887	1613.622
520.029	28.385	1640.354	1612.054
521.043	28.228	1638.643	1608.799
522.058	28.309	1637.382	1608.079
523.073	28.436	1637.117	1608.751
524.087	28.861	1636.919	1612.111
525.102	29.373	1636.521	1616.036
526.116	29.647	1636.175	1617.908
527.131	29.996	1635.526	1620.147
528.146	30.339	1635.686	1623.123
529.160	30.660	1635.388	1625.452
530.175	30.905	1634.272	1626.300
531.189	30.810	1633.375	1624.385
532.204	30.836	1632.145	1623.190
533.219	30.646	1630.167	1619.365
534.233	30.389	1628.976	1615.747
535.248	30.307	1626.631	1612.510
536.262	30.411	1626.169	1612.768
537.277	30.839	1626.221	1616.355
538.292	30.979	1624.972	1616.146
539.306	30.987	1623.203	1614.259
540.321	30.628	1620.666	1608.423
541.335	30.112	1618.502	1601.605
542.350	30.673	1618.071	1605.851
543.365	31.258	1617.220	1609.889
544.379	31.128	1617.078	1608.424
545.394	31.244	1615.192	1607.362
546.408	30.722	1613.139	1600.619
547.423	30.266	1611.513	1594.869
548.438	30.513	1610.730	1596.041
549.452	30.626	1609.969	1596.070
550.467	30.553	1607.784	1593.079
551.481	30.523	1607.172	1592.025
552.496	30.728	1606.280	1592.718
553.511	30.926	1605.965	1593.916
554.525	31.004	1604.566	1593.005
555.540	30.855	1603.799	1590.774
556.554	30.982	1602.943	1590.825
557.569	30.654	1600.774	1585.675
558.583	30.352	1597.874	1580.030
559.598	30.277	1596.674	1578.012
560.613	30.258	1596.008	1577.003
561.627	30.109	1594.622	1574.171
562.642	29.749	1591.881	1568.208
563.656	29.262	1589.470	1561.502
564.671	28.944	1587.983	1557.145
565.686	28.818	1586.866	1554.788
566.700	28.542	1585.174	1550.606
567.715	28.582	1583.614	1549.234
568.729	28.790	1582.894	1550.103
569.744	29.342	1581.669	1553.394
570.759	29.615	1581.054	1554.915
571.773	29.243	1579.745	1550.296
572.788	29.150	1578.489	1548.089
573.802	28.833	1576.431	1543.212
574.817	28.740	1574.747	1540.601
575.832	28.945	1573.941	1541.350
576.846	29.796	1574.068	1548.455
577.861	30.071	1574.535	1551.041
578.875	30.217	1574.571	1552.120
579.890	30.704	1573.726	1555.197
580.905	30.802	1572.776	1554.897
581.919	31.041	1572.982	1556.921
582.934	31.337	1571.310	1557.554
583.948	31.030	1570.183	1553.687
584.963	30.808	1568.457	1549.928
585.978	30.604	1567.004	1546.609
586.992	30.409	1565.024	1542.837
588.007	30.491	1565.333	1543.641
589.021	30.186	1562.210	1537.833
590.036	29.177	1559.826	1526.899
591.051	29.829	1560.177	1532.499
592.065	30.682	1559.411	1538.657
593.080	30.677	1558.669	1537.698
594.094	30.960	1556.994	1538.210
595.109	30.719	1555.134	1534.193
596.123	30.793	1553.762	1533.264
597.138	31.062	1552.797	1534.352
598.153	30.963	1551.034	1531.608
599.167	30.694	1549.349	1527.545
600.182	30.384	1549.344	1524.800
601.196	30.560	1549.022	1525.753
602.211	30.798	1547.305	1525.838
603.226	30.750	1546.496	1524.458
604.240	31.080	1545.904	1526.409
605.255	31.203	1543.899	1525.258
606.269	31.001	1542.862	1522.393
607.284	30.733	1542.213	1519.373
608.299	30.814	1540.153	1517.823
609.313	30.570	1538.273	1513.793
610.328	30.350	1536.741	1510.301
611.342	30.371	1535.497	1509.070
612.357	30.613	1533.970	1509.371
613.372	30.271	1533.563	1505.994
614.386	29.965	1532.166	1501.952
615.401	30.002	1531.323	1501.246
616.415	29.924	1529.199	1498.343
617.430	29.478	1527.964	1493.334
618.445	29.338	1526.647	1490.727
619.459	29.022	1525.524	1486.884
620.474	28.867	1524.003	1483.967
621.488	29.292	1523.468	1486.715
622.503	29.811	1522.717	1490.011
623.518	29.542	1520.444	1485.427
624.532	29.267	1519.150	1481.765
625.547	29.255	1517.609	1479.991
626.561	29.183	1516.990	1478.628
627.576	29.126	1516.761	1477.768
628.591	29.466	1516.057	1479.644
629.605	29.650	1515.264	1480.178
630.620	30.064	1513.684	1481.786
631.634	30.383	1513.951	1484.432
632.649	30.503	1513.277	1484.556
633.663	30.195	1510.800	1479.481
634.678	29.627	1508.767	1472.763
635.693	29.420	1506.992	1469.197
636.707	29.342	1504.768	1466.235
637.722	29.234	1504.653	1465.078
638.736	29.768	1504.707	1469.222
639.751	30.419	1504.116	1473.662
640.766	30.438	1502.753	1472.306
641.780	30.436	1501.490	1470.872
642.795	30.603	1501.410	1471.951
643.809	30.853	1500.463	1472.836
644.824	30.918	1500.320	1473.028
645.839	30.961	1499.959	1472.845
646.853	31.203	1497.655	1472.321
647.868	30.930	1495.826	1468.189
648.882	30.746	1494.417	1465.169
649.897	30.552	1492.909	1461.988
650.912	30.465	1491.744	1459.979
651.926	30.501	1491.235	1459.596
652.941	30.462	1490.479	1458.369
653.955	30.255	1487.749	1453.892
654.970	29.519	1484.538	1444.799
655.985	29.195	1482.435	1440.029
656.999	29.089	1481.187	1437.818
658.014	29.400	1480.976	1439.875
659.028	29.821	1481.321	1443.341
660.043	30.406	1481.286	1447.721
661.058	30.615	1479.864	1447.799
662.072	30.628	1479.240	1447.115
663.087	30.538	1478.051	1445.073
664.101	30.287	1476.898	1441.811
665.116	30.524	1475.812	1442.428
666.131	30.606	1474.495	1441.607
667.145	30.679	1473.690	1441.213
668.160	30.680	1472.428	1439.821
669.174	30.555	1470.774	1437.055
670.189	30.908	1469.551	1438.434
671.204	30.966	1469.690	1438.845
672.218	30.761	1468.745	1436.156
673.233	30.782	1468.043	1435.465
674.247	30.956	1466.606	1435.229
675.262	30.894	1464.791	1432.804
676.276	30.821	1463.848	1431.146
677.291	30.672	1463.161	1429.150
678.306	31.005	1461.593	1430.021
679.320	30.775	1459.814	1426.334
680.335	30.397	1459.359	1422.810
681.349	30.522	1458.885	1423.142
682.364	30.522	1457.762	1421.877
683.379	30.332	1455.462	1418.001
684.393	30.128	1453.562	1414.414
685.408	30.050	1452.427	1412.547
686.422	29.984	1451.411	1410.879
687.437	29.489	1450.615	1406.152
688.452	29.273	1450.046	1403.779
689.466	29.289	1447.438	1401.205
690.481	29.361	1446.137	1400.329
691.495	29.446	1446.244	1400.911
692.510	30.061	1447.057	1406.223
693.525	30.618	1445.489	1408.779
694.539	30.288	1443.148	1403.820
695.554	29.641	1441.830	1397.449
696.568	29.361	1440.784	1394.139
697.583	29.309	1440.108	1392.927
698.598	29.418	1439.576	1393.072
699.612	29.899	1438.381	1395.397
700.627	29.976	1437.257	1394.718
701.641	30.364	1437.453	1397.683
702.656	30.596	1436.402	1398.244
703.671	30.674	1435.597	1397.885
704.685	30.790	1434.846	1397.864
705.700	30.685	1433.453	1395.546
706.714	30.403	1431.288	1391.149
707.729	30.234	1430.001	1388.458
708.744	30.324	1428.728	1387.731
709.758	30.037	1427.302	1384.030
710.773	29.551	1425.244	1378.220
711.787	29.396	1424.186	1375.871
712.802	30.065	1423.409	1379.963
713.816	30.229	1423.139	1380.763
714.831	30.437	1422.677	1381.711
715.846	30.285	1421.402	1379.169
716.860	30.329	1419.800	1377.780
717.875	30.382	1418.440	1376.689
718.889	30.129	1417.344	1373.578
719.904	30.075	1416.813	1372.495
720.919	29.926	1415.560	1370.009
721.933	30.063	1414.368	1369.705
722.948	29.976	1413.472	1368.034
723.962	30.047	1412.493	1367.448
724.977	30.204	1411.399	1367.383
725.992	30.263	1410.862	1367.143
727.006	30.621	1410.258	1369.040
728.021	30.527	1408.384	1366.362
729.035	30.524	1407.242	1365.068
730.050	30.596	1406.475	1364.695
731.065	30.531	1405.095	1362.711
732.079	30.482	1403.817	1360.948
733.094	30.514	1402.974	1360.203
734.108	30.690	1401.551	1359.951
735.123	30.559	1400.349	1357.667
736.138	30.344	1398.727	1354.350
737.152	30.346	1398.363	1353.852
738.167	30.313	1397.420	1352.536
739.181	30.452	1396.527	1352.530
740.196	30.361	1395.919	1351.108
741.211	30.312	1394.541	1349.254
742.225	30.074	1393.183	1346.046
743.240	30.264	1390.926	1345.090
744.254	29.885	1389.214	1340.509
745.269	29.496	1387.992	1336.338
746.284	29.519	1386.742	1335.145
747.298	29.325	1386.359	1333.206
748.313	29.515	1385.399	1333.504
749.327	29.743	1385.340	1334.944
750.342	30.238	1385.991	1339.000
751.356	30.748	1384.590	1341.187
752.371	30.603	1382.671	1338.116
753.386	29.932	1380.345	1330.861
754.400	29.941	1380.247	1330.665
755.415	30.327	1379.799	1332.866
756.429	30.472	1378.711	1332.700
757.444	30.595	1377.020	1331.794
758.459	30.436	1376.427	1329.917
759.473	30.228	1374.613	1326.505
760.488	29.971	1373.292	1323.224
761.502	29.706	1372.564	1320.463
762.517	30.087	1370.890	1321.427
763.532	30.273	1370.197	1321.931
764.546	29.919	1368.906	1318.000
765.561	29.486	1367.127	1313.036
766.575	28.768	1365.244	1305.938
767.590	28.752	1364.777	1305.219
768.605	29.466	1364.965	1310.341
769.619	29.857	1363.693	1311.752
770.634	30.029	1362.457	1311.632
771.648	29.938	1360.939	1309.364
772.663	29.881	1360.694	1308.568
773.678	29.763	1360.985	1307.847
774.692	30.214	1360.160	1310.104
775.707	30.368	1359.521	1310.424
776.721	30.369	1358.367	1309.158
777.736	30.182	1357.087	1306.449
778.751	30.156	1356.320	1305.369
779.765	30.215	1355.156	1304.506
780.780	30.225	1354.396	1303.694
781.794	30.301	1352.943	1302.673
782.809	30.097	1351.285	1299.486
783.824	29.327	1349.488	1292.179
784.838	29.413	1348.712	1291.886
785.853	30.138	1348.223	1296.361
786.867	29.899	1348.025	1294.339
787.882	29.553	1346.898	1290.668
788.897	29.380	1345.425	1287.886
789.911	29.236	1344.763	1286.092
790.926	29.185	1343.418	1284.292
791.940	29.385	1341.638	1283.836
792.955	29.540	1340.355	1283.537
793.969	29.619	1339.511	1283.128
794.984	29.659	1339.353	1283.101
795.999	29.867	1338.612	1283.690
797.013	30.209	1337.259	1284.620
798.028	30.224	1335.616	1282.993
799.042	30.042	1335.598	1281.554
800.057	30.098	1334.024	1280.281
801.072	30.195	1332.486	1279.327
802.086	30.049	1331.782	1277.481
803.101	30.087	1330.443	1276.309
804.115	30.211	1329.107	1275.735
805.130	29.953	1328.412	1273.130
806.145	29.703	1328.044	1270.896
807.159	29.565	1326.361	1268.183
808.174	29.682	1325.393	1267.915
809.188	29.880	1323.550	1267.360
810.203	29.732	1321.899	1264.609
811.218	29.547	1320.559	1261.904
812.232	28.894	1319.229	1256.000
813.247	28.753	1317.967	1253.682
814.261	29.291	1317.572	1256.845
815.276	29.750	1316.382	1258.705
816.291	29.645	1315.410	1256.903
817.305	29.545	1315.277	1255.940
818.320	29.481	1314.356	1254.479
819.334	29.758	1313.857	1255.743
820.349	29.936	1312.212	1255.233
821.364	29.923	1310.708	1253.554
822.378	29.979	1309.702	1252.825
823.393	29.971	1307.146	1250.175
824.407	29.866	1306.363	1248.565
825.422	29.630	1306.243	1246.697
826.437	29.541	1305.338	1245.082
827.451	29.353	1303.050	1241.480
828.466	29.585	1302.437	1242.318
829.480	30.027	1300.252	1243.061
830.495	29.714	1297.668	1238.340
831.509	29.384	1297.102	1235.429
832.524	29.240	1296.759	1233.981
833.539	29.575	1296.269	1235.624
834.553	29.722	1295.239	1235.484
835.568	29.749	1294.214	1234.538
836.582	29.852	1292.827	1233.759
837.597	29.942	1291.413	1232.864
838.612	29.813	1289.703	1230.220
839.626	29.653	1287.881	1227.269
840.641	29.354	1287.353	1224.621
841.655	29.239	1286.552	1222.946
842.670	28.866	1285.045	1218.880
843.685	28.401	1283.592	1214.262
844.699	28.897	1282.809	1216.676
845.714	29.385	1281.835	1218.849
846.728	29.360	1280.812	1217.561
847.743	29.348	1280.284	1216.839
848.758	29.354	1279.430	1215.917
849.772	29.631	1278.035	1216.278
850.787	29.712	1277.255	1215.926
851.801	29.629	1276.261	1214.286
852.816	29.603	1274.655	1212.445
853.831	29.562	1273.119	1210.569
854.845	29.299	1272.052	1207.674
855.860	29.308	1269.584	1205.245
856.874	29.127	1268.971	1203.333
857.889	29.356	1268.532	1204.275
858.904	29.633	1267.377	1204.850
859.918	30.045	1266.398	1206.472
860.933	30.297	1265.131	1206.771
861.947	30.018	1263.800	1203.534
862.962	29.461	1262.295	1198.325
863.977	29.354	1260.610	1195.884
864.991	29.156	1260.670	1194.503
866.006	28.947	1260.816	1193.138
867.020	29.230	1259.275	1193.376
868.035	29.475	1257.724	1193.360
869.049	29.571	1257.244	1193.383
870.064	29.803	1256.085	1193.647
871.079	29.637	1255.261	1191.644
872.093	29.409	1254.532	1189.331
873.108	29.345	1252.859	1187.189
874.122	29.316	1250.939	1185.042
875.137	28.906	1250.295	1181.643
876.152	28.939	1249.096	1180.579
877.166	28.872	1247.931	1178.906
878.181	29.040	1246.865	1178.838
879.195	29.108	1246.524	1178.813
880.210	29.307	1246.076	1179.530
881.225	29.393	1245.243	1179.154
882.239	29.617	1244.407	1179.656
883.254	29.495	1243.549	1177.917
884.268	29.545	1242.164	1176.790
885.283	29.509	1241.228	1175.527
886.298	29.563	1239.761	1174.345
887.312	29.574	1238.805	1173.366
888.327	29.466	1237.873	1171.657
889.341	29.663	1236.196	1171.183
890.356	29.580	1235.566	1169.918
891.371	29.318	1235.163	1167.728
892.385	29.245	1234.294	1166.301
893.400	29.272	1233.355	1165.445
894.414	29.227	1231.659	1163.420
895.429	29.322	1230.985	1163.248
896.444	29.943	1230.235	1166.330
897.458	30.566	1229.166	1169.119
898.473	30.131	1228.467	1165.568
899.487	29.597	1226.987	1160.652
900.502	29.420	1224.948	1157.464
901.517	29.316	1224.085	1155.855
902.531	29.331	1223.312	1155.082
903.546	29.487	1222.681	1155.328
904.560	29.402	1222.218	1154.221
905.575	29.406	1221.169	1153.115
906.589	29.495	1220.022	1152.457
907.604	29.280	1219.615	1150.585
