DTS Sentinel unit serial number:	SN409020Multiplexer serial number:	ORYXHardware model number:	OX4-SRSoftware version number:	ORYX F/W v3.00 Oryx Data Collector v3.7.2.0data status	okinstallation	HaddamTimeLapsedifferential loss correction	single-endedforward channel	channel 3reverse channel	N/Adate	2011/06/22time	02:41:17forward acquisition time	30.00reverse acquisition time	0.00gamma	498.7831k internal	0.1750k external	0.1750temperature offset calibration	1.0074default loss term (dB/km)	0.3790temperature slope calibration	1.3530multiplexer offset coefficient	1.0000multiplexer slope coefficient	1.0000fibre end	0.00T internal ref (°C)	22.34T ext. ref 1 (°C)	17.59T ext. ref 2 (°C)	0.02length (m)	temperature (°C)	Stokes	anti-Stokes-747.200	-114.410	-0.440	-0.112
-746.185	-127.129	0.272	-0.053
-745.171	-127.808	-0.226	-0.043
-744.156	797.980	-0.111	0.408
-743.142	-101.099	-0.395	0.128
-742.127	212.616	-0.282	0.593
-741.112	-40.326	-0.327	0.225
-740.098	122.385	-0.127	0.211
-739.083	-200.000	0.028	0.244
-738.069	179.908	-0.248	0.484
-737.054	129.188	0.099	0.168
-736.039	126.783	0.245	0.413
-735.025	-200.000	-0.039	-0.269
-734.010	800.000	0.031	-0.177
-732.996	-161.129	-0.244	-0.017
-731.981	-87.186	0.168	-0.068
-730.966	138.489	-0.142	-0.248
-729.952	627.375	-0.040	-0.136
-728.937	-109.877	0.511	0.141
-727.923	462.055	0.129	0.384
-726.908	-64.246	0.140	0.076
-725.894	-200.000	-0.071	0.442
-724.879	-136.016	-0.516	-0.080
-723.864	-33.017	-0.168	0.124
-722.850	800.000	-0.019	0.073
-721.835	-24.459	-0.050	-0.039
-720.821	-54.928	-0.347	0.207
-719.806	-200.000	-0.500	-0.002
-718.791	74.245	0.144	0.201
-717.777	349.032	0.065	0.171
-716.762	51.985	-0.273	-0.346
-715.748	-200.000	-0.012	-0.272
-714.733	112.676	0.188	0.302
-713.718	635.159	-0.127	-0.430
-712.704	-107.914	-0.356	-0.102
-711.689	27.802	0.288	-0.322
-710.675	-200.000	0.042	-0.512
-709.660	551.439	0.048	0.153
-708.645	-63.133	-0.153	-0.083
-707.631	800.000	-0.073	-0.350
-706.616	-128.525	0.500	-0.093
-705.602	-85.662	0.431	-0.177
-704.587	5.333	-0.238	-0.233
-703.572	800.000	0.064	0.322
-702.558	-139.225	-0.419	0.059
-701.543	-81.847	0.146	-0.063
-700.529	38.166	-0.359	-0.425
-699.514	-116.878	0.189	-0.046
-698.499	-46.619	-0.370	0.240
-697.485	-41.954	0.365	-0.247
-696.470	-129.681	-0.152	0.028
-695.456	-165.476	0.311	0.018
-694.441	-164.173	-0.283	0.017
-693.426	-177.477	0.231	0.007
-692.412	-89.788	0.182	0.070
-691.397	-86.592	-0.342	-0.138
-690.383	-170.201	-0.081	0.004
-689.368	-22.658	0.346	0.277
-688.354	800.000	0.035	0.163
-687.339	-86.608	-0.108	0.044
-686.324	800.000	-0.055	0.233
-685.310	-113.298	-0.429	-0.111
-684.295	-3.510	0.231	0.213
-683.281	26.050	-0.241	0.266
-682.266	84.349	0.113	-0.164
-681.251	-200.000	0.057	-0.653
-680.237	-149.852	0.466	-0.048
-679.222	333.901	0.101	0.260
-678.208	-99.403	-0.194	-0.064
-677.193	34.130	0.384	0.444
-676.178	-200.000	-0.207	0.001
-675.164	-200.000	-0.105	-0.632
-674.149	-81.740	0.450	-0.195
-673.135	-200.000	-0.025	-0.445
-672.120	-135.251	0.146	0.023
-671.105	-89.658	0.268	0.104
-670.091	417.375	0.032	0.092
-669.076	30.847	0.014	-0.016
-668.062	-25.099	0.361	0.283
-667.047	9.628	-0.605	-0.607
-666.032	13.701	-0.241	-0.248
-665.018	800.000	-0.026	0.112
-664.003	224.436	-0.125	-0.269
-662.989	-183.907	0.325	-0.007
-661.974	-79.579	0.069	-0.031
-660.959	4.642	-0.292	0.284
-659.945	-24.002	-0.251	0.199
-658.930	-122.901	0.165	-0.035
-657.916	-13.115	0.383	-0.329
-656.901	49.995	-0.246	-0.307
-655.886	210.306	-0.196	0.409
-654.872	-84.705	-0.773	-0.321
-653.857	-82.764	-0.790	0.337
-652.843	-100.920	-0.197	-0.064
-651.828	-111.887	-0.416	-0.110
-650.814	366.568	0.190	-0.509
-649.799	-104.518	0.018	-0.005
-648.784	725.552	-0.050	-0.179
-647.770	-25.394	0.373	0.291
-646.755	-132.745	0.330	0.055
-645.741	-84.349	-0.543	-0.226
-644.726	299.657	0.034	0.084
-643.711	-69.341	-0.167	-0.085
-642.697	-97.150	-0.225	-0.077
-641.682	-3.968	0.379	0.348
-640.668	-42.958	-0.273	-0.183
-639.653	-200.000	0.014	0.200
-638.638	-64.534	0.163	-0.087
-637.624	800.000	-0.096	0.377
-636.609	-200.000	-0.038	-0.284
-635.595	-56.749	-0.250	-0.146
-634.580	-164.844	-0.284	0.017
-633.565	-200.000	0.036	0.347
-632.551	1.940	0.318	-0.304
-631.536	-32.826	-0.145	-0.107
-630.522	-80.264	-0.340	0.150
-629.507	124.098	0.039	-0.065
-628.492	25.392	-0.192	0.211
-627.478	-200.000	0.010	0.065
-626.463	80.169	0.010	-0.014
-625.449	-200.000	-0.030	-0.234
-624.434	-47.230	-0.228	-0.146
-623.419	207.829	-0.092	0.190
-622.405	24.976	0.234	-0.257
-621.390	-128.245	-0.089	0.017
-620.376	-50.243	0.532	0.332
-619.361	338.212	-0.165	-0.427
-618.346	294.551	-0.171	-0.414
-617.332	-104.285	0.214	-0.065
-616.317	60.912	0.394	0.517
-615.303	-200.000	0.021	-0.407
-614.288	-200.000	0.005	0.116
-613.273	-87.995	0.215	0.085
-612.259	-9.615	0.192	0.169
-611.244	-93.038	-0.287	-0.105
-610.230	201.978	-0.118	-0.240
-609.215	800.000	-0.094	0.516
-608.201	800.000	0.031	0.176
-607.186	770.253	-0.126	-0.456
-606.171	-200.000	0.018	0.270
-605.157	800.000	-0.032	0.166
-604.142	-54.635	-0.475	-0.283
-603.128	260.831	-0.255	-0.586
-602.113	127.634	0.261	-0.438
-601.098	-131.386	-0.283	0.049
-600.084	-72.419	-0.199	-0.097
-599.069	-27.498	-0.384	-0.295
-598.055	800.000	-0.071	-0.331
-597.040	381.418	0.189	0.514
-596.025	527.471	-0.029	0.090
-595.011	-113.606	-0.128	-0.033
-593.996	31.532	0.425	0.483
-592.982	-53.978	-0.241	0.144
-591.967	-200.000	0.027	-0.225
-590.952	-83.078	0.408	-0.173
-589.938	-114.022	0.142	0.036
-588.923	-60.507	0.219	-0.122
-587.909	-57.456	0.345	-0.200
-586.894	-200.000	-0.049	0.433
-585.879	14.040	-0.253	-0.260
-584.865	37.888	0.212	-0.248
-583.850	800.000	-0.041	-0.163
-582.836	11.315	-0.188	-0.190
-581.821	-117.158	0.549	-0.131
-580.806	23.375	0.175	-0.190
-579.792	-90.272	0.181	0.069
-578.777	351.319	-0.109	0.287
-577.763	-162.425	0.503	-0.032
-576.748	-200.000	-0.019	-0.206
-575.733	-200.000	0.011	-0.152
-574.719	-80.307	0.286	0.126
-573.704	-51.175	0.292	0.180
-572.690	-94.357	0.323	-0.116
-571.675	-200.000	-0.046	-0.473
-570.661	-114.780	-0.083	-0.021
-569.646	-89.428	-0.466	-0.180
-568.631	-16.703	0.100	-0.083
-567.617	42.453	-0.060	0.072
-566.602	-12.492	0.132	0.114
-565.588	800.000	-0.104	-0.387
-564.573	-200.000	0.069	0.441
-563.558	-127.026	-0.159	0.030
-562.544	-101.597	0.287	-0.091
-561.529	-31.935	0.338	-0.249
-560.515	-86.029	-0.061	-0.025
-559.500	-192.686	0.545	-0.006
-558.485	-16.461	0.109	-0.091
-557.471	399.308	0.212	-0.590
-556.456	800.000	0.133	-0.661
-555.442	141.807	-0.226	-0.396
-554.427	-200.000	0.006	-0.411
-553.412	295.939	0.157	-0.381
-552.398	26.133	-0.218	0.240
-551.383	-171.402	0.149	-0.006
-550.369	-80.417	-0.359	-0.157
-549.354	-200.000	-0.026	-0.311
-548.339	60.084	-0.158	-0.206
-547.325	5.855	0.362	0.353
-546.310	-140.819	-0.421	0.057
-545.296	526.411	-0.079	0.247
-544.281	-65.785	0.149	0.078
-543.266	-97.483	-0.285	0.097
-542.252	-72.229	-0.356	-0.173
-541.237	-200.000	-0.034	0.224
-540.223	-91.623	-0.420	-0.157
-539.208	317.575	-0.173	0.434
-538.193	-147.397	0.189	0.021
-537.179	18.712	-0.408	-0.431
-536.164	65.992	-0.242	-0.324
-535.150	800.000	-0.031	-0.130
-534.135	-200.000	0.041	-0.317
-533.121	-200.000	-0.002	0.466
-532.106	-163.714	0.325	-0.020
-531.091	-122.672	0.727	0.154
-530.077	202.461	0.265	0.541
-529.062	206.846	-0.181	-0.372
-528.048	-12.668	-0.530	-0.455
-527.033	150.954	0.190	-0.341
-526.018	-101.335	0.402	0.128
-525.004	-124.069	0.092	-0.019
-523.989	25.106	-0.076	-0.083
-522.975	-18.952	0.281	0.230
-521.960	-70.571	0.211	0.105
-520.945	75.177	0.146	0.203
-519.931	241.390	-0.017	-0.036
-518.916	-200.000	0.026	-0.522
-517.902	12.437	0.171	-0.173
-516.887	23.994	-0.169	-0.184
-515.872	59.837	-0.120	0.157
-514.858	-111.383	-0.617	0.165
-513.843	228.794	0.081	-0.174
-512.829	-12.811	-0.406	-0.348
-511.814	-142.357	0.144	-0.019
-510.799	800.000	-0.032	0.126
-509.785	-200.000	-0.014	-0.311
-508.770	356.929	0.099	-0.262
-507.756	-180.564	0.660	0.018
-506.741	80.331	0.146	-0.207
-505.726	-36.362	0.122	0.086
-504.712	-121.421	0.534	0.116
-503.697	249.376	-0.138	0.308
-502.683	-76.166	0.467	-0.216
-501.668	612.262	-0.085	0.282
-500.653	-183.186	-0.168	-0.004
-499.639	122.149	-0.274	0.451
-498.624	800.000	-0.063	0.362
-497.610	107.970	-0.246	-0.386
-496.595	-200.000	0.005	0.087
-495.581	-36.055	0.189	0.134
-494.566	-127.700	0.256	-0.048
-493.551	-92.558	-0.298	-0.110
-492.537	67.943	-0.137	0.185
-491.522	-111.242	-0.198	-0.053
-490.508	800.000	-0.047	0.188
-489.493	800.000	0.050	-0.188
-488.478	-64.386	-0.032	0.017
-487.464	-40.807	-0.273	0.186
-486.449	9.455	-0.202	0.201
-485.435	-146.861	-0.242	0.027
-484.420	135.883	0.147	0.253
-483.405	-129.014	0.296	0.054
-482.391	800.000	-0.023	0.103
-481.376	-73.567	-0.449	-0.215
-480.362	-101.536	0.317	-0.101
-479.347	-122.381	0.491	-0.104
-478.332	-200.000	0.026	0.248
-477.318	175.056	-0.022	0.041
-476.303	800.000	-0.024	-0.112
-475.289	103.324	0.217	0.335
-474.274	184.177	-0.116	0.226
-473.259	22.142	0.200	0.215
-472.245	-38.652	-0.185	-0.128
-471.230	-69.564	-0.122	0.061
-470.216	213.663	-0.231	0.481
-469.201	-97.494	-0.524	0.178
-468.186	-85.969	-0.310	0.125
-467.172	800.000	-0.105	0.385
-466.157	-43.528	-0.178	-0.118
-465.143	-55.819	-0.349	-0.204
-464.128	-76.944	-0.175	0.080
-463.113	-50.427	-0.218	0.135
-462.099	-200.000	-0.018	0.400
-461.084	317.476	-0.249	0.621
-460.070	800.000	0.078	0.377
-459.055	-17.610	-0.106	0.087
-458.040	-166.512	0.320	0.017
-457.026	-152.673	0.223	-0.021
-456.011	-53.202	-0.320	0.193
-454.997	-200.000	0.003	-0.336
-453.982	22.436	-0.058	0.063
-452.968	-35.251	-0.572	0.408
-451.953	-72.962	-0.475	0.228
-450.938	133.643	0.149	0.254
-449.924	-123.549	0.192	-0.040
-448.909	-105.744	-0.040	-0.012
-447.895	-81.771	-0.215	0.092
-446.880	800.000	-0.049	0.207
-445.865	-21.837	-0.373	-0.298
-444.851	800.000	-0.063	0.269
-443.836	-71.435	-0.184	-0.090
-442.822	-46.748	-0.175	-0.112
-441.807	-107.331	0.257	0.074
-440.792	-27.455	-0.309	0.236
-439.778	-152.540	-0.436	0.040
-438.763	-121.118	0.302	0.066
-437.749	-0.301	-0.143	-0.133
-436.734	1.838	0.165	0.156
-435.719	-189.749	0.515	0.008
-434.705	-32.605	0.339	-0.248
-433.690	-18.994	-0.225	0.184
-432.676	-200.000	0.035	0.513
-431.661	246.397	-0.120	-0.266
-430.646	786.614	0.071	-0.258
-429.632	98.067	-0.066	0.101
-428.617	-58.716	-0.212	0.120
-427.603	-143.079	0.372	-0.047
-426.588	-116.456	-0.209	0.050
-425.573	800.000	-0.036	0.143
-424.559	-74.309	0.112	-0.053
-423.544	-126.709	-0.289	-0.056
-422.530	-200.000	-0.011	0.258
-421.515	-200.000	-0.016	0.140
-420.500	-200.000	-0.029	0.183
-419.486	-9.525	-0.123	0.107
-418.471	800.000	-0.007	-0.030
-417.457	34.145	0.293	0.335
-416.442	800.000	-0.042	0.171
-415.428	3.004	-0.206	-0.196
-414.413	-5.059	0.355	-0.321
-413.398	-200.000	-0.046	-0.279
-412.384	403.606	-0.020	0.057
-411.369	14.214	-0.266	0.272
-410.355	-68.757	-0.294	0.149
-409.340	58.563	0.147	-0.190
-408.325	-20.672	0.136	-0.110
-407.311	-49.675	-0.406	0.253
-406.296	-135.940	0.405	-0.062
-405.282	-77.124	-0.218	-0.099
-404.267	-156.450	-0.401	-0.032
-403.252	105.257	0.034	-0.053
-402.238	800.000	0.077	0.314
-401.223	-7.520	-0.090	-0.080
-400.209	-200.000	0.005	0.275
-399.194	-102.699	0.106	-0.033
-398.179	-155.987	0.128	0.010
-397.165	78.029	0.147	0.206
-396.150	-4.572	0.457	0.413
-395.136	12.508	-0.252	0.254
-394.121	-200.000	-0.018	0.370
-393.106	-88.290	-0.320	0.125
-392.092	97.116	0.034	-0.051
-391.077	-80.053	-0.262	0.115
-390.063	145.026	0.122	-0.215
-389.048	-5.280	0.329	0.296
-388.033	-53.336	-0.113	-0.068
-387.019	-75.995	-0.248	-0.114
-386.004	346.192	0.025	-0.065
-384.990	-200.000	-0.041	-0.261
-383.975	508.694	0.025	-0.077
-382.960	88.419	0.111	0.162
-381.946	-109.951	0.130	0.035
-380.931	-84.432	0.268	-0.111
-379.917	657.227	0.116	-0.394
-378.902	800.000	-0.088	-0.391
-377.888	800.000	0.055	0.234
-376.873	-43.903	-0.281	0.185
-375.858	-157.368	-0.295	0.023
-374.844	71.354	-0.154	0.210
-373.829	214.315	0.105	0.218
-372.815	-165.065	-0.074	0.004
-371.800	-35.818	0.068	-0.048
-370.785	-163.018	-0.316	0.020
-369.771	-2.142	-0.196	-0.180
-368.756	-43.958	0.050	-0.033
-367.742	93.558	-0.274	-0.407
-366.727	205.288	-0.068	0.139
-365.712	12.724	-0.159	0.161
-364.698	800.000	0.098	0.356
-363.683	477.451	-0.108	0.320
-362.669	-156.987	0.390	0.031
-361.654	108.583	0.231	0.362
-360.639	-200.000	-0.065	0.000
-359.625	-126.904	-0.595	0.114
-358.610	800.000	0.066	-0.276
-357.596	89.121	0.383	-0.559
-356.581	32.160	-0.159	-0.179
-355.566	226.649	-0.081	0.173
-354.552	-104.590	-0.152	-0.045
-353.537	57.854	-0.153	0.196
-352.523	47.951	0.181	-0.222
-351.508	-36.441	0.266	0.187
-350.493	51.320	0.218	-0.271
-349.479	299.772	-0.113	-0.274
-348.464	-127.877	-0.263	-0.049
-347.450	800.000	0.066	-0.272
-346.435	-32.808	-0.485	-0.352
-345.420	-51.188	-0.224	0.137
-344.406	-122.360	0.324	0.068
-343.391	-200.000	-0.089	-0.659
-342.377	262.520	0.101	-0.230
-341.362	-76.274	-0.124	0.057
-340.348	3.017	-0.182	-0.172
-339.333	-20.249	0.063	0.051
-338.318	20.237	-0.246	0.259
-337.304	-70.765	-0.322	0.158
-336.289	-200.000	-0.042	0.339
-335.275	-31.331	0.037	0.027
-334.260	90.765	-0.342	-0.502
-333.245	140.182	0.117	-0.202
-332.231	800.000	-0.064	-0.246
-331.216	-117.361	0.142	-0.033
-330.202	-41.626	-0.020	-0.013
-329.187	-118.320	0.188	0.043
-328.172	449.061	-0.198	-0.573
-327.158	21.825	0.348	-0.371
-326.143	-200.000	0.027	-0.257
-325.129	-200.000	-0.013	0.329
-324.114	42.186	0.181	0.215
-323.099	-121.773	-0.444	-0.095
-322.085	113.430	0.093	-0.148
-321.070	-96.147	0.444	-0.153
-320.056	-200.000	0.014	-0.095
-319.041	30.895	0.272	0.305
-318.026	646.542	-0.037	-0.123
-317.012	502.282	-0.143	-0.433
-315.997	-200.000	-0.004	0.371
-314.983	-31.169	-0.219	0.161
-313.968	226.894	0.173	0.368
-312.953	58.554	0.141	-0.182
-311.939	800.000	-0.064	0.250
-310.924	-91.586	0.175	0.065
-309.910	-155.602	0.243	-0.020
-308.895	800.000	0.062	-0.255
-307.880	-20.315	-0.438	-0.352
-306.866	554.278	0.050	-0.157
-305.851	181.552	0.077	0.148
-304.837	-127.053	-0.343	-0.065
-303.822	-49.795	-0.314	0.194
-302.807	-45.607	0.223	0.144
-301.793	800.000	0.039	0.217
-300.778	-200.000	0.013	0.086
-299.764	289.356	0.055	0.132
-298.749	-146.793	-0.611	-0.068
-297.735	-65.394	-0.257	0.134
-296.720	-199.018	0.206	0.001
-295.705	-31.135	0.212	-0.156
-294.691	208.542	0.212	-0.435
-293.676	766.696	0.144	0.514
-292.662	-69.493	-0.370	-0.184
-291.647	-192.480	0.274	0.003
-290.632	800.000	-0.083	-0.310
-289.618	469.267	0.009	-0.027
-288.603	-61.517	0.304	0.166
-287.589	-200.000	0.019	0.211
-286.574	-55.591	-0.309	-0.180
-285.559	316.523	0.245	-0.606
-284.545	143.526	-0.157	0.274
-283.530	-66.551	0.598	-0.309
-282.516	-200.000	-0.004	-0.146
-281.501	-134.824	-0.295	0.046
-280.486	112.613	-0.137	0.217
-279.472	160.001	0.257	0.469
-278.457	-175.761	-0.400	0.014
-277.443	16.602	0.114	0.117
-276.428	21.543	0.239	0.254
-275.413	-178.324	-0.375	-0.011
-274.399	141.191	-0.008	0.015
-273.384	18.738	-0.087	0.091
-272.370	-128.788	0.296	-0.054
-271.355	-84.826	-0.033	0.013
-270.340	63.333	-0.123	-0.160
-269.326	-80.204	-0.189	-0.082
-268.311	-156.029	-0.158	-0.013
-267.297	629.827	-0.059	0.194
-266.282	64.813	0.222	-0.292
-265.267	-35.151	-0.304	-0.215
-264.253	-148.603	0.592	0.062
-263.238	-48.304	-0.110	0.069
-262.224	-145.292	-0.228	0.027
-261.209	256.257	0.130	0.292
-260.195	665.194	-0.067	-0.226
-259.180	174.231	-0.042	0.080
-258.165	494.296	0.062	-0.186
-257.151	16.288	-0.332	0.342
-256.136	75.132	0.257	-0.354
-255.122	-121.540	0.235	-0.050
-254.107	7.572	-0.077	-0.075
-253.092	-35.894	0.229	-0.161
-252.078	-123.311	-0.379	0.078
-251.063	269.019	0.072	-0.164
-250.049	-67.991	0.159	0.081
-249.034	-176.039	0.356	-0.012
-248.019	-158.669	-0.224	-0.017
-247.005	96.244	-0.047	0.070
-245.990	25.806	-0.204	0.222
-244.976	77.712	0.137	0.191
-243.961	-56.594	0.107	-0.061
-242.946	757.214	-0.063	0.224
-241.932	-97.889	-0.140	-0.047
-240.917	-51.142	0.555	0.338
-239.903	-94.739	0.310	-0.109
-238.888	-119.244	-0.245	-0.055
-237.873	312.640	-0.122	-0.300
-236.859	-200.000	0.001	-0.063
-235.844	-15.116	0.298	-0.249
-234.830	-118.121	0.405	-0.093
-233.815	-93.420	0.554	-0.199
-232.800	48.972	0.132	0.162
-231.786	800.000	-0.058	-0.274
-230.771	800.000	0.042	0.185
-229.757	-200.000	0.078	0.556
-228.742	58.850	-0.116	-0.148
-227.727	800.000	-0.051	-0.247
-226.713	-118.569	-0.116	-0.027
-225.698	592.665	0.124	-0.402
-224.684	800.000	-0.057	-0.236
-223.669	144.039	-0.278	0.483
-222.655	698.761	0.070	-0.240
-221.640	570.308	0.104	0.330
-220.625	-200.000	0.039	-0.298
-219.611	-51.420	-0.205	0.124
-218.596	-35.341	0.195	0.138
-217.582	-117.692	0.241	0.056
-216.567	-200.000	-0.007	0.128
-215.552	13.085	0.371	0.373
-214.538	800.000	-0.033	0.174
-213.523	-132.519	-0.434	0.072
-212.509	800.000	0.074	-0.282
-211.494	110.207	0.209	0.328
-210.479	-26.145	-0.207	0.158
-209.465	-60.135	0.155	-0.086
-208.450	-62.430	-0.300	-0.162
-207.436	-120.086	0.224	-0.049
-206.421	-27.843	0.416	-0.313
-205.406	234.348	0.124	-0.268
-204.392	209.867	0.237	0.485
-203.377	-153.930	-0.409	-0.036
-202.363	-3.804	0.126	0.113
-201.348	-110.718	0.402	0.107
-200.333	-125.911	0.359	-0.070
-199.319	-97.554	0.376	0.126
-198.304	-4.890	-0.171	-0.153
-197.290	4.249	-0.137	-0.130
-196.275	-83.376	-0.316	0.131
-195.260	-82.088	0.438	-0.185
-194.246	-200.000	0.031	-0.392
-193.231	68.994	-0.332	-0.444
-192.217	584.316	-0.107	-0.342
-191.202	-37.043	-0.125	-0.087
-190.187	667.652	0.090	-0.305
-189.173	8.459	0.148	0.145
-188.158	158.468	0.283	-0.512
-187.144	-5.478	-0.244	0.217
-186.129	248.122	-0.097	0.214
-185.114	71.970	0.103	0.139
-184.100	-115.854	0.566	-0.137
-183.085	800.000	-0.059	0.338
-182.071	-158.222	-0.403	-0.030
-181.056	95.814	0.326	-0.484
-180.042	412.475	0.120	0.332
-179.027	800.000	-0.065	0.288
-178.012	-30.223	-0.167	0.123
-176.998	90.251	0.169	0.247
-175.983	185.635	-0.201	0.389
-174.969	258.382	-0.095	-0.214
-173.954	-82.490	-0.419	0.176
-172.939	-200.000	0.029	-0.792
-171.925	86.999	-0.127	0.182
-170.910	-21.134	0.262	0.208
-169.896	237.839	0.271	0.587
-168.881	-76.174	0.452	0.206
-167.866	-28.972	0.170	-0.126
-166.852	130.403	0.118	0.196
-165.837	111.952	0.278	0.437
-164.823	-76.096	0.358	-0.164
-163.808	-90.463	0.308	0.115
-162.793	-34.006	-0.383	0.273
-161.779	-126.955	-0.143	0.027
-160.764	-10.101	0.316	-0.273
-159.750	800.000	-0.060	0.281
-158.735	-200.000	0.001	-0.009
-157.720	-17.784	-0.204	-0.166
-156.706	125.197	0.260	0.427
-155.691	-31.422	-0.284	-0.207
-154.677	-11.889	-0.287	-0.244
-153.662	-12.719	0.287	-0.242
-152.647	607.007	-0.074	0.241
-151.633	800.000	0.055	0.254
-150.618	-61.948	-0.178	-0.096
-149.604	-200.000	-0.060	0.362
-148.589	-138.852	-0.211	-0.030
-147.574	20.319	-0.090	-0.095
-146.560	-200.000	0.011	-0.247
-145.545	-200.000	0.043	-0.366
-144.531	-32.030	-0.199	-0.144
-143.516	-130.107	-0.412	0.072
-142.502	19.543	0.298	0.311
-141.487	145.628	0.383	0.667
-140.472	-107.941	-0.203	0.057
-139.458	-92.919	0.489	0.176
-138.443	11.758	-0.426	0.424
-137.429	7.826	-0.242	-0.235
-136.414	113.195	0.087	0.137
-135.399	-200.000	0.466	0.003
-134.385	-93.665	0.360	-0.128
-133.370	-200.000	-0.012	0.182
-132.356	-89.166	0.066	-0.025
-131.341	-70.152	-0.555	0.273
-130.326	89.905	-0.267	-0.387
-129.312	-14.266	0.352	-0.294
-128.297	-46.556	0.342	0.217
-127.283	-4.481	0.438	0.392
-126.268	-122.635	-0.425	0.089
-125.253	196.169	-0.121	0.240
-124.239	285.714	0.089	-0.210
-123.224	-12.554	0.247	-0.209
-122.210	-200.000	0.003	-0.037
-121.195	220.525	0.110	0.230
-120.180	-200.000	0.019	0.350
-119.166	-93.586	0.089	0.032
-118.151	625.335	0.021	-0.068
-117.137	-200.000	0.037	-0.330
-116.122	-114.193	0.067	-0.017
-115.107	800.000	-0.015	-0.074
-114.093	-80.280	-0.191	0.082
-113.078	219.869	0.124	-0.257
-112.064	-152.668	-0.537	-0.049
-111.049	-200.000	-0.037	0.320
-110.034	-158.441	-0.039	-0.003
-109.020	124.678	0.164	0.268
-108.005	-110.915	0.285	0.075
-106.991	-15.087	-0.065	0.054
-105.976	442.557	0.085	-0.243
-104.962	501.976	-0.143	-0.431
-103.947	-162.686	0.056	-0.004
-102.932	262.510	-0.118	-0.266
-101.918	-52.152	0.198	-0.119
-100.903	-31.103	0.220	-0.161
-99.889	-100.479	0.291	-0.093
-98.874	-113.794	-0.087	0.022
-97.859	-56.002	-0.368	0.212
-96.845	-136.043	0.126	0.019
-95.830	-30.766	0.169	-0.124
-94.816	-114.532	0.368	-0.091
-93.801	-85.353	0.363	0.146
-92.786	-26.378	-0.290	-0.220
-91.772	544.463	-0.064	0.199
-90.757	-7.840	0.098	-0.086
-89.743	-77.562	-0.077	-0.034
-88.728	152.613	0.164	0.291
-87.713	249.571	0.143	-0.314
-86.699	-200.000	-0.012	0.255
-85.684	800.000	0.038	-0.174
-84.670	233.842	0.130	-0.279
-83.655	-200.000	-0.005	0.095
-82.640	647.805	-0.194	0.646
-81.626	-66.447	-0.187	0.096
-80.611	-175.503	0.266	0.009
-79.597	-200.000	0.028	-0.336
-78.582	5.463	0.177	-0.169
-77.567	-20.316	0.329	-0.262
-76.553	-146.121	0.211	-0.024
-75.538	-153.289	0.186	0.017
-74.524	-6.742	-0.320	-0.281
-73.509	60.057	-0.204	0.261
-72.494	-111.617	0.138	-0.036
-71.480	-200.000	0.032	-0.271
-70.465	-58.770	0.587	-0.328
-69.451	-16.914	0.424	-0.346
-68.436	85.879	-0.293	-0.417
-67.422	-200.000	-0.037	-0.390
-66.407	-89.964	0.069	-0.026
-65.392	800.000	0.043	0.176
-64.378	52.585	-0.098	0.122
-63.363	-184.380	0.455	-0.009
-62.349	31.923	-0.076	0.085
-61.334	23.536	-2.231	-2.375
-60.319	14.159	1.130	1.139
-59.305	223.186	-3.662	-7.665
-58.290	72.189	4.024	5.428
-57.276	388.858	3.868	10.408
-56.261	-200.000	24.686	320.900
-55.246	351.005	1309.073	3365.279
-54.232	52.379	2850.623	3520.494
-53.217	51.030	2660.900	3265.170
-52.203	31.238	2390.689	2654.202
-51.188	27.642	2056.002	2238.259
-50.173	24.302	1943.539	2076.710
-49.159	23.076	1932.400	2050.440
-48.144	22.760	1926.546	2040.480
-47.130	22.523	1924.873	2035.871
-46.115	22.499	1922.869	2033.400
-45.100	22.578	1921.547	2032.834
-44.086	22.482	1920.657	2030.698
-43.071	22.551	1918.120	2028.734
-42.057	22.616	1916.311	2027.490
-41.042	22.417	1915.619	2024.383
-40.027	22.572	1914.120	2024.504
-39.013	22.567	1912.654	2022.813
-37.998	22.557	1911.914	2021.833
-36.984	22.585	1910.026	2020.077
-35.969	22.363	1909.348	2016.727
-34.954	22.327	1908.766	2015.617
-33.940	22.547	1906.068	2015.222
-32.925	22.575	1904.680	2013.999
-31.911	22.492	1903.879	2012.111
-30.896	22.372	1902.663	2009.372
-29.881	22.540	1901.135	2009.609
-28.867	22.375	1900.719	2007.193
-27.852	22.407	1898.240	2004.859
-26.838	22.417	1897.034	2003.626
-25.823	22.240	1895.785	2000.203
-24.809	22.425	1894.102	2000.461
-23.794	22.354	1893.285	1998.707
-22.779	22.298	1892.091	1996.729
-21.765	22.411	1891.165	1996.963
-20.750	22.298	1890.021	1994.386
-19.736	22.320	1888.554	1993.012
-18.721	22.368	1887.067	1991.906
-17.706	22.204	1886.532	1989.399
-16.692	22.231	1884.864	1987.862
-15.677	22.270	1883.978	1987.298
-14.663	22.266	1883.174	1986.328
-13.648	22.194	1881.227	1983.369
-12.633	22.235	1879.743	1982.197
-11.619	22.187	1878.415	1980.174
-10.604	22.154	1877.612	1978.880
-9.590	22.210	1876.751	1978.527
-8.575	22.312	1875.219	1977.986
-7.560	22.234	1873.836	1975.561
-6.546	22.260	1872.766	1974.655
-5.531	22.301	1871.892	1974.112
-4.517	22.173	1870.356	1970.977
-3.502	22.287	1869.421	1971.192
-2.487	22.199	1868.478	1969.129
-1.473	22.265	1864.864	1965.980
-0.458	22.012	1846.663	1943.908
0.556	18.688	1993.856	2046.805
1.571	17.189	2197.044	2235.305
2.586	18.074	2235.308	2285.864
3.600	18.068	2237.982	2288.246
4.615	17.954	2238.124	2286.582
5.629	18.033	2235.593	2284.786
6.644	18.058	2233.263	2282.460
7.659	18.054	2231.424	2280.253
8.673	18.101	2229.671	2278.827
9.688	17.666	2238.599	2281.820
10.702	16.847	2319.022	2352.088
11.717	15.325	2383.142	2395.008
12.731	7.125	2363.824	2258.143
13.746	0.962	2347.933	2154.728
14.761	0.164	2344.183	2139.632
15.775	0.114	2342.412	2137.047
16.790	0.103	2340.840	2135.193
17.804	0.022	2339.623	2132.671
18.819	0.012	2338.698	2131.432
19.834	0.041	2336.497	2129.582
20.848	-0.126	2336.295	2126.769
21.863	-0.044	2332.693	2124.397
22.877	-0.030	2331.267	2123.051
23.892	-0.011	2329.344	2121.307
24.907	-0.044	2326.848	2118.310
25.921	0.007	2324.559	2116.704
26.936	0.044	2322.574	2115.162
27.950	0.019	2320.004	2112.218
28.965	0.036	2318.537	2110.873
29.980	0.099	2316.416	2109.578
30.994	0.146	2314.493	2108.228
32.009	3.887	2324.851	2170.245
33.023	12.749	2351.141	2320.470
34.038	16.506	2358.074	2380.295
35.053	16.586	2355.208	2378.244
36.067	16.564	2352.357	2374.774
37.082	16.565	2350.097	2372.222
38.096	16.712	2348.807	2372.710
39.111	16.840	2345.832	2371.217
40.126	17.025	2343.855	2371.530
41.140	17.058	2342.120	2369.958
42.155	16.981	2341.887	2368.357
43.169	17.047	2338.874	2365.960
44.184	16.869	2335.663	2359.935
45.199	16.854	2334.050	2357.806
46.213	17.048	2333.403	2359.590
47.228	17.037	2332.382	2358.115
48.242	17.070	2330.055	2355.936
49.257	17.080	2328.103	2353.826
50.271	17.209	2325.519	2352.733
51.286	16.817	2323.724	2345.173
52.301	16.781	2321.460	2342.112
53.315	17.499	2323.368	2353.733
54.330	19.752	2329.943	2391.473
55.344	21.348	2330.151	2413.570
56.359	21.520	2326.891	2412.296
57.374	21.633	2326.565	2413.226
58.388	21.823	2324.373	2413.302
59.403	21.598	2319.902	2405.257
60.417	21.348	2316.942	2398.461
61.432	21.442	2315.393	2397.863
62.447	21.660	2314.472	2399.617
63.461	21.778	2313.232	2399.678
64.476	21.892	2311.345	2398.991
65.490	21.648	2308.301	2392.199
66.505	20.859	2305.351	2378.038
67.520	19.032	2298.321	2345.485
68.534	17.243	2290.332	2312.600
69.549	16.795	2286.244	2302.076
70.563	16.775	2283.190	2298.456
71.578	16.757	2281.539	2296.280
72.593	16.786	2280.231	2295.075
73.607	16.961	2278.830	2295.774
74.622	16.905	2277.057	2292.952
75.636	16.876	2274.229	2289.440
76.651	16.804	2271.190	2285.122
77.666	16.694	2269.822	2281.992
78.680	16.666	2267.452	2278.953
79.695	16.635	2265.905	2276.702
80.709	16.530	2264.584	2273.684
81.724	16.535	2262.028	2270.914
82.739	16.510	2259.706	2267.973
83.753	16.512	2256.836	2264.852
84.768	16.443	2255.589	2262.404
85.782	16.351	2254.422	2259.722
86.797	16.332	2252.742	2257.518
87.812	16.464	2249.652	2255.916
88.826	16.624	2248.160	2256.293
89.841	16.609	2245.476	2253.125
90.855	16.537	2243.842	2250.255
91.870	16.466	2243.218	2248.414
92.884	16.608	2240.526	2247.348
93.899	16.556	2240.197	2246.054
94.914	17.159	2241.825	2255.460
95.928	19.425	2247.661	2291.347
96.943	20.218	2245.576	2299.529
97.957	17.907	2236.983	2259.740
98.972	16.564	2231.740	2236.337
99.987	16.495	2228.134	2231.543
101.001	16.288	2226.566	2226.962
102.016	16.342	2224.402	2225.249
103.030	16.413	2222.875	2224.384
104.045	16.477	2219.551	2221.638
105.060	16.576	2217.458	2220.584
106.074	16.486	2216.006	2217.680
107.089	16.464	2214.282	2215.406
108.103	16.533	2212.808	2214.575
109.118	16.589	2211.243	2213.470
110.133	16.704	2209.827	2213.299
111.147	16.715	2207.301	2210.645
112.162	16.659	2206.165	2208.512
113.176	16.801	2203.959	2207.900
114.191	16.835	2202.733	2206.856
115.206	16.895	2200.868	2205.512
116.220	16.747	2198.926	2201.362
117.235	16.699	2196.937	2198.478
118.249	16.857	2194.666	2198.005
119.264	16.781	2193.175	2195.260
120.279	16.649	2192.600	2192.701
121.293	16.703	2190.774	2191.319
122.308	16.819	2188.949	2190.739
123.322	16.697	2187.673	2187.615
124.337	17.095	2188.333	2193.183
125.352	19.508	2194.879	2230.861
126.366	20.040	2192.809	2235.400
127.381	17.732	2182.930	2195.220
128.395	16.785	2178.077	2177.855
129.410	16.661	2176.029	2173.937
130.424	16.643	2175.492	2172.907
131.439	16.718	2173.854	2171.986
132.454	16.782	2171.643	2170.342
133.468	16.793	2169.495	2168.068
134.483	17.044	2167.846	2169.394
135.497	16.872	2167.126	2166.200
136.512	16.890	2164.521	2163.573
137.527	16.789	2161.735	2159.232
138.541	16.549	2160.614	2154.774
139.556	16.635	2159.655	2154.669
140.570	16.647	2158.217	2153.131
141.585	16.440	2155.857	2147.876
142.600	16.535	2155.407	2148.374
143.614	16.545	2153.019	2145.869
144.629	16.469	2151.347	2142.971
145.643	16.390	2149.826	2140.196
146.658	16.334	2148.358	2137.773
147.673	16.232	2147.173	2135.041
148.687	16.437	2145.112	2135.339
149.702	16.645	2143.953	2136.566
150.716	16.611	2142.651	2134.588
151.731	16.575	2141.430	2132.649
152.746	16.609	2140.741	2132.139
153.760	17.249	2143.305	2142.560
154.775	19.551	2149.888	2178.099
155.789	20.260	2148.225	2185.131
156.804	18.083	2137.605	2146.618
157.819	16.620	2131.404	2121.716
158.833	16.462	2128.740	2116.812
159.848	16.537	2126.352	2115.133
160.862	16.630	2125.693	2115.392
161.877	16.672	2124.421	2114.406
162.892	16.733	2123.105	2113.607
163.906	16.697	2121.610	2111.404
164.921	16.751	2120.334	2110.570
165.935	16.737	2117.311	2107.121
166.950	16.741	2116.844	2106.466
167.964	16.876	2113.796	2104.858
168.979	16.526	2113.017	2099.470
169.994	16.649	2110.135	2097.880
171.008	16.564	2108.148	2094.599
172.023	16.491	2108.284	2093.571
173.037	16.569	2106.796	2092.820
174.052	16.646	2105.143	2091.884
175.067	16.566	2103.187	2088.692
176.081	16.571	2101.317	2086.649
177.096	16.538	2100.975	2085.645
178.110	16.559	2099.474	2084.173
179.125	16.812	2097.049	2084.636
180.140	16.801	2096.341	2083.554
181.154	16.660	2095.822	2081.048
182.169	16.886	2094.253	2082.030
183.183	17.534	2095.540	2091.059
184.198	20.052	2102.378	2128.770
185.213	20.407	2100.149	2130.642
186.227	17.948	2091.543	2091.417
187.242	16.874	2087.667	2074.097
188.256	16.714	2085.594	2069.817
189.271	16.690	2083.439	2067.138
190.286	16.618	2081.324	2063.912
191.300	16.542	2080.331	2061.745
192.315	16.608	2077.964	2059.955
193.329	16.795	2076.699	2060.743
194.344	16.981	2075.553	2061.637
195.359	17.055	2075.382	2062.119
196.373	16.766	2072.599	2055.585
197.388	16.729	2068.876	2051.193
198.402	16.582	2067.100	2047.399
199.417	16.589	2064.609	2044.778
200.432	16.597	2063.974	2043.996
201.446	16.560	2063.166	2042.505
202.461	16.628	2061.092	2041.029
203.475	16.489	2059.383	2037.407
204.490	16.530	2056.920	2035.225
205.504	16.456	2056.198	2033.368
206.519	16.619	2053.547	2032.471
207.534	16.608	2051.637	2030.205
208.548	16.605	2050.648	2028.953
209.563	16.529	2049.316	2026.480
210.577	16.726	2048.450	2027.743
211.592	16.776	2047.902	2027.559
212.607	18.023	2052.286	2046.680
213.621	20.851	2057.630	2085.862
214.636	20.261	2051.732	2072.542
215.650	17.702	2043.275	2033.118
216.665	16.842	2040.586	2019.901
217.680	16.739	2039.125	2016.986
218.694	16.658	2037.465	2014.131
219.709	16.564	2036.074	2011.385
220.723	16.624	2034.018	2009.838
221.738	16.831	2032.710	2010.766
222.753	16.939	2030.000	2009.136
223.767	16.908	2028.522	2007.066
224.782	16.794	2027.610	2004.567
225.796	16.726	2026.341	2002.257
226.811	16.790	2024.577	2001.037
227.826	16.830	2022.624	1999.347
228.840	16.624	2021.700	1995.749
229.855	16.611	2020.333	1994.012
230.869	16.725	2018.555	1993.364
231.884	16.572	2017.655	1990.421
232.899	16.634	2015.527	1988.823
233.913	16.588	2014.495	1987.021
234.928	16.788	2012.601	1987.275
235.942	16.772	2009.642	1983.920
236.957	16.638	2010.020	1982.479
237.972	16.581	2008.953	1980.521
238.986	16.555	2007.608	1978.648
240.001	16.587	2005.643	1976.851
241.015	16.722	2004.446	1977.028
242.030	17.377	2006.229	1986.240
243.045	19.605	2011.588	2017.491
244.059	19.860	2008.344	2016.990
245.074	17.663	1999.469	1982.171
246.088	16.915	1995.931	1969.701
247.103	17.054	1994.369	1969.548
248.117	16.980	1992.899	1966.989
249.132	16.809	1990.678	1962.576
250.147	16.731	1989.007	1959.784
251.161	16.691	1987.945	1958.037
252.176	16.751	1987.223	1957.796
253.190	17.039	1985.729	1959.433
254.205	17.105	1982.916	1957.184
255.220	17.132	1982.149	1956.510
256.234	16.974	1981.193	1953.500
257.249	16.859	1979.597	1950.365
258.263	16.804	1978.965	1948.869
259.278	16.892	1977.592	1948.305
260.293	16.737	1975.048	1943.768
261.307	16.606	1972.217	1939.248
262.322	16.516	1971.046	1936.828
263.336	16.482	1969.503	1934.689
264.351	16.352	1967.405	1930.902
265.366	16.464	1966.863	1931.419
266.380	16.432	1966.066	1930.036
267.395	16.455	1964.610	1928.644
268.409	16.590	1962.920	1928.302
269.424	16.541	1962.213	1926.816
270.439	16.644	1960.757	1926.332
271.453	17.493	1963.267	1938.286
272.468	19.955	1967.580	1970.515
273.482	20.011	1963.843	1967.180
274.497	17.660	1955.182	1931.517
275.512	16.717	1951.382	1916.802
276.526	16.508	1949.173	1912.031
277.541	16.615	1946.786	1910.680
278.555	16.519	1945.221	1907.817
279.570	16.305	1944.159	1904.127
280.585	16.375	1943.074	1903.627
281.599	16.435	1942.183	1903.210
282.614	16.718	1941.263	1905.280
283.628	16.937	1940.534	1906.808
284.643	17.025	1939.540	1906.596
285.657	17.153	1937.733	1906.038
286.672	17.223	1936.523	1905.408
287.687	17.130	1934.391	1902.036
288.701	16.869	1934.483	1898.957
289.716	16.974	1932.383	1897.858
290.730	16.999	1931.221	1896.769
291.745	16.985	1930.131	1895.311
292.760	17.050	1928.292	1894.008
293.774	16.871	1927.517	1891.014
294.789	16.920	1925.841	1889.688
295.803	16.814	1922.913	1885.411
296.818	16.669	1921.850	1882.523
297.833	16.838	1920.512	1882.873
298.847	16.771	1919.450	1880.859
299.862	16.714	1918.218	1878.782
300.876	17.439	1919.650	1888.048
301.891	19.977	1924.780	1921.215
302.906	20.372	1922.354	1922.954
303.920	17.915	1914.857	1887.954
304.935	17.052	1911.325	1874.667
305.949	16.942	1907.977	1869.940
306.964	16.885	1906.472	1867.615
307.979	16.937	1905.766	1867.270
308.993	17.109	1904.524	1867.731
310.008	17.379	1903.309	1869.303
311.022	17.414	1902.243	1868.419
312.037	16.997	1900.547	1861.925
313.052	17.144	1899.008	1861.816
314.066	17.219	1897.023	1860.475
315.081	17.194	1896.584	1859.546
316.095	17.193	1895.107	1857.859
317.110	17.001	1892.863	1853.333
318.125	16.832	1891.411	1849.835
319.139	16.917	1889.842	1849.012
320.154	16.935	1888.674	1847.842
321.168	16.877	1887.472	1845.808
322.183	16.805	1885.138	1842.526
323.197	16.687	1883.717	1839.618
324.212	16.438	1881.810	1834.827
325.227	16.519	1879.265	1833.010
326.241	16.425	1877.976	1830.500
327.256	16.486	1877.252	1830.245
328.270	16.589	1875.573	1829.507
329.285	16.514	1876.128	1829.016
330.300	17.425	1881.301	1843.768
331.314	20.248	1884.901	1877.835
332.329	20.144	1879.536	1871.136
333.343	17.392	1872.012	1833.641
334.358	16.641	1867.912	1821.287
335.373	16.576	1866.653	1819.140
336.387	16.237	1865.056	1813.709
337.402	16.482	1862.442	1813.584
338.416	16.554	1861.812	1813.531
339.431	16.649	1860.706	1813.268
340.446	16.678	1858.854	1811.551
341.460	16.877	1857.800	1812.449
342.475	17.047	1857.056	1813.333
343.489	17.102	1856.233	1812.897
344.504	17.048	1854.749	1810.659
345.519	17.012	1853.334	1808.673
346.533	17.286	1852.053	1810.135
347.548	17.222	1850.931	1808.141
348.562	17.087	1849.707	1805.286
349.577	17.209	1848.477	1805.171
350.592	17.413	1846.891	1805.583
351.606	17.409	1845.855	1804.312
352.621	17.310	1844.577	1801.796
353.635	17.078	1842.539	1797.116
354.650	16.982	1840.800	1794.183
355.665	16.887	1839.191	1791.388
356.679	16.809	1837.842	1789.038
357.694	16.804	1836.572	1787.536
358.708	16.797	1835.928	1786.613
359.723	17.831	1839.037	1800.397
360.738	20.305	1842.961	1830.287
361.752	19.671	1838.161	1818.593
362.767	17.468	1831.076	1788.134
363.781	16.824	1827.860	1777.980
364.796	16.757	1826.376	1775.622
365.810	16.616	1826.587	1774.131
366.825	16.712	1824.907	1773.296
367.840	16.893	1824.346	1774.441
368.854	16.951	1823.076	1773.601
369.869	16.911	1820.749	1770.709
370.883	16.734	1818.483	1766.435
371.898	16.735	1817.020	1764.816
372.913	16.739	1816.420	1764.061
373.927	16.743	1815.796	1763.291
374.942	16.991	1814.774	1764.681
375.956	16.844	1814.340	1762.506
376.971	16.901	1811.298	1759.939
377.986	16.769	1808.879	1756.000
379.000	16.737	1807.855	1754.464
380.015	16.902	1806.707	1754.858
381.029	16.838	1803.846	1751.207
382.044	16.663	1802.327	1747.707
383.059	16.601	1800.922	1745.491
384.073	16.581	1800.737	1744.896
385.088	16.556	1799.159	1742.891
386.102	16.616	1796.792	1741.018
387.117	16.624	1795.307	1739.452
388.132	16.527	1795.282	1738.214
389.146	17.512	1799.180	1751.978
390.161	20.301	1802.533	1783.884
391.175	19.947	1796.521	1774.074
392.190	17.467	1788.795	1740.775
393.205	16.635	1786.753	1730.032
394.219	16.648	1785.108	1728.368
395.234	16.722	1783.186	1727.061
396.248	16.911	1780.748	1726.422
397.263	16.669	1779.126	1722.172
398.278	16.565	1778.155	1719.955
399.292	16.647	1776.618	1719.102
400.307	16.669	1776.226	1718.747
401.321	16.935	1775.540	1720.583
402.336	16.878	1774.117	1718.420
403.350	16.979	1772.483	1717.659
404.365	16.970	1771.827	1716.725
405.380	17.387	1770.340	1719.315
406.394	17.292	1769.565	1717.395
407.409	17.214	1768.183	1715.056
408.423	17.328	1766.498	1714.372
409.438	17.249	1765.723	1712.613
410.453	17.185	1763.402	1709.507
411.467	17.267	1762.763	1709.520
412.482	16.992	1761.697	1705.496
413.496	16.997	1759.536	1703.251
414.511	17.008	1757.982	1701.658
415.526	16.849	1755.187	1697.146
416.540	16.813	1754.243	1695.675
417.555	16.724	1753.655	1694.002
418.569	16.944	1753.563	1695.922
419.584	17.036	1752.966	1696.066
420.599	17.065	1753.576	1696.744
421.613	16.835	1751.753	1692.468
422.628	16.832	1749.934	1690.481
423.642	16.682	1749.217	1688.077
424.657	16.781	1747.806	1687.509
425.672	16.923	1745.703	1686.696
426.686	16.922	1744.079	1684.919
427.701	16.777	1743.403	1682.618
428.715	16.909	1741.712	1682.100
429.730	17.177	1740.221	1683.120
430.745	16.996	1739.564	1680.487
431.759	17.093	1739.163	1680.864
432.774	17.405	1739.067	1683.675
433.788	17.666	1739.697	1686.679
434.803	17.923	1738.345	1687.719
435.818	17.882	1737.791	1686.573
436.832	17.737	1736.697	1683.872
437.847	16.623	1730.079	1666.227
438.861	9.141	1709.055	1572.390
439.876	1.655	1694.560	1485.611
440.890	0.270	1692.118	1469.720
441.905	0.136	1690.964	1467.224
442.920	0.222	1689.346	1466.488
443.934	0.078	1687.987	1463.721
444.949	0.148	1686.288	1462.762
445.963	0.071	1686.377	1461.908
446.978	0.129	1686.234	1462.180
447.993	0.128	1684.004	1460.063
449.007	0.118	1681.671	1457.763
450.022	0.218	1679.909	1457.034
451.036	0.205	1679.138	1456.063
452.051	1.166	1682.382	1468.054
453.066	8.476	1699.281	1554.280
454.080	15.865	1711.730	1637.990
455.095	17.370	1712.027	1652.791
456.109	17.654	1712.107	1655.447
457.124	17.669	1711.012	1654.331
458.139	17.720	1710.564	1654.199
459.153	17.873	1709.306	1654.277
460.168	17.831	1707.920	1652.328
461.182	17.806	1706.263	1650.280
462.197	17.736	1704.321	1647.528
463.212	17.649	1702.605	1644.824
464.226	17.708	1701.849	1644.467
465.241	17.807	1700.226	1643.662
466.255	17.912	1699.422	1643.705
467.270	17.869	1698.516	1642.217
468.285	17.751	1696.231	1638.670
469.299	17.929	1694.887	1638.900
470.314	17.782	1693.739	1636.169
471.328	17.842	1692.103	1634.976
472.343	17.809	1691.473	1633.850
473.358	17.889	1690.349	1633.337
474.372	17.815	1689.474	1631.583
475.387	17.709	1688.406	1629.338
476.401	17.725	1685.949	1626.929
477.416	17.841	1684.915	1626.845
478.430	17.927	1683.858	1626.457
479.445	17.731	1682.325	1622.911
480.460	17.618	1681.496	1620.831
481.474	17.631	1680.696	1619.993
482.489	17.809	1679.990	1620.819
483.503	17.835	1677.593	1618.560
484.518	17.948	1676.694	1618.577
485.533	17.909	1675.695	1617.041
486.547	17.938	1673.377	1614.888
487.562	18.040	1673.001	1615.299
488.576	17.929	1671.847	1612.943
489.591	17.945	1671.032	1612.112
490.606	17.919	1668.591	1609.316
491.620	17.872	1666.814	1606.971
492.635	18.060	1665.617	1607.397
493.649	18.009	1664.851	1605.983
494.664	17.853	1663.079	1602.612
495.679	17.736	1661.569	1599.862
496.693	17.723	1660.594	1598.610
497.708	17.763	1659.594	1597.834
498.722	17.918	1658.985	1598.512
499.737	17.937	1658.006	1597.553
500.752	17.923	1655.326	1594.657
501.766	17.943	1653.626	1593.013
502.781	17.903	1652.479	1591.339
503.795	17.939	1651.601	1590.644
504.810	17.905	1650.497	1589.068
505.825	18.060	1649.539	1589.405
506.839	18.005	1648.032	1587.247
507.854	17.948	1647.346	1585.866
508.868	17.802	1646.108	1583.124
509.883	17.952	1644.946	1583.215
510.898	17.969	1643.690	1581.976
511.912	17.979	1641.423	1579.696
512.927	17.855	1639.645	1576.645
513.941	17.898	1637.976	1575.247
514.956	17.873	1637.226	1574.114
515.971	17.878	1635.838	1572.629
516.985	17.909	1634.811	1571.746
518.000	17.859	1635.145	1571.418
519.014	17.882	1633.922	1570.266
520.029	18.027	1631.916	1569.486
521.043	17.962	1630.910	1567.736
522.058	17.933	1629.628	1566.047
523.073	17.968	1628.630	1565.217
524.087	18.220	1627.654	1566.415
525.102	18.183	1626.070	1564.362
526.116	18.003	1624.476	1560.988
527.131	17.893	1624.201	1559.528
528.146	18.212	1622.893	1561.006
529.160	18.011	1621.919	1558.041
530.175	18.177	1621.208	1558.699
531.189	18.166	1619.637	1556.896
532.204	18.179	1618.092	1555.344
533.219	18.017	1616.558	1552.202
534.233	17.967	1615.540	1550.584
535.248	18.217	1614.741	1551.909
536.262	18.235	1614.912	1552.059
537.277	18.178	1613.591	1550.078
538.292	18.117	1610.583	1546.448
539.306	18.090	1609.410	1544.892
540.321	18.026	1608.687	1543.436
541.335	18.104	1606.861	1542.204
542.350	18.082	1605.889	1540.892
543.365	18.226	1603.472	1539.690
544.379	18.254	1602.541	1538.864
545.394	18.219	1601.664	1537.521
546.408	18.044	1600.656	1534.790
547.423	17.980	1598.525	1531.982
548.438	17.847	1597.735	1529.845
549.452	18.211	1596.337	1531.604
550.467	18.079	1595.368	1529.299
551.481	18.038	1594.928	1528.327
552.496	18.173	1594.443	1528.890
553.511	18.261	1593.478	1528.571
554.525	18.104	1592.660	1526.196
555.540	18.231	1591.218	1525.767
556.554	18.402	1589.344	1525.318
557.569	18.316	1587.748	1522.841
558.583	18.060	1587.486	1520.117
559.598	18.098	1585.520	1518.387
560.613	18.094	1584.191	1516.900
561.627	18.197	1582.834	1516.342
562.642	18.242	1581.791	1515.559
563.656	18.373	1580.754	1515.547
564.671	18.334	1580.526	1514.801
565.686	18.286	1579.393	1513.103
566.700	18.188	1577.048	1509.814
567.715	18.042	1575.868	1507.203
568.729	18.128	1573.512	1505.531
569.744	18.030	1572.913	1503.916
570.759	18.073	1571.482	1502.745
571.773	18.149	1570.148	1501.963
572.788	18.218	1569.501	1501.772
573.802	18.136	1567.837	1499.281
574.817	18.316	1566.266	1499.176
575.832	18.516	1565.016	1499.564
576.846	18.364	1564.350	1497.408
577.861	18.336	1563.213	1495.899
578.875	18.325	1563.106	1495.519
579.890	18.277	1562.143	1493.998
580.905	18.286	1561.338	1493.129
581.919	18.431	1560.216	1493.140
582.934	18.564	1558.873	1492.846
583.948	18.485	1557.919	1491.063
584.963	18.436	1556.064	1488.676
585.978	18.347	1554.832	1486.545
586.992	18.381	1554.179	1486.036
588.007	18.595	1553.224	1486.811
589.021	18.239	1551.868	1482.239
590.036	18.139	1550.656	1480.031
591.051	18.318	1549.701	1480.501
592.065	18.399	1547.666	1479.081
593.080	18.493	1546.209	1478.326
594.094	18.462	1544.837	1476.573
595.109	18.332	1542.541	1473.079
596.123	18.099	1541.436	1469.826
597.138	18.356	1540.093	1470.595
598.153	18.394	1539.848	1470.509
599.167	18.487	1538.431	1469.782
600.182	18.474	1537.950	1469.038
601.196	18.513	1536.376	1467.689
602.211	18.409	1535.401	1465.691
603.226	18.447	1534.550	1465.033
604.240	18.492	1533.206	1463.959
605.255	18.609	1532.051	1463.684
606.269	18.644	1531.006	1462.806
607.284	18.428	1529.520	1459.368
608.299	18.600	1528.258	1459.457
609.313	18.376	1527.907	1457.033
610.328	18.564	1526.047	1456.693
611.342	18.610	1524.393	1455.325
612.357	18.628	1523.832	1454.775
613.372	18.658	1522.387	1453.472
614.386	18.373	1522.223	1450.716
615.401	18.553	1521.217	1451.118
616.415	18.543	1520.803	1450.461
617.430	18.594	1519.536	1449.516
618.445	18.682	1517.961	1448.581
619.459	18.663	1516.453	1446.812
620.474	18.402	1515.714	1443.724
621.488	18.207	1513.975	1440.238
622.503	18.068	1512.785	1437.763
623.518	18.299	1512.010	1438.804
624.532	18.478	1511.379	1439.547
625.547	18.535	1510.321	1438.844
626.561	18.631	1509.536	1438.732
627.576	18.747	1508.664	1438.705
628.591	18.516	1506.530	1434.555
629.605	18.277	1505.136	1431.054
630.620	18.259	1504.141	1429.782
631.634	18.092	1503.062	1427.187
632.649	18.318	1501.605	1427.526
633.663	18.373	1500.538	1426.798
634.678	18.516	1499.901	1427.216
635.693	18.718	1498.377	1427.284
636.707	18.773	1496.865	1426.138
637.722	18.725	1496.769	1425.475
638.736	18.847	1495.559	1425.164
639.751	18.937	1494.226	1424.473
640.766	18.646	1493.695	1421.377
641.780	18.757	1491.698	1420.224
642.795	18.802	1490.546	1419.332
643.809	18.756	1489.816	1418.089
644.824	18.907	1488.945	1418.338
645.839	18.773	1487.991	1416.149
646.853	18.708	1487.016	1414.513
647.868	18.687	1485.318	1412.556
648.882	18.708	1483.661	1410.986
649.897	18.836	1482.730	1410.987
650.912	18.836	1481.251	1409.411
651.926	18.593	1480.554	1406.578
652.941	18.528	1479.126	1404.519
653.955	18.601	1476.912	1402.848
654.970	18.361	1475.644	1399.503
655.985	18.269	1474.990	1397.964
656.999	18.326	1473.993	1397.316
658.014	18.519	1472.202	1397.035
659.028	18.674	1471.594	1397.554
660.043	18.696	1470.774	1396.792
661.058	18.697	1469.792	1395.700
662.072	18.837	1468.617	1395.564
663.087	18.689	1467.905	1393.508
664.101	18.694	1466.507	1392.053
665.116	18.833	1465.352	1391.927
666.131	18.840	1464.625	1391.127
667.145	18.880	1463.057	1389.795
668.160	18.850	1462.018	1388.394
669.174	19.083	1460.469	1388.652
670.189	18.940	1460.599	1387.449
671.204	18.664	1459.472	1383.973
672.218	18.751	1458.203	1383.306
673.233	18.912	1456.902	1383.211
674.247	19.030	1456.001	1383.144
675.262	19.004	1454.944	1381.765
676.276	19.049	1453.738	1380.815
677.291	18.882	1453.315	1378.904
678.306	18.793	1451.801	1376.588
679.320	18.828	1450.225	1375.208
680.335	18.895	1450.197	1375.553
681.349	18.994	1449.400	1375.433
682.364	19.062	1448.194	1374.664
683.379	19.127	1445.742	1372.694
684.393	18.948	1444.990	1370.385
685.408	18.978	1444.302	1369.810
686.422	18.832	1443.962	1368.148
687.437	18.782	1443.326	1366.985
688.452	18.964	1442.371	1367.370
689.466	18.922	1440.025	1364.649
690.481	18.916	1438.620	1363.105
691.495	18.536	1438.563	1359.865
692.510	18.463	1436.282	1356.964
693.525	18.343	1433.898	1353.593
694.539	18.398	1434.138	1354.091
695.554	18.628	1434.336	1355.949
696.568	18.960	1433.231	1357.372
697.583	19.067	1431.925	1356.825
698.598	19.047	1431.568	1356.167
699.612	19.058	1430.787	1355.351
700.627	19.050	1429.233	1353.654
701.641	19.082	1427.160	1351.779
702.656	19.078	1426.502	1350.959
703.671	19.174	1426.465	1351.524
704.685	19.184	1426.242	1351.231
705.700	19.055	1424.244	1348.156
706.714	19.008	1422.459	1345.936
707.729	19.037	1420.991	1344.611
708.744	18.949	1419.258	1342.120
709.758	18.950	1418.446	1341.206
710.773	18.692	1417.835	1338.441
711.787	18.752	1416.260	1337.267
712.802	18.887	1414.313	1336.321
713.816	19.007	1413.874	1336.685
714.831	19.069	1413.436	1336.593
715.846	18.979	1412.398	1334.748
716.860	19.019	1411.524	1334.077
717.875	19.039	1409.812	1332.454
718.889	18.843	1409.440	1330.419
719.904	19.128	1408.516	1331.606
720.919	19.170	1407.101	1330.435
721.933	19.068	1406.569	1328.978
722.948	19.090	1405.973	1328.426
723.962	19.203	1404.740	1327.976
724.977	19.281	1402.742	1326.531
725.992	19.176	1402.276	1325.121
727.006	19.113	1400.701	1322.989
728.021	19.279	1399.957	1323.406
729.035	19.254	1399.429	1322.558
730.050	19.351	1397.561	1321.385
731.065	19.161	1396.456	1318.718
732.079	19.047	1395.670	1316.941
733.094	19.219	1394.593	1317.088
734.108	19.274	1392.388	1315.269
735.123	19.147	1391.123	1312.942
736.138	19.205	1390.699	1312.829
737.152	19.172	1389.575	1311.360
738.167	19.365	1388.072	1311.261
739.181	19.349	1387.558	1310.494
740.196	19.164	1386.875	1308.282
741.211	19.037	1386.690	1306.984
742.225	19.033	1385.712	1305.872
743.240	19.259	1383.713	1305.555
744.254	19.153	1382.647	1303.588
745.269	19.284	1381.651	1303.488
746.284	19.169	1380.584	1301.450
747.298	19.115	1379.259	1299.636
748.313	18.908	1377.631	1296.375
749.327	18.549	1377.286	1293.172
750.342	18.419	1376.138	1290.958
751.356	18.432	1374.279	1289.161
752.371	18.583	1373.600	1289.511
753.386	18.809	1373.086	1290.577
754.400	19.128	1372.959	1292.715
755.415	19.308	1371.457	1292.498
756.429	19.188	1370.417	1290.460
757.444	19.161	1369.521	1289.257
758.459	19.342	1368.391	1289.404
759.473	19.382	1367.440	1288.649
760.488	19.440	1366.368	1287.923
761.502	19.379	1365.676	1286.659
762.517	19.398	1363.882	1284.961
763.532	19.263	1362.114	1282.128
764.546	19.344	1361.039	1281.571
765.561	18.968	1360.298	1277.909
766.575	18.825	1359.602	1276.037
767.590	18.623	1358.485	1273.328
768.605	18.873	1357.846	1274.442
769.619	19.020	1355.615	1273.287
770.634	19.243	1354.915	1274.132
771.648	19.239	1354.311	1273.388
772.663	19.494	1353.635	1274.492
773.678	19.346	1352.690	1272.348
774.692	19.341	1352.365	1271.852
775.707	19.352	1352.273	1271.697
776.721	19.350	1350.638	1269.993
777.736	19.385	1349.468	1268.998
778.751	19.462	1348.339	1268.356
779.765	19.350	1347.717	1266.792
780.780	19.361	1346.420	1265.503
781.794	19.471	1345.714	1265.495
782.809	19.263	1344.816	1262.966
783.824	19.113	1343.573	1260.549
784.838	19.006	1341.332	1257.508
785.853	18.635	1340.368	1253.730
786.867	18.817	1340.317	1254.863
787.882	18.865	1339.448	1254.253
788.897	19.091	1338.906	1255.250
789.911	19.104	1337.903	1254.261
790.926	19.253	1336.452	1253.838
791.940	19.227	1335.773	1252.862
792.955	19.342	1334.265	1252.132
793.969	19.278	1333.597	1250.895
794.984	19.298	1333.139	1250.455
795.999	19.348	1331.684	1249.309
797.013	19.441	1330.347	1248.583
798.028	19.471	1328.863	1247.256
799.042	19.300	1328.406	1245.438
800.057	19.388	1327.165	1244.764
801.072	19.470	1325.695	1243.826
802.086	19.434	1324.524	1242.325
803.101	19.446	1324.163	1241.919
804.115	19.541	1322.662	1241.051
805.130	19.518	1321.515	1239.658
806.145	19.501	1320.405	1238.349
807.159	19.373	1319.211	1236.158
808.174	19.462	1317.715	1235.249
809.188	19.364	1316.083	1232.868
810.203	19.322	1314.638	1231.061
811.218	19.127	1313.337	1228.302
812.232	19.018	1311.395	1225.560
813.247	18.757	1311.850	1223.967
814.261	19.043	1311.067	1225.138
815.276	19.181	1310.254	1225.213
816.291	19.429	1309.503	1226.138
817.305	19.571	1308.213	1225.798
818.320	19.501	1307.236	1224.238
819.334	19.486	1305.694	1222.535
820.349	19.442	1304.193	1220.674
821.364	19.515	1302.811	1219.756
822.378	19.699	1301.103	1219.311
823.393	19.631	1299.794	1217.457
824.407	19.402	1299.551	1215.466
825.422	19.516	1299.022	1215.633
826.437	19.326	1297.588	1212.803
827.451	19.270	1295.514	1210.324
828.466	18.964	1293.401	1206.044
829.480	18.976	1291.315	1204.042
830.495	18.994	1290.659	1203.407
831.509	19.182	1290.661	1204.586
832.524	19.337	1289.803	1204.737
833.539	19.440	1288.971	1204.536
834.553	19.422	1287.840	1203.211
835.568	19.503	1285.907	1201.823
836.582	19.603	1284.873	1201.414
837.597	19.814	1283.244	1201.220
838.612	19.684	1281.974	1198.981
839.626	19.549	1281.240	1197.212
840.641	19.301	1280.524	1194.674
841.655	19.064	1280.383	1192.742
842.670	18.939	1278.735	1190.197
843.685	18.916	1276.995	1188.278
844.699	19.091	1276.280	1188.684
845.714	19.258	1275.338	1188.820
846.728	19.487	1274.330	1189.329
847.743	19.597	1273.340	1189.019
848.758	19.525	1272.592	1187.682
849.772	19.588	1271.255	1186.725
850.787	19.552	1269.859	1185.034
851.801	19.610	1268.356	1183.889
852.816	19.608	1267.055	1182.519
853.831	19.708	1265.411	1181.532
854.845	19.406	1263.855	1177.863
855.860	19.430	1262.515	1176.637
856.874	19.251	1261.395	1174.230
857.889	19.171	1259.871	1172.124
858.904	18.893	1258.388	1168.701
859.918	18.889	1256.431	1166.718
860.933	18.661	1255.985	1164.607
861.947	18.829	1255.422	1165.093
862.962	19.179	1254.331	1166.323
863.977	18.983	1253.012	1163.623
864.991	19.222	1252.700	1164.820
866.006	19.208	1252.363	1164.271
867.020	19.438	1251.285	1164.691
868.035	19.547	1250.451	1164.512
869.049	19.644	1249.393	1164.046
870.064	19.566	1248.429	1162.483
871.079	19.559	1247.251	1161.197
872.093	19.550	1246.983	1160.748
873.108	19.615	1245.589	1159.748
874.122	19.410	1244.428	1157.147
875.137	19.385	1243.353	1155.842
876.152	19.224	1242.419	1153.752
877.166	19.325	1241.059	1153.031
878.181	19.574	1239.520	1153.134
879.195	19.546	1239.344	1152.641
880.210	19.693	1238.524	1152.728
881.225	19.640	1237.569	1151.347
882.239	19.589	1237.106	1150.436
883.254	19.542	1236.260	1149.201
884.268	19.677	1235.334	1149.103
885.283	19.718	1233.694	1147.711
886.298	19.697	1231.924	1145.790
887.312	19.600	1231.554	1144.662
888.327	19.703	1230.172	1143.924
889.341	19.819	1228.179	1142.704
890.356	19.666	1227.972	1141.359
891.371	19.452	1228.169	1139.986
892.385	19.454	1227.502	1139.241
893.400	19.407	1226.160	1137.552
894.414	19.344	1224.906	1135.837
895.429	19.180	1223.063	1132.902
896.444	18.683	1220.571	1127.178
897.458	18.619	1219.740	1125.858
898.473	18.926	1219.357	1127.389
899.487	19.321	1219.080	1129.606
900.502	19.549	1217.769	1129.752
901.517	19.469	1217.377	1128.726
902.531	19.639	1216.067	1128.493
903.546	19.706	1215.565	1128.331
904.560	19.621	1215.403	1127.489
905.575	19.683	1214.191	1126.634
906.589	19.706	1213.290	1125.815
907.604	19.705	1212.327	1124.781
