DTS Sentinel unit serial number:	SN409020Multiplexer serial number:	ORYXHardware model number:	OX4-SRSoftware version number:	ORYX F/W v3.00 Oryx Data Collector v3.7.2.0data status	okinstallation	HaddamTimeLapsedifferential loss correction	single-endedforward channel	channel 3reverse channel	N/Adate	2011/06/21time	16:46:17forward acquisition time	30.00reverse acquisition time	0.00gamma	498.7831k internal	0.1785k external	0.1785temperature offset calibration	1.0074default loss term (dB/km)	0.3790temperature slope calibration	1.3530multiplexer offset coefficient	1.0000multiplexer slope coefficient	1.0000fibre end	0.00T internal ref (°C)	32.50T ext. ref 1 (°C)	27.50T ext. ref 2 (°C)	0.23length (m)	temperature (°C)	Stokes	anti-Stokes-747.200	-32.840	-0.207	0.149
-746.185	150.470	0.291	0.517
-745.171	147.923	0.219	-0.385
-744.156	249.446	0.234	0.519
-743.142	36.058	-0.209	0.239
-742.127	-200.000	0.030	0.291
-741.112	50.231	-0.303	-0.373
-740.098	-73.551	-0.428	-0.203
-739.083	-147.602	-0.028	0.003
-738.069	60.789	0.267	0.345
-737.054	-36.528	-0.372	-0.260
-736.039	800.000	0.105	-0.490
-735.025	57.814	0.276	-0.352
-734.010	800.000	0.014	0.054
-732.996	185.792	-0.047	0.091
-731.981	-80.588	-0.178	-0.077
-730.966	-78.092	0.460	-0.205
-729.952	374.090	0.038	0.102
-728.937	25.155	-0.387	-0.418
-727.923	63.026	-0.283	-0.370
-726.908	286.119	0.029	0.068
-725.894	-16.115	-0.167	0.138
-724.879	72.808	0.093	-0.126
-723.864	-200.000	-0.101	-0.718
-722.850	8.658	-0.167	-0.164
-721.835	37.827	-0.274	0.317
-720.821	73.172	-0.071	0.096
-719.806	68.044	-0.115	0.153
-718.791	99.360	0.068	0.103
-717.777	20.446	-0.074	0.078
-716.762	420.299	-0.178	0.500
-715.748	0.828	-0.171	-0.160
-714.733	-81.506	-0.503	0.215
-713.718	-152.535	-0.366	-0.034
-712.704	-47.739	0.183	0.115
-711.689	-51.392	0.273	-0.166
-710.675	3.328	-0.205	-0.194
-709.660	-44.279	0.135	-0.088
-708.645	800.000	0.077	0.320
-707.631	-169.426	-0.406	-0.019
-706.616	-74.297	-0.562	-0.263
-705.602	-31.194	-0.168	0.123
-704.587	-71.201	-0.167	-0.081
-703.572	155.221	-0.225	-0.403
-702.558	533.188	0.117	-0.362
-701.543	-119.122	-0.220	-0.050
-700.529	-83.731	-0.288	-0.119
-699.514	800.000	0.011	0.054
-698.499	697.745	-0.096	-0.331
-697.485	-91.805	-0.396	0.145
-696.470	-38.514	0.447	-0.307
-695.456	419.518	0.008	0.023
-694.441	-51.702	0.280	-0.169
-693.426	354.722	0.039	0.101
-692.412	800.000	0.090	0.421
-691.397	-95.020	0.142	-0.050
-690.383	-111.431	-0.290	-0.076
-689.368	-123.756	-0.315	-0.064
-688.354	-200.000	0.002	0.067
-687.339	519.514	-0.047	0.144
-686.324	234.244	-0.150	0.322
-685.310	85.007	-0.354	0.505
-684.295	-162.954	-0.290	-0.018
-683.281	26.783	0.191	0.208
-682.266	378.464	-0.068	0.182
-681.251	-123.018	-0.449	-0.093
-680.237	-44.547	-0.420	-0.273
-679.222	-102.744	-0.194	0.060
-678.208	34.482	0.314	-0.357
-677.193	135.072	0.192	0.326
-676.178	78.723	0.143	0.200
-675.164	-200.000	-0.025	0.279
-674.149	-200.000	-0.023	-0.160
-673.135	114.224	-0.266	-0.422
-672.120	48.417	-0.232	0.283
-671.105	11.556	-0.267	0.266
-670.091	-133.504	0.090	-0.015
-669.076	-143.143	-0.297	-0.037
-668.062	800.000	-0.079	-0.429
-667.047	23.772	-0.158	0.169
-666.032	11.322	0.174	0.173
-665.018	307.262	0.175	-0.426
-664.003	-74.337	-0.327	-0.153
-662.989	58.140	0.184	-0.235
-661.974	696.838	0.149	-0.512
-660.959	-76.991	0.234	-0.106
-659.945	-89.464	-0.129	-0.049
-658.930	29.466	-0.266	0.294
-657.916	-61.445	0.434	0.236
-656.901	-70.254	0.322	0.158
-655.886	-88.133	-0.261	0.101
-654.872	337.194	0.128	0.324
-653.857	-121.886	-0.513	-0.109
-652.843	85.385	-0.124	0.177
-651.828	-15.975	0.226	-0.186
-650.814	-124.241	-0.454	-0.092
-649.799	-123.941	0.060	0.012
-648.784	80.901	0.218	0.305
-647.770	7.354	-0.290	0.282
-646.755	800.000	0.085	0.437
-645.741	33.002	-0.113	0.127
-644.726	-74.975	0.336	-0.156
-643.711	636.250	-0.119	-0.393
-642.697	800.000	0.074	0.281
-641.682	-102.496	-0.186	0.057
-640.668	-200.000	-0.014	-0.187
-639.653	-200.000	-0.040	-0.431
-638.638	-63.929	-0.031	0.017
-637.624	-59.551	0.397	0.220
-636.609	60.570	0.368	0.473
-635.595	-88.900	-0.743	0.284
-634.580	-129.296	-0.800	0.143
-633.565	14.699	0.121	-0.122
-632.551	-50.140	0.186	-0.114
-631.536	316.931	0.149	-0.366
-630.522	283.969	-0.102	0.239
-629.507	-48.098	-0.289	0.181
-628.492	20.979	0.212	-0.222
-627.478	132.148	0.189	0.317
-626.463	-104.025	0.165	-0.050
-625.449	387.092	-0.191	-0.515
-624.434	-120.672	0.161	-0.035
-623.419	55.124	0.270	0.339
-622.405	-93.708	0.461	0.164
-621.390	-149.045	0.680	-0.070
-620.376	23.018	0.497	-0.529
-619.361	-167.737	-0.194	-0.010
-618.346	-41.858	-0.216	0.144
-617.332	-73.551	-0.098	-0.046
-616.317	-97.623	-0.302	-0.101
-615.303	570.227	-0.052	0.166
-614.288	70.607	0.212	0.285
-613.273	403.881	0.123	0.337
-612.259	-147.023	0.133	-0.015
-611.244	-89.424	0.125	0.048
-610.230	-116.978	-0.385	-0.090
-609.215	800.000	-0.069	-0.342
-608.201	115.717	0.107	-0.170
-607.186	-82.255	-0.394	-0.165
-606.171	26.488	0.113	-0.122
-605.157	-200.000	0.052	-0.405
-604.142	800.000	-0.114	-0.427
-603.128	100.025	0.063	0.095
-602.113	-200.000	0.058	-0.404
-601.098	56.454	0.149	0.188
-600.084	-16.427	0.383	-0.315
-599.069	800.000	-0.054	0.291
-598.055	574.173	-0.149	0.475
-597.040	-1.714	0.305	-0.278
-596.025	410.472	0.173	-0.478
-595.011	-150.492	0.081	-0.008
-593.996	-43.953	-0.279	0.182
-592.982	93.866	-0.016	-0.024
-591.967	-11.804	0.288	0.244
-590.952	-4.856	0.178	-0.159
-589.938	-59.025	-0.652	0.364
-588.923	634.772	-0.152	-0.502
-587.909	-17.482	0.068	0.055
-586.894	-48.705	0.108	-0.067
-585.879	631.461	-0.125	0.412
-584.865	-200.000	-0.008	0.152
-583.850	179.459	0.070	-0.132
-582.836	723.621	-0.174	0.604
-581.821	36.109	0.319	-0.364
-580.806	-61.369	0.617	0.335
-579.792	800.000	0.065	0.306
-578.777	-121.428	-0.394	-0.084
-577.763	-200.000	-0.003	0.360
-576.748	-155.826	-0.130	-0.011
-575.733	-200.000	-0.093	0.544
-574.719	800.000	-0.030	-0.129
-573.704	-34.615	-0.656	-0.464
-572.690	572.042	0.075	0.236
-571.675	68.113	-0.097	0.128
-570.661	-21.165	-0.189	0.149
-569.646	-118.235	-0.432	0.099
-568.631	26.454	0.140	-0.152
-567.617	-135.875	-0.121	0.018
-566.602	-44.167	-0.256	-0.166
-565.588	-34.912	-0.277	0.195
-564.573	-30.263	-0.443	-0.325
-563.558	105.800	-0.221	-0.339
-562.544	211.055	0.178	0.364
-561.529	577.066	-0.141	-0.448
-560.515	-200.000	-0.026	-0.269
-559.500	-13.314	0.483	0.405
-558.485	-200.000	-0.053	0.000
-557.471	14.598	-0.123	0.124
-556.456	-200.000	0.044	0.400
-555.442	657.771	0.151	0.505
-554.427	800.000	-0.025	0.128
-553.412	245.927	0.176	-0.384
-552.398	-135.154	-0.210	-0.032
-551.383	-93.328	-0.227	-0.081
-550.369	-200.000	-0.066	-0.518
-549.354	-80.345	0.188	-0.081
-548.339	451.088	-0.041	0.118
-547.325	136.780	-0.173	0.292
-546.310	-200.000	-0.048	0.541
-545.296	463.042	-0.032	-0.092
-544.281	-30.842	-0.124	0.090
-543.266	-137.640	0.211	0.030
-542.252	-111.252	-0.135	-0.035
-541.237	-109.672	0.256	0.069
-540.223	-125.306	-0.605	-0.118
-539.208	-75.994	-0.295	-0.134
-538.193	-84.163	-0.166	0.068
-537.179	198.009	-0.137	-0.271
-536.164	-42.722	-0.220	0.144
-535.150	800.000	0.066	-0.252
-534.135	26.714	0.412	-0.446
-533.121	2.153	-0.436	-0.407
-532.106	-8.812	-0.419	-0.363
-531.091	77.276	-0.113	0.156
-530.077	-60.064	0.523	0.287
-529.062	-24.102	-0.095	0.073
-528.048	114.375	0.147	-0.232
-527.033	64.857	-0.028	-0.037
-526.018	-200.000	-0.020	0.148
-525.004	-140.691	0.596	0.079
-523.989	31.130	0.116	0.128
-522.975	316.715	-0.093	0.229
-521.960	-44.370	0.234	0.151
-520.945	411.283	-0.118	0.324
-519.931	-200.000	0.030	0.207
-518.916	39.390	-0.160	0.185
-517.902	3.839	0.401	-0.378
-516.887	-90.249	-0.690	0.258
-515.872	-111.473	-0.547	0.143
-514.858	-200.000	-0.055	0.479
-513.843	-200.000	-0.010	0.119
-512.829	800.000	-0.061	-0.317
-511.814	-26.665	-0.760	-0.573
-510.799	-92.899	-0.326	-0.117
-509.785	800.000	0.079	0.310
-508.770	555.657	-0.127	-0.397
-507.756	800.000	-0.051	-0.277
-506.741	-6.639	0.282	-0.247
-505.726	-80.263	0.327	0.140
-504.712	800.000	0.071	-0.279
-503.697	43.449	-0.149	0.175
-502.683	95.117	0.138	-0.204
-501.668	-47.186	-0.403	-0.253
-500.653	-60.812	0.085	-0.046
-499.639	104.093	-0.150	0.228
-498.624	-132.742	-0.852	0.139
-497.610	800.000	-0.096	0.370
-496.595	-4.994	-0.183	0.162
-495.581	-49.209	-0.403	0.248
-494.566	-200.000	0.008	0.080
-493.551	-80.065	-0.368	-0.159
-492.537	97.030	0.071	-0.105
-491.522	167.303	0.157	-0.288
-490.508	80.507	0.265	-0.368
-489.493	112.575	0.095	-0.149
-488.478	-200.000	-0.001	-0.050
-487.464	-55.029	-0.280	-0.162
-486.449	-200.000	-0.004	0.220
-485.435	-200.000	-0.006	0.047
-484.420	-122.710	0.394	-0.081
-483.405	241.137	-0.069	-0.149
-482.391	-200.000	0.004	-0.137
-481.376	214.606	0.061	-0.126
-480.362	-69.227	-0.532	-0.263
-479.347	69.242	-0.120	-0.160
-478.332	-65.028	-0.199	-0.103
-477.318	-70.244	-0.240	-0.117
-476.303	62.849	-0.360	-0.465
-475.289	-200.000	0.016	-0.125
-474.274	70.156	-0.049	-0.065
-473.259	90.482	0.350	0.506
-472.245	263.175	-0.044	-0.100
-471.230	119.366	0.190	-0.304
-470.216	-159.412	-0.126	0.009
-469.201	464.345	-0.020	-0.057
-468.186	-136.079	-0.697	0.104
-467.172	-200.000	0.015	0.234
-466.157	800.000	-0.042	-0.201
-465.143	-63.650	-0.302	0.159
-464.128	-82.751	-0.441	-0.183
-463.113	-118.430	-0.459	0.104
-462.099	800.000	-0.007	-0.028
-461.084	-109.414	0.136	0.037
-460.070	-200.000	0.003	-0.189
-459.055	-56.806	0.093	-0.053
-458.040	604.877	0.172	-0.555
-457.026	-86.447	-0.649	0.256
-456.011	-18.055	-0.264	0.213
-454.997	27.981	0.209	-0.227
-453.982	28.401	-0.142	-0.155
-452.968	-145.295	0.403	-0.046
-451.953	158.890	0.136	0.245
-450.938	-153.513	0.282	-0.025
-449.924	-54.315	0.444	0.259
-448.909	-200.000	0.019	0.216
-447.895	800.000	0.069	0.382
-446.880	533.240	0.104	0.319
-445.865	-200.000	-0.210	0.001
-444.851	9.638	-0.196	0.191
-443.836	-200.000	0.012	0.414
-442.822	-31.142	0.220	0.160
-441.807	-31.576	-0.304	-0.219
-440.792	88.981	-0.167	0.240
-439.778	-87.752	0.356	0.138
-438.763	306.384	0.099	-0.238
-437.749	-81.953	0.140	0.059
-436.734	-41.940	-0.080	-0.053
-435.719	-113.537	0.719	0.180
-434.705	8.374	-0.046	0.045
-433.690	20.438	0.546	0.568
-432.676	-36.775	-0.175	-0.121
-431.661	92.641	0.117	0.170
-430.646	-200.000	-0.023	0.389
-429.632	256.785	0.252	0.560
-428.617	800.000	-0.116	-0.415
-427.603	800.000	-0.053	-0.249
-426.588	-68.616	0.334	-0.166
-425.573	370.210	-0.144	0.378
-424.559	2.987	-0.123	0.115
-423.544	-2.540	-0.258	-0.233
-422.530	-103.437	-0.638	0.192
-421.515	365.932	-0.018	0.046
-420.500	-200.000	0.003	-0.275
-419.486	49.446	0.238	0.289
-418.471	22.720	0.298	0.314
-417.457	-31.060	-0.452	0.327
-416.442	-90.134	-0.365	-0.136
-415.428	158.451	-0.270	-0.483
-414.413	-200.000	-0.024	-0.591
-413.398	315.986	0.039	0.094
-412.384	800.000	-0.050	0.257
-411.369	-81.210	-0.171	0.072
-410.355	-200.000	-0.124	-0.754
-409.340	-1.820	0.027	0.025
-408.325	-11.225	-0.053	-0.045
-407.311	237.516	0.208	0.445
-406.296	-74.587	0.166	0.076
-405.282	75.901	0.182	0.248
-404.267	-43.932	-0.042	0.027
-403.252	316.080	-0.222	0.540
-402.238	-13.211	-0.121	-0.101
-401.223	-158.238	-0.466	0.034
-400.209	-200.000	0.023	-0.627
-399.194	498.661	-0.115	-0.343
-398.179	-131.518	0.369	0.062
-397.165	-176.847	-0.053	0.002
-396.150	656.893	-0.039	0.128
-395.136	604.810	-0.098	-0.315
-394.121	47.660	0.216	-0.259
-393.106	-25.176	0.123	-0.094
-392.092	141.476	0.135	0.231
-391.077	67.289	0.167	0.219
-390.063	-142.749	0.375	0.047
-389.048	-5.749	0.500	-0.439
-388.033	769.420	0.091	0.320
-387.019	-83.959	-0.622	0.253
-386.004	-132.386	-0.385	-0.063
-384.990	-167.194	0.573	0.029
-383.975	345.069	-0.087	-0.221
-382.960	204.033	0.080	-0.159
-381.946	-151.929	0.459	0.043
-380.931	587.647	-0.073	0.231
-379.917	89.610	-0.245	-0.352
-378.902	277.887	0.146	0.334
-377.888	69.723	0.134	0.177
-376.873	154.681	-0.066	-0.116
-375.858	289.985	-0.116	-0.272
-374.844	-110.126	0.451	0.120
-373.829	-200.000	0.004	0.235
-372.815	691.414	0.048	-0.161
-371.800	60.923	0.078	0.099
-370.785	81.505	0.058	0.080
-369.771	277.777	0.074	0.170
-368.756	-137.395	-0.201	-0.029
-367.742	-33.138	-0.359	-0.255
-366.727	-83.817	0.369	-0.150
-365.712	-192.702	0.136	-0.002
-364.698	-95.905	0.254	0.087
-363.683	156.753	0.118	0.209
-362.669	-129.605	0.325	0.057
-361.654	-200.000	-0.034	0.375
-360.639	541.167	-0.015	0.047
-359.625	800.000	0.162	0.806
-358.610	-122.806	0.175	0.036
-357.596	37.891	-0.238	-0.272
-356.581	70.034	-0.215	-0.285
-355.566	-122.828	-0.097	-0.020
-354.552	-172.625	0.318	-0.013
-353.537	-141.652	-0.131	-0.017
-352.523	-79.081	0.177	-0.077
-351.508	800.000	-0.049	0.194
-350.493	425.299	-0.204	0.567
-349.479	-45.009	0.084	-0.053
-348.464	29.320	-0.184	0.200
-347.450	-70.769	0.220	-0.106
-346.435	-200.000	0.004	-0.255
-345.420	521.248	-0.156	0.471
-344.406	-200.000	0.059	-0.566
-343.391	-200.000	-0.395	-0.001
-342.377	-200.000	-0.004	-0.119
-341.362	-200.000	0.029	-0.391
-340.348	166.300	-0.071	-0.130
-339.333	177.921	0.270	-0.507
-338.318	-200.000	-0.039	-0.256
-337.304	-200.000	0.020	0.144
-336.289	82.028	0.044	-0.061
-335.275	-53.782	-0.341	0.199
-334.260	473.408	-0.135	0.391
-333.245	354.952	-0.023	-0.059
-332.231	191.944	-0.141	0.274
-331.216	-200.000	0.011	-0.286
-330.202	800.000	0.014	0.061
-329.187	420.575	0.115	-0.317
-328.172	721.769	0.069	-0.237
-327.158	800.000	-0.048	0.173
-326.143	5.525	-0.257	-0.243
-325.129	-112.290	-0.101	0.026
-324.114	99.230	0.182	0.270
-323.099	196.263	0.250	0.490
-322.085	198.823	-0.054	0.107
-321.070	636.800	-0.047	0.153
-320.056	-28.640	0.178	0.131
-319.041	800.000	0.032	-0.152
-318.026	-124.786	0.235	-0.046
-317.012	-8.952	0.255	0.219
-315.997	-200.000	0.021	0.135
-314.983	30.915	-0.215	0.236
-313.968	88.515	-0.193	0.275
-312.953	-200.000	0.046	0.337
-311.939	87.731	-0.190	-0.270
-310.924	-30.865	0.145	-0.105
-309.910	-200.000	-0.024	0.159
-308.895	-59.306	0.239	0.131
-307.880	-162.481	-0.249	0.016
-306.866	-30.540	-0.378	0.274
-305.851	800.000	-0.071	0.310
-304.837	27.327	0.162	0.174
-303.822	800.000	-0.031	-0.126
-302.807	533.805	-0.116	-0.354
-301.793	11.302	-0.328	0.322
-300.778	800.000	0.032	-0.171
-299.764	156.120	-0.033	-0.059
-298.749	-65.690	0.202	0.103
-297.735	-200.000	-0.196	0.001
-296.720	-200.000	-0.003	-0.105
-295.705	12.758	0.056	0.055
-294.691	-73.280	0.370	-0.173
-293.676	800.000	-0.104	-0.514
-292.662	104.126	-0.131	-0.197
-291.647	-200.000	0.023	-0.509
-290.632	73.186	0.109	0.146
-289.618	-164.979	0.230	-0.013
-288.603	-153.698	0.204	0.018
-287.589	800.000	0.041	0.197
-286.574	-159.294	0.152	-0.011
-285.559	22.313	-0.233	0.243
-284.545	299.483	-0.140	0.330
-283.530	-142.292	0.272	-0.034
-282.516	-26.150	0.088	0.066
-281.501	-26.304	0.218	0.163
-280.486	27.928	-0.152	0.164
-279.472	57.086	0.299	0.373
-278.457	-9.293	-0.196	0.168
-277.443	157.375	-0.089	0.158
-276.428	-114.556	0.518	0.126
-275.413	-28.373	0.179	-0.132
-274.399	240.842	0.146	0.314
-273.384	176.153	0.108	-0.201
-272.370	-111.124	0.264	-0.069
-271.355	91.878	0.214	-0.308
-270.340	-65.630	0.519	0.265
-269.326	45.575	0.167	-0.197
-268.311	21.020	0.053	0.055
-267.297	-180.717	0.094	-0.002
-266.282	107.294	0.125	0.190
-265.267	203.618	-0.080	-0.158
-264.253	27.041	0.418	0.448
-263.238	-147.926	-0.301	-0.032
-262.224	25.211	-0.109	0.115
-261.209	634.295	-0.048	0.158
-260.195	-73.916	0.343	-0.159
-259.180	-4.561	-0.450	0.397
-258.165	800.000	-0.036	0.167
-257.151	9.662	0.139	-0.135
-256.136	133.193	0.197	-0.327
-255.122	-93.145	-0.243	0.086
-254.107	-200.000	0.002	0.208
-253.092	-132.405	-0.030	0.005
-252.078	-140.768	-0.117	0.015
-251.063	-159.614	0.178	-0.012
-250.049	19.440	0.183	0.188
-249.034	-80.094	0.572	-0.244
-248.019	-134.077	0.345	0.054
-247.005	198.634	0.086	-0.169
-245.990	64.572	-0.241	-0.311
-244.976	-68.323	-0.294	0.146
-243.961	-200.000	0.024	0.354
-242.946	-81.191	-0.072	0.030
-241.932	-4.871	-0.370	-0.326
-240.917	10.402	0.230	-0.224
-239.903	800.000	-0.005	0.023
-238.888	12.840	0.680	-0.671
-237.873	-44.891	-0.366	-0.233
-236.859	72.805	0.149	0.199
-235.844	-200.000	0.062	0.376
-234.830	-56.444	-0.151	-0.085
-233.815	-200.000	-0.022	-0.337
-232.800	627.757	0.164	0.532
-231.786	-109.963	-0.144	0.038
-230.771	-200.000	-0.040	-0.437
-229.757	-163.880	0.130	-0.008
-228.742	-35.396	-0.177	0.122
-227.727	800.000	0.124	-0.588
-226.713	-200.000	0.025	-0.370
-225.698	-54.494	-0.189	-0.109
-224.684	245.031	-0.261	-0.563
-223.669	-87.257	-0.351	0.135
-222.655	-133.887	0.160	0.025
-221.640	-45.974	-0.251	-0.157
-220.625	-90.139	0.504	-0.186
-219.611	759.883	-0.093	-0.323
-218.596	-200.000	-0.035	0.269
-217.582	126.564	-0.213	-0.344
-216.567	436.812	-0.072	-0.201
-215.552	264.474	0.094	0.210
-214.538	98.675	-0.083	-0.122
-213.523	-115.890	0.335	0.079
-212.509	-200.000	-0.018	0.158
-211.494	118.570	0.357	-0.564
-210.479	214.772	-0.034	-0.068
-209.465	-200.000	0.028	0.235
-208.450	-78.691	0.427	0.185
-207.436	800.000	-0.061	-0.235
-206.421	-56.096	0.505	-0.286
-205.406	-200.000	0.014	0.126
-204.392	-74.962	0.238	0.108
-203.377	800.000	-0.031	0.152
-202.363	-111.155	0.234	-0.061
-201.348	-78.381	0.408	-0.177
-200.333	144.607	-0.105	0.180
-199.319	66.282	0.232	-0.301
-198.304	800.000	0.051	0.263
-197.290	-109.663	-0.078	-0.021
-196.275	-166.509	-0.369	-0.019
-195.260	-200.000	-0.017	0.117
-194.246	96.373	-0.135	-0.198
-193.231	467.197	0.127	-0.366
-192.217	-108.501	-0.272	-0.074
-191.202	5.863	-0.287	-0.271
-190.187	219.512	0.136	-0.278
-189.173	-200.000	0.024	0.170
-188.158	-4.041	0.474	-0.418
-187.144	-85.811	0.287	0.113
-186.129	376.809	-0.096	0.252
-185.114	-200.000	0.009	0.140
-184.100	-124.092	-0.272	0.054
-183.085	-200.000	-0.015	0.120
-182.071	-40.256	-0.151	0.100
-181.056	-59.540	-0.150	-0.082
-180.042	55.804	-0.172	0.213
-179.027	-65.358	0.065	0.033
-178.012	525.206	-0.197	0.593
-176.998	10.290	0.166	-0.161
-175.983	186.440	-0.120	-0.229
-174.969	-72.018	0.380	-0.179
-173.954	25.404	0.200	0.212
-172.939	-89.213	-0.125	-0.047
-171.925	-49.506	0.276	0.167
-170.910	-120.370	0.437	0.094
-169.896	-96.634	-0.283	-0.094
-168.881	800.000	-0.077	0.393
-167.866	48.543	-0.163	0.195
-166.852	-41.023	0.151	0.099
-165.837	-85.125	0.569	-0.226
-164.823	181.284	0.085	-0.159
-163.808	-200.000	0.037	-0.576
-162.793	-51.401	-0.307	-0.182
-161.779	-65.374	0.195	0.099
-160.764	-34.400	-0.048	0.033
-159.750	72.108	-0.318	0.422
-158.735	-200.000	-0.041	-0.346
-157.720	80.416	-0.380	-0.522
-156.706	115.943	0.274	0.428
-155.691	102.029	0.044	0.066
-154.677	800.000	0.093	-0.426
-153.662	-200.000	0.064	-0.562
-152.647	-31.082	0.123	-0.088
-151.633	608.851	0.063	-0.201
-150.618	-22.508	0.245	-0.188
-149.604	-146.741	0.264	-0.029
-148.589	800.000	0.161	0.614
-147.574	800.000	-0.102	0.398
-146.560	-140.620	-0.162	-0.021
-145.545	-200.000	0.025	-0.177
-144.531	-17.178	0.718	0.575
-143.516	113.264	0.126	0.195
-142.502	156.961	0.235	0.415
-141.487	6.432	0.199	0.188
-140.472	800.000	0.060	-0.259
-139.458	-91.368	-0.333	0.120
-138.443	800.000	0.031	0.145
-137.429	-200.000	-0.016	0.289
-136.414	174.647	-0.108	0.199
-135.399	120.759	0.076	-0.121
-134.385	193.145	-0.062	-0.120
-133.370	6.606	-0.195	0.184
-132.356	-27.015	-0.179	-0.133
-131.341	-84.197	-0.281	-0.113
-130.326	6.138	-0.207	-0.195
-129.312	-100.992	0.373	0.116
-128.297	-18.909	0.431	0.341
-127.283	-200.000	-0.009	-0.243
-126.268	417.194	0.074	0.201
-125.253	-100.911	0.293	-0.091
-124.239	-200.000	-0.028	0.228
-123.224	800.000	-0.125	0.458
-122.210	800.000	0.025	0.123
-121.195	-163.021	0.197	0.012
-120.180	-124.003	0.176	0.035
-119.166	727.339	-0.108	0.368
-118.151	-56.596	-0.033	-0.018
-117.137	-127.202	-0.209	-0.038
-116.122	141.786	0.281	-0.475
-115.107	-142.163	0.077	-0.010
-114.093	139.138	0.038	-0.064
-113.078	-120.475	-0.564	0.121
-112.064	-30.836	-0.245	0.175
-111.049	-165.392	-0.205	0.011
-110.034	-151.528	0.474	-0.044
-109.020	-22.454	0.165	0.127
-108.005	-113.754	-0.473	-0.116
-106.991	67.439	-0.172	-0.223
-105.976	-36.546	-0.250	0.171
-104.962	-200.000	0.005	0.152
-103.947	55.148	-0.262	0.322
-102.932	-26.504	0.199	0.148
-101.918	-75.481	0.372	0.168
-100.903	-120.969	0.175	-0.037
-99.889	-38.941	-0.321	-0.214
-98.874	91.294	-0.154	0.220
-97.859	299.678	0.310	0.728
-96.845	-20.963	0.043	0.033
-95.830	-200.000	-0.057	0.471
-94.816	-48.922	0.452	0.274
-93.801	-98.178	0.269	0.087
-92.786	-114.982	-0.101	-0.024
-91.772	-81.798	0.337	0.140
-90.757	68.936	0.236	0.309
-89.743	-60.330	-0.190	0.102
-88.728	-68.370	0.476	-0.234
-87.713	800.000	0.050	0.221
-86.699	5.483	0.081	0.075
-85.684	800.000	-0.040	0.197
-84.670	547.160	0.184	0.561
-83.655	-147.690	0.478	0.050
-82.640	800.000	-0.074	-0.266
-81.626	-50.430	0.383	-0.229
-80.611	14.086	-0.159	-0.157
-79.597	24.370	-0.266	0.279
-78.582	238.197	-0.087	-0.184
-77.567	-200.000	-0.030	0.177
-76.553	-143.438	0.209	0.025
-75.538	206.289	-0.155	0.308
-74.524	-64.790	-0.558	0.286
-73.509	47.616	0.145	0.172
-72.494	-61.341	-0.141	-0.075
-71.480	-97.715	-0.300	0.098
-70.465	160.447	-0.088	0.157
-69.451	2.244	0.208	0.191
-68.436	-126.467	0.659	-0.123
-67.422	33.547	-0.177	-0.196
-66.407	-64.639	0.399	-0.205
-65.392	-200.000	-0.009	0.268
-64.378	84.159	0.116	0.161
-63.363	172.608	-0.066	-0.121
-62.349	-106.809	-0.311	0.087
-61.334	-26.109	-1.562	-1.163
-60.319	-39.428	0.669	0.444
-59.305	332.127	-2.621	-6.447
-58.290	21.166	3.395	3.496
-57.276	559.524	3.568	10.989
-56.261	-200.000	16.555	249.167
-55.246	417.411	1217.211	3313.805
-54.232	57.506	2845.033	3528.567
-53.217	62.372	2725.159	3454.516
-52.203	38.166	2453.672	2770.728
-51.188	38.443	2106.850	2382.390
-50.173	34.783	1979.774	2196.416
-49.159	33.367	1968.248	2167.268
-48.144	33.038	1964.199	2158.946
-47.130	32.919	1961.582	2154.609
-46.115	32.838	1960.242	2152.128
-45.100	32.858	1958.170	2149.993
-44.086	32.770	1957.367	2148.021
-43.071	32.943	1954.883	2147.189
-42.057	32.766	1953.806	2143.895
-41.042	32.747	1953.193	2142.926
-40.027	32.775	1951.106	2140.870
-39.013	32.716	1949.871	2138.753
-37.998	32.764	1948.175	2137.361
-36.984	32.604	1947.816	2135.056
-35.969	32.585	1946.155	2132.932
-34.954	32.646	1944.747	2132.003
-33.940	32.621	1944.253	2131.090
-32.925	32.629	1941.703	2128.299
-31.911	32.638	1940.861	2127.393
-30.896	32.503	1940.339	2125.210
-29.881	32.520	1939.278	2124.153
-28.867	32.564	1936.766	2121.812
-27.852	32.546	1935.114	2119.718
-26.838	32.626	1932.704	2117.900
-25.823	32.479	1932.838	2116.300
-24.809	32.452	1931.240	2114.162
-23.794	32.574	1929.951	2114.040
-22.779	32.454	1929.289	2111.877
-21.765	32.539	1927.030	2110.281
-20.750	32.501	1925.896	2108.526
-19.736	32.449	1924.878	2106.743
-18.721	32.412	1924.066	2105.357
-17.706	32.516	1922.373	2104.586
-16.692	32.449	1921.301	2102.586
-15.677	32.495	1920.160	2101.763
-14.663	32.375	1919.381	2099.482
-13.648	32.499	1917.604	2098.845
-12.633	32.344	1916.435	2095.743
-11.619	32.382	1915.395	2094.951
-10.604	32.402	1914.254	2093.843
-9.590	32.434	1912.986	2092.733
-8.575	32.327	1911.453	2089.779
-7.560	32.381	1909.661	2088.340
-6.546	32.445	1908.780	2088.009
-5.531	32.366	1907.692	2085.850
-4.517	32.320	1907.103	2084.613
-3.502	32.366	1905.924	2083.748
-2.487	32.472	1903.977	2082.719
-1.473	32.537	1900.566	2079.625
-0.458	32.432	1881.039	2057.022
0.556	28.909	2018.956	2153.544
1.571	27.402	2233.819	2362.807
2.586	28.680	2278.458	2426.720
3.600	28.663	2281.203	2429.131
4.615	28.684	2280.261	2428.123
5.629	28.800	2278.759	2427.774
6.644	28.845	2276.611	2425.789
7.659	28.727	2275.086	2422.309
8.673	28.657	2273.931	2419.860
9.688	28.351	2278.998	2420.891
10.702	26.520	2356.135	2477.362
11.717	23.769	2420.350	2505.643
12.731	11.981	2388.881	2306.863
13.746	1.824	2361.666	2137.617
14.761	0.319	2357.463	2112.375
15.775	0.259	2355.382	2109.411
16.790	0.270	2352.976	2107.155
17.804	0.198	2351.634	2104.687
18.819	0.196	2350.446	2103.355
19.834	0.135	2348.622	2100.613
20.848	0.186	2347.737	2100.280
21.863	0.142	2346.470	2098.278
22.877	0.245	2343.391	2096.718
23.892	0.124	2342.637	2094.099
24.907	0.147	2339.076	2090.986
25.921	0.167	2338.283	2090.301
26.936	0.192	2335.271	2087.705
27.950	0.239	2332.703	2085.826
28.965	0.156	2331.119	2082.997
29.980	0.276	2329.300	2082.799
30.994	0.312	2327.677	2081.590
32.009	6.454	2349.406	2186.647
33.023	21.060	2393.523	2433.705
34.038	28.284	2407.746	2549.382
35.053	29.502	2409.252	2567.705
36.067	29.782	2407.085	2569.001
37.082	29.426	2404.949	2561.449
38.096	29.353	2402.365	2557.377
39.111	29.705	2400.553	2560.045
40.126	29.940	2399.591	2561.981
41.140	30.293	2397.946	2564.820
42.155	29.645	2394.882	2552.242
43.169	29.341	2392.783	2545.484
44.184	29.455	2388.858	2542.587
45.199	29.316	2386.453	2537.792
46.213	29.092	2385.437	2533.306
47.228	28.971	2384.290	2530.124
48.242	28.911	2382.003	2526.555
49.257	29.030	2380.721	2526.536
50.271	29.288	2379.094	2528.065
51.286	29.420	2376.107	2526.402
52.301	29.271	2373.605	2521.391
53.315	28.865	2371.898	2513.697
54.330	28.617	2370.208	2508.203
55.344	28.577	2365.462	2502.333
56.359	28.525	2363.162	2498.892
57.374	28.526	2361.390	2496.726
58.388	28.428	2358.457	2491.987
59.403	28.337	2354.465	2486.231
60.417	28.247	2351.522	2481.603
61.432	28.376	2350.283	2481.761
62.447	28.227	2348.067	2477.096
63.461	28.281	2345.395	2474.708
64.476	28.218	2343.734	2471.807
65.490	28.493	2343.187	2474.658
66.505	28.945	2343.409	2480.726
67.520	28.916	2342.893	2479.495
68.534	28.648	2339.025	2471.476
69.549	28.736	2336.107	2469.293
70.563	29.088	2333.835	2471.343
71.578	28.993	2333.313	2469.213
72.593	29.182	2331.998	2470.071
73.607	29.432	2330.167	2471.205
74.622	29.270	2327.921	2466.350
75.636	29.014	2324.625	2459.127
76.651	29.059	2323.433	2458.171
77.666	29.226	2322.202	2458.812
78.680	29.206	2318.733	2454.575
79.695	29.284	2317.246	2453.753
80.709	29.285	2316.525	2452.715
81.724	29.486	2314.133	2452.564
82.739	29.603	2312.003	2451.580
83.753	29.608	2310.081	2449.314
84.768	29.380	2308.164	2443.950
85.782	29.242	2306.158	2439.699
86.797	29.213	2304.145	2436.888
87.812	29.049	2300.641	2430.713
88.826	28.823	2300.306	2427.068
89.841	28.958	2297.878	2426.010
90.855	29.309	2295.269	2427.613
91.870	28.813	2293.230	2418.613
92.884	28.782	2291.453	2416.036
93.899	28.956	2290.392	2416.924
94.914	28.731	2289.359	2412.578
95.928	28.162	2286.654	2401.925
96.943	27.904	2283.956	2395.404
97.957	28.406	2283.506	2401.261
98.972	28.773	2282.223	2404.454
99.987	28.617	2278.377	2398.062
101.001	28.576	2277.208	2396.002
102.016	28.820	2274.599	2396.178
103.030	28.822	2272.830	2394.051
104.045	29.063	2270.979	2394.968
105.060	29.414	2269.049	2397.231
106.074	29.351	2267.356	2394.336
107.089	29.190	2264.442	2388.870
108.103	29.141	2264.787	2388.314
109.118	29.272	2264.545	2389.472
110.133	29.413	2261.595	2387.912
111.147	29.377	2258.999	2384.418
112.162	29.244	2257.482	2380.801
113.176	29.194	2254.378	2376.593
114.191	29.174	2252.115	2373.675
115.206	29.065	2250.345	2370.102
116.220	29.121	2249.878	2370.061
117.235	29.039	2247.343	2366.045
118.249	28.970	2244.994	2362.393
119.264	29.219	2244.587	2364.893
120.279	29.367	2243.256	2365.121
121.293	29.374	2240.007	2361.499
122.308	29.167	2239.175	2357.685
123.322	29.064	2237.237	2354.030
124.337	28.604	2235.540	2346.058
125.352	28.459	2234.345	2342.652
126.366	28.668	2233.400	2344.076
127.381	28.968	2230.690	2344.795
128.395	29.236	2228.379	2345.512
129.410	29.377	2226.916	2345.491
130.424	29.457	2225.459	2344.702
131.439	29.367	2223.785	2341.505
132.454	29.173	2221.321	2336.157
133.468	29.229	2218.763	2333.899
134.483	29.196	2217.078	2331.433
135.497	29.265	2215.902	2330.784
136.512	29.352	2214.465	2330.104
137.527	29.271	2212.419	2326.643
138.541	29.137	2211.197	2323.380
139.556	29.111	2210.348	2321.883
140.570	29.202	2208.499	2320.809
141.585	29.324	2206.189	2319.650
142.600	29.301	2205.019	2317.853
143.614	29.208	2203.445	2314.745
144.629	29.360	2202.028	2314.902
145.643	29.283	2200.919	2312.486
146.658	29.174	2198.492	2308.284
147.673	28.826	2195.939	2300.951
148.687	28.935	2194.577	2300.615
149.702	29.029	2194.240	2301.173
150.716	28.941	2192.525	2297.988
151.731	29.251	2191.030	2300.037
152.746	29.267	2189.936	2298.812
153.760	28.797	2187.672	2290.274
154.775	28.196	2185.674	2280.387
155.789	27.892	2184.210	2274.786
156.804	28.115	2181.039	2273.992
157.819	28.539	2177.336	2275.149
158.833	28.795	2176.271	2276.958
159.848	29.293	2175.439	2282.003
160.862	29.404	2174.387	2282.016
161.877	29.522	2174.363	2283.182
162.892	29.745	2173.981	2285.283
163.906	30.076	2172.761	2287.828
164.921	29.902	2171.286	2283.843
165.935	29.863	2168.775	2280.449
166.950	29.724	2166.371	2275.932
167.964	29.463	2163.618	2269.540
168.979	29.461	2161.449	2266.960
169.994	29.575	2159.743	2266.305
171.008	29.410	2158.860	2263.074
172.023	29.354	2156.476	2259.615
173.037	29.513	2156.732	2261.577
174.052	29.545	2154.198	2259.040
175.067	29.507	2152.497	2256.522
176.081	29.457	2151.488	2254.578
177.096	29.402	2150.486	2252.581
178.110	29.364	2147.511	2248.725
179.125	29.313	2146.898	2247.192
180.140	29.409	2146.510	2247.693
181.154	29.550	2144.671	2247.227
182.169	29.291	2142.607	2241.629
183.183	29.000	2139.697	2234.769
184.198	28.542	2137.099	2226.199
185.213	28.333	2136.255	2222.500
186.227	28.922	2136.102	2229.262
187.242	29.191	2134.501	2230.591
188.256	29.170	2131.910	2227.360
189.271	29.424	2131.770	2230.036
190.286	29.524	2130.122	2229.257
191.300	29.286	2126.935	2222.773
192.315	29.217	2124.899	2219.545
193.329	29.437	2124.240	2221.251
194.344	29.697	2123.841	2223.709
195.359	29.865	2122.723	2224.302
196.373	29.924	2121.389	2223.358
197.388	29.835	2117.776	2218.225
198.402	29.609	2116.197	2213.593
199.417	29.498	2114.144	2209.841
200.432	29.619	2111.900	2208.690
201.446	29.588	2110.616	2206.706
202.461	29.380	2108.560	2201.798
203.475	29.139	2105.915	2195.884
204.490	29.052	2105.152	2193.779
205.504	29.264	2102.271	2193.057
206.519	29.147	2099.918	2188.938
207.534	29.365	2099.455	2190.794
208.548	29.382	2097.317	2188.508
209.563	28.818	2095.053	2179.167
210.577	28.842	2093.727	2177.811
211.592	29.148	2093.865	2181.327
212.607	28.781	2091.987	2174.752
213.621	27.841	2088.012	2159.186
214.636	27.648	2087.064	2155.663
215.650	28.367	2086.751	2163.615
216.665	29.010	2085.252	2169.430
217.680	29.384	2084.773	2173.102
218.694	29.577	2083.959	2174.274
219.709	29.422	2081.911	2170.042
220.723	29.515	2080.973	2169.901
221.738	29.831	2079.965	2172.321
222.753	29.696	2077.711	2168.121
223.767	29.483	2075.915	2163.475
224.782	29.388	2073.108	2159.175
225.796	29.378	2071.709	2157.339
226.811	29.777	2071.155	2161.192
227.826	29.849	2070.778	2161.391
228.840	29.848	2068.145	2158.364
229.855	29.617	2066.446	2153.634
230.869	29.417	2064.223	2148.714
231.884	29.203	2062.608	2144.274
232.899	29.259	2061.218	2143.221
233.913	29.445	2060.212	2144.098
234.928	29.528	2060.284	2144.884
235.942	29.651	2057.873	2143.554
236.957	29.433	2055.981	2138.783
237.972	29.299	2055.348	2136.305
238.986	29.360	2053.792	2135.139
240.001	29.218	2051.034	2130.375
241.015	29.155	2049.131	2127.406
242.030	28.943	2048.348	2123.877
243.045	28.654	2046.555	2118.417
244.059	28.601	2044.497	2115.422
245.074	29.073	2043.519	2119.613
246.088	29.247	2040.631	2118.380
247.103	29.341	2039.023	2117.536
248.117	29.417	2038.196	2117.304
249.132	29.399	2036.366	2114.939
250.147	29.246	2033.564	2110.024
251.161	29.038	2033.045	2106.837
252.176	29.257	2031.437	2107.434
253.190	29.316	2028.717	2105.043
254.205	29.328	2026.226	2102.334
255.220	29.411	2026.523	2103.340
256.234	29.414	2025.521	2102.087
257.249	29.304	2023.833	2098.831
258.263	29.450	2024.186	2100.609
259.278	29.709	2023.479	2102.585
260.293	29.692	2021.640	2100.229
261.307	29.562	2019.731	2096.515
262.322	29.588	2016.864	2093.578
263.336	29.236	2014.548	2086.926
264.351	29.064	2013.175	2083.296
265.366	29.171	2012.282	2083.338
266.380	29.252	2010.695	2082.366
267.395	29.010	2009.364	2077.990
268.409	28.953	2007.894	2075.577
269.424	29.211	2007.163	2077.493
270.439	29.372	2006.027	2077.893
271.453	29.154	2003.465	2072.528
272.468	28.347	1999.556	2059.125
273.482	28.042	1997.220	2053.026
274.497	28.522	1995.748	2056.677
275.512	28.989	1995.010	2060.935
276.526	29.120	1992.976	2060.056
277.541	29.086	1991.092	2057.482
278.555	29.073	1989.230	2055.166
279.570	28.891	1987.487	2051.082
280.585	28.934	1986.114	2049.893
281.599	28.983	1985.126	2049.187
282.614	29.391	1984.493	2052.847
283.628	29.577	1983.737	2053.900
284.643	28.756	1981.001	2041.651
285.657	27.079	1975.014	2016.542
286.672	25.961	1970.444	1999.186
287.687	25.631	1968.385	1993.179
288.701	26.448	1968.566	2002.214
289.716	26.995	1968.374	2007.870
290.730	26.644	1964.733	2000.022
291.745	26.710	1964.863	2000.646
292.760	27.893	1967.630	2016.356
293.774	28.725	1969.175	2026.937
294.789	29.255	1969.599	2033.009
295.803	29.479	1967.150	2032.712
296.818	29.294	1966.305	2029.554
297.833	29.294	1965.048	2028.014
298.847	29.322	1963.847	2026.837
299.862	29.517	1961.818	2026.650
300.876	29.122	1959.574	2019.734
301.891	28.655	1957.726	2012.449
302.906	28.480	1956.896	2009.430
303.920	29.134	1956.274	2015.742
304.935	29.455	1954.660	2017.365
305.949	29.619	1952.009	2016.190
306.964	29.637	1950.457	2014.538
307.979	28.689	1944.763	1998.053
308.993	26.020	1937.471	1961.206
310.008	24.618	1933.168	1941.310
311.022	24.795	1932.132	1941.972
312.037	25.109	1930.982	1944.007
313.052	24.824	1928.729	1938.398
314.066	24.382	1926.037	1930.653
315.081	24.364	1925.376	1929.564
316.095	24.492	1923.789	1929.131
317.110	24.652	1923.118	1929.967
318.125	24.780	1921.574	1929.580
319.139	24.815	1920.369	1928.511
320.154	24.886	1919.260	1927.941
321.168	25.309	1919.568	1932.597
322.183	27.348	1923.889	1958.796
323.197	29.256	1926.888	1982.266
324.212	29.557	1924.804	1983.135
325.227	29.309	1922.408	1977.764
326.241	29.171	1921.966	1975.581
327.256	29.309	1921.162	1976.009
328.270	29.359	1919.750	1974.859
329.285	29.262	1919.810	1973.632
330.300	28.922	1918.410	1968.299
331.314	28.061	1914.169	1954.470
332.329	28.019	1912.333	1951.912
333.343	28.844	1911.879	1960.059
334.358	29.292	1911.472	1964.211
335.373	29.528	1910.712	1965.721
336.387	29.505	1908.860	1963.330
337.402	29.523	1906.104	1960.449
338.416	29.508	1904.560	1958.468
339.431	29.503	1904.148	1957.760
340.446	29.742	1900.331	1956.147
341.460	27.542	1893.986	1926.036
342.475	25.664	1888.008	1899.812
343.489	25.086	1884.996	1890.432
344.504	24.737	1884.034	1885.542
345.519	24.807	1882.092	1884.112
346.533	24.452	1880.750	1878.784
347.548	24.623	1879.352	1878.975
348.562	24.595	1877.294	1876.401
349.577	24.479	1876.693	1874.343
350.592	24.790	1876.069	1876.779
351.606	25.062	1874.956	1878.303
352.621	24.894	1873.233	1874.586
353.635	24.838	1871.931	1872.468
354.650	25.297	1872.424	1877.573
355.665	27.430	1876.738	1904.121
356.679	28.944	1879.095	1922.198
357.694	29.271	1878.892	1925.197
358.708	29.556	1877.360	1926.385
359.723	29.302	1876.122	1922.223
360.738	28.480	1872.310	1909.487
361.752	28.281	1871.240	1906.085
362.767	29.218	1869.792	1914.174
363.781	29.593	1869.084	1917.131
364.796	29.628	1868.381	1916.546
365.810	29.515	1865.443	1912.130
366.825	28.034	1859.865	1890.798
367.840	25.680	1854.334	1860.516
368.854	24.801	1850.960	1847.788
369.869	24.818	1848.957	1845.741
370.883	24.938	1847.172	1844.984
371.898	24.872	1847.534	1844.445
372.913	24.815	1845.627	1841.721
373.927	24.578	1843.636	1837.066
374.942	24.550	1842.543	1835.475
375.956	24.926	1842.071	1838.657
376.971	24.980	1840.296	1837.225
377.986	24.611	1838.372	1831.289
379.000	24.759	1836.348	1830.575
380.015	25.003	1837.013	1833.531
381.029	27.057	1840.078	1857.503
382.044	29.005	1843.503	1880.782
383.059	29.574	1842.511	1885.385
384.073	29.354	1841.583	1881.956
385.088	29.248	1840.535	1879.571
386.102	29.267	1839.481	1878.457
387.117	29.462	1837.775	1878.486
388.132	29.411	1837.143	1877.101
389.146	29.100	1835.889	1872.410
390.161	28.227	1832.447	1859.767
391.175	28.091	1829.016	1854.677
392.190	28.882	1826.988	1860.449
393.205	29.208	1826.699	1863.240
394.219	29.514	1825.164	1864.562
395.234	29.335	1823.704	1861.037
396.248	29.130	1822.095	1857.090
397.263	29.098	1819.243	1853.639
398.278	28.882	1818.251	1850.219
399.292	28.729	1816.689	1846.864
400.307	28.001	1812.840	1835.387
401.321	25.718	1806.423	1805.681
402.336	24.825	1802.457	1792.510
403.350	24.818	1800.908	1790.680
404.365	25.240	1801.535	1795.336
405.380	25.342	1799.683	1794.299
406.394	24.949	1797.543	1788.014
407.409	24.730	1796.148	1784.211
408.423	24.883	1794.812	1784.209
409.438	24.913	1792.991	1782.477
410.453	24.833	1792.748	1781.229
411.467	24.921	1791.353	1780.505
412.482	25.306	1792.862	1785.645
413.496	27.707	1796.930	1813.504
414.511	29.316	1797.941	1830.381
415.526	29.579	1795.959	1830.769
416.540	29.902	1795.222	1833.007
417.555	29.807	1794.768	1831.378
418.569	29.530	1793.073	1826.680
419.584	29.532	1793.554	1826.971
420.599	29.535	1793.324	1826.549
421.613	29.603	1791.121	1824.764
422.628	29.565	1789.642	1822.663
423.642	29.709	1788.859	1823.072
424.657	29.620	1786.725	1819.794
425.672	29.400	1784.203	1814.840
426.686	29.606	1783.604	1816.047
427.701	29.592	1782.961	1815.033
428.715	29.840	1781.495	1815.768
429.730	30.139	1780.624	1817.616
430.745	30.364	1780.564	1819.547
431.759	30.057	1779.380	1815.104
432.774	29.396	1775.930	1804.865
433.788	27.697	1770.876	1782.837
434.803	26.765	1768.120	1770.707
435.818	26.562	1767.632	1768.009
436.832	26.649	1766.853	1767.875
437.847	25.675	1759.083	1750.371
438.861	15.800	1731.234	1626.951
439.876	3.402	1707.389	1484.878
440.890	0.492	1701.796	1451.718
441.905	0.333	1700.373	1448.799
442.920	0.319	1698.701	1447.068
443.934	0.183	1698.048	1445.023
444.949	0.280	1696.209	1444.214
445.963	0.232	1695.886	1443.310
446.978	0.227	1695.195	1442.501
447.993	0.136	1694.235	1440.630
449.007	0.171	1691.776	1438.710
450.022	0.273	1689.205	1437.330
451.036	0.307	1687.958	1436.416
452.051	1.501	1695.236	1453.920
453.066	12.728	1721.823	1585.701
454.080	24.161	1740.125	1713.566
455.095	26.779	1744.192	1742.701
456.109	27.633	1745.460	1752.008
457.124	27.883	1744.377	1753.123
458.139	27.938	1743.766	1752.833
459.153	28.102	1743.852	1754.290
460.168	28.105	1741.743	1751.984
461.182	28.237	1739.508	1750.794
462.197	28.384	1737.734	1750.214
463.212	28.340	1736.286	1748.127
464.226	28.194	1735.449	1745.674
465.241	28.382	1735.224	1747.034
466.255	28.526	1733.804	1746.779
467.270	28.416	1732.290	1743.995
468.285	28.543	1730.784	1743.483
469.299	28.689	1729.145	1743.015
470.314	28.756	1728.342	1742.635
471.328	28.713	1727.252	1740.914
472.343	28.756	1726.663	1740.525
473.358	28.660	1725.062	1737.785
474.372	28.573	1723.510	1735.193
475.387	28.456	1722.299	1732.647
476.401	28.391	1720.075	1729.587
477.416	27.919	1718.904	1723.731
478.430	27.881	1717.687	1721.943
479.445	28.129	1716.516	1722.908
480.460	28.229	1715.319	1722.451
481.474	28.466	1713.808	1722.969
482.489	28.412	1712.868	1721.304
483.503	28.409	1710.787	1718.981
484.518	28.402	1709.754	1717.667
485.533	28.522	1707.823	1716.652
486.547	28.214	1705.211	1710.932
487.562	27.963	1704.557	1707.713
488.576	28.230	1703.541	1708.990
489.591	28.437	1702.740	1709.925
490.606	28.431	1702.021	1708.941
491.620	28.510	1700.585	1708.038
492.635	28.456	1698.734	1705.470
493.649	28.225	1696.622	1700.987
494.664	28.119	1696.447	1699.620
495.679	28.372	1694.967	1700.292
496.693	28.464	1694.331	1700.312
497.708	28.657	1692.627	1700.193
498.722	28.615	1692.079	1699.044
499.737	28.845	1690.107	1698.998
500.752	28.765	1689.191	1697.129
501.766	28.738	1687.253	1694.734
502.781	28.806	1686.467	1694.366
503.795	28.856	1685.195	1693.348
504.810	28.860	1683.555	1691.537
505.825	28.784	1682.749	1689.820
506.839	28.703	1680.783	1686.903
507.854	28.675	1679.634	1685.285
508.868	28.531	1678.203	1682.323
509.883	28.490	1677.246	1680.786
510.898	28.394	1676.200	1678.646
511.912	28.344	1674.111	1675.900
512.927	28.344	1671.274	1672.857
513.941	28.103	1670.753	1669.921
514.956	28.158	1668.620	1668.091
515.971	28.054	1667.749	1666.070
516.985	28.017	1666.751	1664.539
518.000	28.196	1666.274	1665.500
519.014	28.315	1665.970	1666.083
520.029	28.399	1664.118	1664.801
521.043	28.434	1661.619	1662.420
522.058	28.391	1660.799	1661.011
523.073	28.375	1660.854	1660.718
524.087	28.566	1659.188	1660.596
525.102	28.473	1658.077	1658.439
526.116	28.556	1656.720	1657.629
527.131	28.595	1655.606	1656.672
528.146	28.706	1654.735	1656.610
529.160	28.658	1653.957	1655.200
530.175	28.815	1653.033	1655.500
531.189	28.905	1651.744	1654.823
532.204	28.760	1650.607	1652.174
533.219	28.760	1649.025	1650.392
534.233	28.523	1647.877	1646.905
535.248	28.369	1646.970	1644.418
536.262	28.248	1646.022	1642.179
537.277	28.427	1644.481	1642.059
538.292	28.457	1642.099	1639.758
539.306	28.474	1640.343	1637.960
540.321	28.316	1638.454	1634.459
541.335	27.921	1637.007	1629.281
542.350	28.238	1635.611	1630.537
543.365	28.502	1634.976	1632.066
544.379	28.650	1634.090	1632.307
545.394	28.585	1632.518	1629.962
546.408	28.410	1631.209	1626.898
547.423	28.495	1630.677	1626.936
548.438	28.613	1630.435	1627.547
549.452	28.695	1629.055	1626.709
550.467	28.570	1627.143	1623.493
551.481	28.701	1625.988	1623.309
552.496	28.709	1625.497	1622.694
553.511	28.728	1624.536	1621.709
554.525	28.788	1623.527	1621.038
555.540	28.706	1623.117	1619.706
556.554	28.895	1621.545	1619.617
557.569	28.824	1619.289	1616.550
558.583	28.668	1617.313	1613.001
559.598	28.592	1616.859	1611.685
560.613	28.713	1615.637	1611.339
561.627	28.634	1613.982	1608.801
562.642	28.452	1613.091	1606.118
563.656	28.646	1610.993	1605.541
564.671	28.645	1609.880	1604.236
565.686	28.435	1609.139	1601.462
566.700	28.382	1607.469	1599.144
567.715	28.421	1605.936	1597.766
568.729	28.318	1604.426	1595.169
569.744	28.090	1602.771	1591.342
570.759	28.276	1601.016	1591.036
571.773	28.494	1600.534	1592.268
572.788	28.494	1600.206	1591.746
573.802	28.585	1598.821	1590.972
574.817	28.651	1596.545	1589.092
575.832	28.640	1595.311	1587.576
576.846	28.598	1594.760	1586.474
577.861	28.543	1593.714	1584.770
578.875	28.718	1592.695	1585.086
579.890	28.900	1591.795	1585.572
580.905	28.928	1590.282	1584.123
581.919	28.937	1590.735	1584.461
582.934	29.043	1590.275	1584.734
583.948	29.067	1587.735	1582.213
584.963	28.863	1586.219	1578.754
585.978	28.623	1585.055	1575.334
586.992	28.390	1583.704	1571.796
588.007	28.657	1583.227	1573.435
589.021	28.149	1581.278	1566.937
590.036	27.704	1578.843	1560.517
591.051	27.815	1578.666	1561.106
592.065	28.296	1577.231	1563.628
593.080	28.612	1575.683	1564.618
594.094	28.742	1573.835	1563.706
595.109	28.608	1572.235	1560.784
596.123	28.715	1571.445	1560.724
597.138	28.916	1570.808	1561.625
598.153	28.882	1569.116	1559.465
599.167	28.751	1567.023	1556.084
600.182	28.573	1566.445	1553.809
601.196	28.793	1566.650	1555.698
602.211	28.855	1565.318	1554.715
603.226	28.841	1564.030	1553.132
604.240	28.990	1562.723	1552.913
605.255	29.090	1561.768	1552.623
606.269	29.010	1560.580	1550.583
607.284	29.029	1559.202	1549.184
608.299	28.880	1558.251	1546.797
609.313	28.571	1557.298	1543.050
610.328	28.725	1555.488	1542.371
611.342	28.997	1553.409	1542.425
612.357	28.888	1553.040	1540.953
613.372	28.964	1552.532	1540.903
614.386	28.808	1550.930	1537.816
615.401	28.913	1549.566	1537.161
616.415	28.898	1549.082	1536.370
617.430	28.802	1548.457	1534.766
618.445	28.868	1546.794	1533.488
619.459	28.809	1546.015	1532.032
620.474	28.734	1544.961	1530.174
621.488	28.540	1543.948	1527.365
622.503	28.300	1541.741	1522.998
623.518	28.444	1541.082	1523.364
624.532	28.850	1539.925	1525.430
625.547	28.797	1539.519	1524.403
626.561	28.922	1538.669	1524.418
627.576	29.051	1537.825	1524.476
628.591	28.689	1536.188	1519.655
629.605	28.692	1534.438	1517.770
630.620	28.562	1533.148	1515.234
631.634	28.332	1531.721	1511.733
632.649	28.508	1530.556	1511.861
633.663	28.710	1529.376	1512.186
634.678	28.901	1529.647	1513.852
635.693	29.085	1527.678	1513.242
636.707	29.131	1526.253	1512.035
637.722	29.097	1525.113	1510.444
638.736	29.222	1523.937	1510.128
639.751	29.220	1522.276	1508.279
640.766	29.081	1521.431	1506.121
641.780	29.193	1519.715	1505.162
642.795	29.093	1518.808	1503.266
643.809	29.119	1518.462	1502.955
644.824	29.149	1517.785	1502.348
645.839	29.056	1516.777	1500.409
646.853	29.161	1515.726	1500.047
647.868	29.110	1513.539	1497.292
648.882	28.901	1512.336	1494.211
649.897	28.877	1510.900	1492.418
650.912	28.884	1509.348	1490.765
651.926	28.961	1507.946	1489.827
652.941	28.657	1507.418	1486.653
653.955	28.229	1505.233	1480.843
654.970	27.909	1502.266	1475.149
655.985	27.775	1500.816	1472.459
656.999	27.838	1499.584	1471.588
658.014	28.034	1498.674	1472.105
659.028	28.230	1498.837	1473.677
660.043	28.525	1498.783	1475.832
661.058	28.930	1496.775	1476.946
662.072	29.061	1495.882	1476.947
663.087	28.867	1494.954	1474.293
664.101	28.648	1494.336	1471.742
665.116	28.778	1493.434	1471.722
666.131	29.033	1492.859	1473.032
667.145	29.114	1491.311	1471.979
668.160	29.142	1489.911	1470.642
669.174	29.210	1488.868	1469.987
670.189	29.318	1488.302	1470.113
671.204	29.164	1487.546	1467.957
672.218	29.032	1486.362	1465.560
673.233	29.197	1485.967	1466.310
674.247	29.372	1484.648	1466.232
675.262	29.438	1483.225	1465.185
676.276	29.305	1481.773	1462.515
677.291	29.385	1480.472	1461.689
678.306	29.195	1479.755	1459.298
679.320	29.134	1477.881	1456.788
680.335	29.125	1477.539	1456.201
681.349	29.197	1477.123	1456.194
682.364	29.279	1475.858	1455.418
683.379	29.244	1473.904	1453.043
684.393	29.143	1472.748	1450.930
685.408	29.276	1471.461	1450.540
686.422	29.103	1470.683	1448.234
687.437	29.061	1470.438	1447.486
688.452	29.131	1470.108	1447.543
689.466	29.223	1467.890	1445.909
690.481	29.277	1466.466	1444.759
691.495	29.203	1464.709	1442.275
692.510	28.859	1463.417	1438.121
693.525	28.685	1461.389	1434.594
694.539	28.951	1460.921	1436.045
695.554	28.913	1461.396	1436.047
696.568	29.304	1460.638	1438.195
697.583	29.139	1459.786	1435.893
698.598	29.425	1458.983	1437.168
699.612	29.321	1457.103	1434.329
700.627	29.451	1455.797	1433.886
701.641	29.425	1455.145	1432.871
702.656	29.352	1454.408	1431.404
703.671	29.385	1454.140	1431.224
704.685	29.525	1453.371	1431.389
705.700	29.395	1451.060	1427.933
706.714	29.229	1449.262	1424.704
707.729	28.967	1447.550	1420.810
708.744	29.036	1446.979	1420.622
709.758	28.814	1445.807	1417.580
710.773	28.450	1443.259	1412.088
711.787	28.299	1441.964	1409.485
712.802	28.712	1440.811	1411.384
713.816	28.906	1440.846	1412.750
714.831	28.996	1440.548	1412.983
715.846	29.300	1439.194	1413.828
716.860	29.375	1437.528	1412.596
717.875	29.341	1436.568	1411.226
718.889	29.211	1435.709	1409.213
719.904	29.301	1433.739	1407.798
720.919	29.287	1433.479	1407.271
721.933	29.233	1432.676	1405.895
722.948	29.149	1432.089	1404.512
723.962	29.237	1431.284	1404.226
724.977	29.372	1429.773	1403.611
725.992	29.411	1429.344	1403.315
727.006	29.518	1427.440	1402.096
728.021	29.441	1426.103	1400.030
729.035	29.397	1425.004	1398.444
730.050	29.559	1423.703	1398.240
731.065	29.531	1422.859	1397.031
732.079	29.413	1422.254	1395.366
733.094	29.550	1420.222	1394.244
734.108	29.510	1418.540	1392.129
735.123	29.591	1417.113	1391.175
736.138	29.295	1417.112	1388.762
737.152	29.430	1416.169	1388.695
738.167	29.524	1415.027	1388.122
739.181	29.618	1414.165	1387.820
740.196	29.608	1413.324	1386.750
741.211	29.647	1412.091	1385.671
742.225	29.553	1411.390	1384.109
743.240	29.601	1409.528	1382.474
744.254	29.606	1408.057	1380.905
745.269	29.380	1407.131	1378.136
746.284	29.370	1406.885	1377.654
747.298	29.311	1405.855	1376.037
748.313	29.460	1404.418	1375.586
749.327	29.145	1403.302	1371.966
750.342	28.832	1402.112	1368.301
751.356	28.684	1400.596	1365.551
752.371	28.807	1399.977	1365.702
753.386	28.998	1399.782	1366.773
754.400	29.485	1398.828	1369.313
755.415	29.586	1397.943	1369.034
756.429	29.747	1396.335	1368.495
757.444	29.593	1395.444	1366.309
758.459	29.691	1393.858	1365.321
759.473	29.644	1393.792	1364.748
760.488	29.454	1392.196	1361.609
761.502	29.543	1390.297	1360.247
762.517	29.718	1388.977	1360.089
763.532	29.441	1388.117	1357.034
764.546	29.272	1386.541	1354.086
765.561	28.751	1384.328	1347.920
766.575	28.113	1382.845	1341.611
767.590	28.090	1382.209	1340.666
768.605	28.671	1382.303	1344.877
769.619	29.147	1381.574	1347.505
770.634	29.205	1380.967	1347.181
771.648	29.418	1380.077	1347.716
772.663	29.457	1378.673	1346.470
773.678	29.671	1378.062	1347.277
774.692	29.814	1376.988	1347.112
775.707	29.741	1377.043	1346.471
776.721	29.648	1376.520	1345.116
777.736	29.659	1374.998	1343.549
778.751	29.607	1373.981	1342.019
779.765	29.749	1372.577	1341.525
780.780	29.686	1371.911	1340.247
781.794	29.631	1371.286	1339.081
782.809	29.661	1369.887	1337.773
783.824	29.586	1368.292	1335.507
784.838	29.222	1367.396	1331.830
785.853	28.964	1366.046	1328.485
786.867	29.154	1365.336	1329.014
787.882	29.218	1365.142	1329.127
788.897	29.221	1364.219	1328.091
789.911	29.368	1363.579	1328.371
790.926	29.501	1361.972	1327.613
791.940	29.580	1360.573	1326.662
792.955	29.582	1359.546	1325.514
793.969	29.540	1358.104	1323.647
794.984	29.585	1357.678	1323.399
795.999	29.578	1357.588	1323.099
797.013	29.647	1355.238	1321.144
798.028	29.634	1354.140	1319.827
799.042	29.668	1353.548	1319.331
800.057	29.690	1352.390	1318.205
801.072	29.767	1350.450	1316.708
802.086	29.760	1349.069	1315.152
803.101	29.659	1348.655	1313.870
804.115	29.769	1347.516	1313.389
805.130	29.696	1346.626	1311.845
806.145	29.647	1344.922	1309.675
807.159	29.488	1343.630	1307.128
808.174	29.460	1342.729	1305.902
809.188	29.590	1341.026	1305.011
810.203	29.428	1339.764	1302.474
811.218	29.271	1337.963	1299.459
812.232	28.692	1336.502	1293.784
813.247	28.371	1335.355	1290.245
814.261	28.924	1335.200	1293.852
815.276	29.375	1334.768	1296.467
816.291	29.380	1334.115	1295.710
817.305	29.509	1332.999	1295.384
818.320	29.627	1331.619	1294.717
819.334	29.711	1330.844	1294.401
820.349	29.667	1330.046	1293.164
821.364	29.632	1328.995	1291.738
822.378	29.690	1326.966	1290.019
823.393	29.758	1325.003	1288.432
824.407	29.826	1323.865	1287.647
825.422	29.558	1324.317	1286.058
826.437	29.581	1323.188	1284.965
827.451	29.568	1321.179	1282.770
828.466	29.309	1319.315	1279.005
829.480	29.270	1317.619	1276.934
830.495	29.305	1316.391	1275.837
831.509	29.450	1315.334	1275.667
832.524	29.627	1314.608	1276.038
833.539	29.592	1313.952	1275.005
834.553	29.754	1312.446	1274.513
835.568	29.771	1310.662	1272.745
836.582	29.825	1309.955	1272.279
837.597	29.832	1308.923	1271.175
838.612	29.780	1307.186	1268.981
839.626	29.607	1306.342	1266.813
840.641	29.492	1305.570	1265.122
841.655	29.002	1304.186	1260.260
842.670	28.662	1302.165	1255.815
843.685	28.151	1300.868	1250.904
844.699	28.781	1300.521	1254.746
845.714	29.134	1300.084	1256.597
846.728	29.280	1299.609	1256.984
847.743	29.239	1298.605	1255.587
848.758	29.350	1297.595	1255.218
849.772	29.598	1296.340	1255.548
850.787	29.593	1295.129	1254.194
851.801	29.514	1294.288	1252.687
852.816	29.542	1292.806	1251.292
853.831	29.705	1290.599	1250.120
854.845	29.592	1289.391	1248.026
855.860	29.406	1287.941	1245.212
856.874	29.292	1286.585	1242.983
857.889	29.512	1284.783	1242.582
858.904	29.263	1284.089	1240.081
859.918	29.189	1282.388	1237.786
860.933	28.959	1280.915	1234.666
861.947	29.016	1280.473	1234.475
862.962	29.262	1279.745	1235.285
863.977	29.281	1278.115	1233.688
864.991	29.295	1277.886	1233.415
866.006	29.318	1277.988	1233.519
867.020	29.450	1276.568	1232.890
868.035	29.334	1275.321	1230.757
869.049	29.537	1274.591	1231.270
870.064	29.662	1273.481	1230.884
871.079	29.497	1273.194	1229.354
872.093	29.454	1271.847	1227.619
873.108	29.429	1270.382	1225.891
874.122	29.271	1268.630	1223.003
875.137	28.973	1267.406	1219.691
876.152	28.829	1266.792	1217.993
877.166	29.138	1265.116	1218.289
878.181	29.211	1263.947	1217.503
879.195	29.324	1263.465	1217.646
880.210	29.312	1263.169	1217.132
881.225	29.582	1262.326	1217.969
882.239	29.615	1260.404	1216.183
883.254	29.500	1260.204	1215.084
884.268	29.516	1259.659	1214.521
885.283	29.695	1258.295	1214.239
886.298	29.608	1257.285	1212.548
887.312	29.424	1255.775	1209.732
888.327	29.359	1255.348	1208.750
889.341	29.359	1253.741	1207.057
890.356	29.319	1252.673	1205.623
891.371	29.516	1252.222	1206.340
892.385	29.457	1251.225	1204.848
893.400	29.365	1250.518	1203.420
894.414	29.330	1248.849	1201.437
895.429	29.389	1246.744	1199.657
896.444	29.100	1245.135	1196.074
897.458	28.687	1244.289	1192.424
898.473	28.773	1244.181	1192.739
899.487	29.051	1243.343	1193.606
900.502	29.180	1242.462	1193.455
901.517	29.173	1241.129	1191.987
902.531	29.333	1240.137	1191.933
903.546	29.385	1239.353	1191.373
904.560	29.495	1238.864	1191.473
905.575	29.399	1238.475	1190.334
906.589	29.298	1237.017	1188.136
907.604	29.442	1235.852	1187.810
