DTS Sentinel unit serial number:	SN409020Multiplexer serial number:	ORYXHardware model number:	OX4-SRSoftware version number:	ORYX F/W v3.00 Oryx Data Collector v3.7.2.0data status	okinstallation	HaddamTimeLapsedifferential loss correction	single-endedforward channel	channel 3reverse channel	N/Adate	2011/06/22time	11:21:02forward acquisition time	30.00reverse acquisition time	0.00gamma	498.7831k internal	0.1761k external	0.1761temperature offset calibration	1.0074default loss term (dB/km)	0.3790temperature slope calibration	1.3530multiplexer offset coefficient	1.0000multiplexer slope coefficient	1.0000fibre end	0.00T internal ref (°C)	28.94T ext. ref 1 (°C)	23.95T ext. ref 2 (°C)	-0.10length (m)	temperature (°C)	Stokes	anti-Stokes-747.200	15.657	0.195	-0.202
-746.185	800.000	0.133	0.640
-745.171	-200.000	0.010	0.722
-744.156	262.057	0.305	0.701
-743.142	-42.098	-0.462	-0.311
-742.127	-28.080	-0.615	0.469
-741.112	-183.941	-0.124	0.003
-740.098	-200.000	-0.003	0.108
-739.083	-36.680	-0.295	0.209
-738.069	136.871	0.124	0.214
-737.054	69.516	-0.379	0.516
-736.039	286.224	-0.075	0.179
-735.025	25.831	0.331	0.364
-734.010	-11.000	0.392	0.341
-732.996	-46.048	-0.240	-0.156
-731.981	-164.203	0.152	-0.009
-730.966	-18.594	-0.322	0.265
-729.952	110.221	0.027	0.043
-728.937	124.004	-0.109	-0.181
-727.923	-155.976	0.582	-0.048
-726.908	-134.752	0.438	0.070
-725.894	-118.441	0.235	0.055
-724.879	13.839	0.191	-0.196
-723.864	-145.603	-0.187	-0.022
-722.850	-200.000	0.025	-0.271
-721.835	288.024	0.087	-0.208
-720.821	37.384	-0.276	0.323
-719.806	-96.282	-0.296	0.103
-718.791	53.240	0.410	-0.519
-717.777	-52.186	-0.508	-0.310
-716.762	43.329	-0.202	0.244
-715.748	-162.027	-0.499	-0.033
-714.733	405.203	-0.108	-0.302
-713.718	-140.399	-0.503	0.068
-712.704	16.609	-0.457	0.476
-711.689	213.749	-0.259	-0.542
-710.675	800.000	-0.047	-0.199
-709.660	-130.318	0.368	-0.065
-708.645	347.389	0.129	0.338
-707.631	-173.360	-0.211	-0.008
-706.616	25.140	-0.328	0.359
-705.602	-77.944	-0.513	0.232
-704.587	-200.000	0.003	-0.169
-703.572	-165.053	-0.219	0.013
-702.558	-50.047	-0.279	0.174
-701.543	381.380	-0.089	0.243
-700.529	46.396	0.223	0.273
-699.514	800.000	0.037	0.177
-698.499	-130.083	0.133	-0.024
-697.485	212.647	-0.188	-0.393
-696.470	-33.309	0.130	-0.095
-695.456	-86.522	0.354	-0.142
-694.441	-72.095	0.393	-0.191
-693.426	577.668	0.090	-0.292
-692.412	800.000	-0.081	-0.317
-691.397	2.435	-0.250	-0.238
-690.383	-200.000	0.028	-0.189
-689.368	-67.256	0.188	-0.097
-688.354	-178.407	-0.326	-0.010
-687.339	-82.499	-0.263	-0.112
-686.324	31.238	-0.236	0.267
-685.310	-200.000	-0.005	0.274
-684.295	800.000	-0.091	0.421
-683.281	68.851	-0.136	0.184
-682.266	-83.468	-0.455	-0.191
-681.251	-52.896	-0.564	-0.341
-680.237	-200.000	0.011	0.291
-679.222	168.906	0.226	-0.425
-678.208	-200.000	0.009	-0.364
-677.193	-64.673	-0.060	0.032
-676.178	299.888	-0.177	0.432
-675.164	77.121	0.286	-0.400
-674.149	-26.124	-0.095	0.074
-673.135	641.073	-0.042	-0.142
-672.120	-84.556	-0.573	-0.237
-671.105	96.180	-0.189	-0.285
-670.091	-53.248	-0.578	0.348
-669.076	-126.094	-0.292	0.057
-668.062	-142.073	-0.678	0.088
-667.047	231.742	0.212	-0.460
-666.032	-32.471	0.175	-0.129
-665.018	540.641	-0.127	-0.400
-664.003	-89.494	-0.498	0.192
-662.989	457.057	-0.132	0.388
-661.974	-90.784	-0.287	-0.108
-660.959	-118.193	-0.360	-0.084
-659.945	219.264	0.045	0.095
-658.930	-48.496	0.222	-0.140
-657.916	-6.706	0.276	-0.247
-656.901	260.547	0.110	0.252
-655.886	138.238	-0.102	-0.176
-654.872	800.000	-0.036	-0.133
-653.857	120.547	-0.191	-0.313
-652.843	16.646	0.281	0.293
-651.828	-169.137	0.451	-0.022
-650.814	300.726	-0.065	0.159
-649.799	-106.279	-0.197	0.058
-648.784	-165.900	-0.250	-0.014
-647.770	-108.231	-0.590	-0.167
-646.755	-100.695	-0.116	0.037
-645.741	-34.491	-0.119	0.086
-644.726	-86.560	-0.171	0.069
-643.711	88.244	-0.171	-0.251
-642.697	475.086	0.110	0.328
-641.682	166.816	0.092	-0.173
-640.668	-129.386	0.150	-0.027
-639.653	800.000	0.058	0.230
-638.638	24.062	0.048	-0.052
-637.624	-87.232	-0.251	-0.100
-636.609	-22.949	-0.224	0.177
-635.595	-108.343	0.510	-0.144
-634.580	-123.682	0.114	0.023
-633.565	-200.000	-0.056	-0.460
-632.551	-200.000	-0.007	0.297
-631.536	-200.000	-0.015	-0.098
-630.522	-200.000	0.008	-0.230
-629.507	133.288	-0.155	0.263
-628.492	-200.000	-0.002	-0.220
-627.478	-169.494	-0.123	0.006
-626.463	-92.565	-0.230	-0.084
-625.449	-135.750	0.689	-0.106
-624.434	42.554	0.243	-0.291
-623.419	17.536	0.170	0.177
-622.405	-82.661	-0.391	-0.166
-621.390	-122.813	0.169	0.035
-620.376	177.662	0.144	-0.276
-619.361	350.350	-0.046	0.120
-618.346	-59.387	0.299	0.168
-617.332	-78.354	0.482	-0.216
-616.317	192.576	0.251	0.499
-615.303	12.997	-0.445	0.453
-614.288	-200.000	-0.090	0.632
-613.273	-94.757	0.192	-0.068
-612.259	-92.348	0.377	-0.139
-611.244	88.272	-0.116	0.169
-610.230	-67.803	-0.407	0.208
-609.215	122.164	0.019	0.032
-608.201	-176.821	-0.431	0.014
-607.186	309.032	0.069	-0.171
-606.171	-200.000	0.001	0.222
-605.157	-159.199	-0.904	0.066
-604.142	-50.812	0.203	0.125
-603.128	-200.000	0.054	-0.475
-602.113	-58.392	-0.232	-0.132
-601.098	-200.000	0.002	-0.410
-600.084	186.231	-0.227	0.445
-599.069	161.181	-0.169	-0.311
-598.055	234.986	0.079	-0.171
-597.040	800.000	0.047	0.217
-596.025	24.179	0.335	-0.363
-595.011	659.332	-0.040	0.136
-593.996	19.607	0.129	-0.136
-592.982	800.000	-0.064	-0.322
-591.967	-29.294	0.353	-0.265
-590.952	20.065	0.262	0.278
-589.938	-157.825	-0.246	0.019
-588.923	-26.710	-0.405	0.311
-587.909	-163.645	0.126	0.008
-586.894	564.466	0.097	0.312
-585.879	76.657	-0.311	-0.433
-584.865	22.941	0.154	-0.165
-583.850	-61.756	0.191	-0.104
-582.836	-78.150	0.189	-0.085
-581.821	555.968	-0.037	0.119
-580.806	69.153	-0.085	-0.115
-579.792	-125.978	-0.061	-0.012
-578.777	184.372	0.191	0.373
-577.763	-36.038	-0.273	0.193
-576.748	-163.012	-0.635	-0.040
-575.733	-145.027	-0.225	-0.027
-574.719	-200.000	-0.061	0.592
-573.704	135.097	0.214	0.366
-572.690	-139.696	0.383	-0.053
-571.675	-117.427	-0.107	-0.025
-570.661	0.879	0.538	-0.505
-569.646	-5.513	0.039	-0.035
-568.631	-133.443	0.277	0.045
-567.617	-200.000	0.041	-0.504
-566.602	-82.090	-0.225	-0.096
-565.588	-97.387	-0.207	0.070
-564.573	62.630	0.409	-0.538
-563.558	58.050	-0.161	-0.206
-562.544	-65.600	0.057	-0.030
-561.529	-200.000	-0.029	-0.375
-560.515	-95.508	-0.300	-0.105
-559.500	-77.204	-0.219	0.099
-558.485	126.239	-0.179	-0.297
-557.471	27.267	-0.289	-0.319
-556.456	110.724	0.157	-0.248
-555.442	21.432	0.305	0.325
-554.427	-150.400	-0.371	0.037
-553.412	47.762	0.344	-0.421
-552.398	59.445	-0.242	-0.313
-551.383	-111.195	-0.487	0.130
-550.369	-200.000	-0.035	0.547
-549.354	-95.889	-0.307	-0.107
-548.339	40.683	-0.257	0.304
-547.325	81.076	-0.209	0.296
-546.310	3.848	0.122	0.117
-545.296	-200.000	-0.014	-0.392
-544.281	-69.586	0.458	-0.229
-543.266	43.024	0.168	0.201
-542.252	-157.237	-0.287	-0.022
-541.237	164.451	0.188	0.349
-540.223	-92.022	0.139	0.051
-539.208	186.149	-0.128	0.250
-538.193	-129.541	-0.320	-0.058
-537.179	-120.260	0.435	0.096
-536.164	-154.973	0.162	-0.014
-535.150	124.723	-0.157	0.260
-534.135	-138.860	-0.563	-0.079
-533.121	37.982	-0.162	0.189
-532.106	-200.000	-0.025	0.326
-531.091	85.869	0.288	-0.415
-530.077	-62.002	-0.158	0.086
-529.062	800.000	0.014	-0.074
-528.048	-200.000	0.021	0.138
-527.033	-15.494	-0.190	0.159
-526.018	399.291	0.132	0.363
-525.004	-53.337	-0.123	-0.074
-523.989	-175.453	0.335	0.012
-522.975	459.662	-0.237	-0.694
-521.960	-109.028	0.017	0.005
-520.945	85.695	-0.304	-0.439
-519.931	415.893	0.047	0.132
-518.916	18.317	0.342	0.358
-517.902	800.000	-0.061	-0.258
-516.887	-99.391	-0.444	-0.146
-515.872	189.945	0.249	-0.491
-514.858	29.526	0.058	-0.065
-513.843	15.550	-0.215	-0.221
-512.829	101.837	-0.171	-0.262
-511.814	165.682	-0.236	-0.438
-510.799	-56.363	0.245	0.142
-509.785	-200.000	-0.046	-0.300
-508.770	-93.471	-0.072	0.026
-507.756	-102.957	0.035	0.011
-506.741	-62.088	-0.270	0.147
-505.726	20.448	-0.070	-0.075
-504.712	114.107	-0.125	0.200
-503.697	383.144	0.263	-0.712
-502.683	247.664	0.172	0.381
-501.668	285.076	-0.080	0.190
-500.653	255.981	0.151	0.340
-499.639	-78.543	-0.387	0.172
-498.624	-114.239	-0.319	-0.080
-497.610	800.000	-0.039	-0.181
-496.595	284.820	-0.029	0.070
-495.581	-200.000	0.017	0.292
-494.566	-200.000	-0.050	-0.679
-493.551	-53.088	0.406	0.243
-492.537	-200.000	-0.012	0.096
-491.522	-129.035	0.420	-0.076
-490.508	168.381	-0.070	-0.131
-489.493	-200.000	-0.041	-0.336
-488.478	-102.000	0.270	0.085
-487.464	-39.854	0.530	0.361
-486.449	-77.505	-0.538	0.243
-485.435	382.990	0.166	-0.449
-484.420	512.934	-0.114	0.350
-483.405	94.167	-0.143	0.212
-482.391	800.000	-0.044	-0.195
-481.376	-21.997	-0.192	0.152
-480.362	-110.284	-0.237	0.064
-479.347	-29.140	-0.523	0.391
-478.332	-194.781	0.486	-0.005
-477.318	279.038	-0.067	0.156
-476.303	336.573	0.164	-0.418
-475.289	-51.395	0.750	0.457
-474.274	447.472	0.129	-0.372
-473.259	-23.102	-0.463	-0.364
-472.245	-108.091	0.186	-0.052
-471.230	82.767	0.141	0.201
-470.216	-171.658	-0.609	0.026
-469.201	-76.748	-0.376	0.171
-468.186	-155.755	-0.105	-0.009
-467.172	-200.000	0.047	-0.302
-466.157	92.786	0.114	0.169
-465.143	-175.403	-0.050	-0.002
-464.128	-200.000	-0.026	-0.268
-463.113	618.213	0.181	-0.597
-462.099	8.708	0.432	-0.425
-461.084	257.663	0.123	-0.277
-460.070	-52.776	-0.135	0.081
-459.055	3.214	0.373	-0.355
-458.040	481.830	-0.208	0.619
-457.026	682.102	-0.175	-0.600
-456.011	-200.000	-0.012	-0.305
-454.997	-94.611	0.116	0.041
-453.982	-149.879	-0.394	-0.040
-452.968	-200.000	-0.040	-0.397
-451.953	-117.016	-0.191	0.045
-450.938	96.900	0.289	-0.433
-449.924	151.741	0.064	-0.114
-448.909	-97.141	0.308	-0.105
-447.895	-145.039	-0.102	0.012
-446.880	-40.545	-0.594	0.401
-445.865	-34.643	0.272	-0.194
-444.851	29.377	-0.280	-0.311
-443.836	97.775	-0.110	0.166
-442.822	295.883	0.059	-0.141
-441.807	437.877	0.061	0.174
-440.792	131.823	-0.054	-0.091
-439.778	1.668	0.090	-0.084
-438.763	-62.449	0.437	0.236
-437.749	483.139	0.180	0.538
-436.734	-200.000	-0.037	0.599
-435.719	-20.229	-0.216	0.174
-434.705	-96.774	0.233	0.080
-433.690	-115.017	0.244	-0.060
-432.676	-200.000	0.010	0.170
-431.661	359.620	0.034	0.090
-430.646	70.952	-0.074	0.100
-429.632	217.788	-0.045	0.095
-428.617	-143.414	-0.552	0.068
-427.603	154.846	-0.069	0.124
-426.588	135.036	0.126	-0.214
-425.573	-108.552	0.184	0.051
-424.559	-93.137	-0.218	-0.079
-423.544	-200.000	0.018	0.150
-422.530	800.000	0.053	0.235
-421.515	-117.320	0.377	-0.089
-420.500	800.000	0.080	-0.349
-419.486	39.988	0.165	-0.194
-418.471	-200.000	0.028	0.537
-417.457	8.885	0.386	-0.379
-416.442	141.416	0.232	-0.401
-415.428	-60.562	-0.526	-0.290
-414.413	140.033	0.114	0.196
-413.398	-200.000	0.009	-0.535
-412.384	180.656	0.266	-0.511
-411.369	-19.104	0.352	0.285
-410.355	-119.240	0.716	0.161
-409.340	17.431	-0.124	-0.128
-408.325	-11.245	-0.238	0.204
-407.311	29.824	0.127	0.141
-406.296	800.000	-0.144	0.599
-405.282	571.426	-0.089	-0.283
-404.267	-200.000	-0.001	-0.140
-403.252	254.191	0.139	-0.312
-402.238	-200.000	0.010	0.068
-401.223	191.164	0.209	0.411
-400.209	-200.000	-0.069	0.471
-399.194	-200.000	-0.029	-0.176
-398.179	-200.000	-0.011	-0.240
-397.165	-109.115	-0.299	0.082
-396.150	800.000	0.073	-0.276
-395.136	327.080	0.098	0.246
-394.121	-200.000	0.001	-0.139
-393.106	-121.116	0.286	0.062
-392.092	-79.502	0.186	0.081
-391.077	-131.135	0.229	-0.039
-390.063	51.933	0.138	0.171
-389.048	0.409	0.301	-0.280
-388.033	-27.541	-0.413	0.312
-387.019	800.000	-0.060	0.288
-386.004	-33.148	-0.395	0.285
-384.990	98.530	-0.102	-0.154
-383.975	-102.036	0.249	-0.078
-382.960	144.880	0.154	0.268
-381.946	-48.573	-0.331	0.206
-380.931	-98.612	0.117	-0.039
-379.917	-170.901	0.340	0.015
-378.902	-78.400	-0.156	0.069
-377.888	-29.186	-0.175	-0.131
-376.873	-165.413	-0.149	0.008
-375.858	102.274	0.290	-0.442
-374.844	-122.999	0.064	0.013
-373.829	-128.830	-0.361	0.065
-372.815	-200.000	-0.004	-0.050
-371.800	-48.880	-0.246	0.153
-370.785	-200.000	0.072	0.412
-369.771	133.609	0.202	0.342
-368.756	-200.000	-0.024	-0.427
-367.742	99.199	-0.167	0.252
-366.727	-82.957	0.263	-0.110
-365.712	179.763	0.013	0.025
-364.698	129.765	-0.204	-0.340
-363.683	218.473	0.123	0.257
-362.669	581.892	0.120	0.385
-361.654	-100.519	0.441	0.141
-360.639	143.393	0.281	0.488
-359.625	71.884	0.104	0.142
-358.610	-14.081	0.484	0.406
-357.596	-132.895	0.185	-0.030
-356.581	487.148	0.131	-0.391
-355.566	119.201	-0.219	0.354
-354.552	-200.000	-0.067	0.569
-353.537	257.428	0.153	-0.344
-352.523	93.361	-0.227	-0.335
-351.508	227.098	-0.130	0.276
-350.493	-196.282	-0.351	0.003
-349.479	70.701	-0.160	0.216
-348.464	-54.711	-0.106	0.062
-347.450	177.206	0.196	-0.372
-346.435	130.631	0.340	-0.568
-345.420	-70.400	-0.211	0.104
-344.406	-200.000	-0.058	0.419
-343.391	102.204	-0.119	-0.181
-342.377	93.096	0.210	-0.309
-341.362	-178.907	-0.465	-0.013
-340.348	-148.225	-0.262	-0.028
-339.333	-59.337	0.223	0.124
-338.318	-120.647	-0.369	0.080
-337.304	-10.248	-0.254	0.219
-336.289	-43.921	0.295	-0.192
-335.275	-200.000	-0.086	0.636
-334.260	190.157	0.064	-0.125
-333.245	800.000	-0.044	0.193
-332.231	-49.554	-0.103	0.064
-331.216	33.711	0.019	-0.022
-330.202	1.630	0.122	-0.114
-329.187	543.071	-0.094	0.292
-328.172	32.982	0.175	-0.197
-327.158	-128.397	-0.437	0.080
-326.143	80.581	0.188	0.263
-325.129	-104.865	0.725	-0.215
-324.114	-200.000	-0.023	-0.148
-323.099	-91.452	-0.248	-0.092
-322.085	420.405	-0.087	-0.243
-321.070	103.065	-0.067	0.102
-320.056	800.000	0.043	0.228
-319.041	388.144	-0.092	-0.248
-318.026	-135.798	0.410	0.062
-317.012	-136.847	-0.148	0.022
-315.997	634.654	-0.087	-0.289
-314.983	-200.000	0.009	0.130
-313.968	-127.707	-0.490	0.091
-312.953	-14.342	0.234	0.196
-311.939	-125.069	-0.477	0.094
-310.924	-131.222	0.621	0.106
-309.910	800.000	0.079	-0.439
-308.895	-177.524	-0.282	0.009
-307.880	-116.404	0.386	0.092
-306.866	410.269	-0.116	0.320
-305.851	255.400	0.057	-0.127
-304.837	-106.063	-0.227	0.066
-303.822	-61.157	-0.221	-0.121
-302.807	-8.208	0.400	-0.350
-301.793	-200.000	0.002	0.336
-300.778	283.793	0.131	-0.308
-299.764	-67.305	0.213	-0.108
-298.749	800.000	-0.086	-0.463
-297.735	422.113	-0.086	-0.242
-296.720	-200.000	0.014	-0.095
-295.705	60.274	0.539	-0.693
-294.691	-200.000	-0.012	0.136
-293.676	190.867	-0.133	0.260
-292.662	-149.091	-0.089	-0.009
-291.647	-101.321	0.282	0.089
-290.632	-88.391	0.226	-0.087
-289.618	-200.000	-0.029	0.212
-288.603	30.987	-0.236	0.263
-287.589	-171.446	0.336	0.014
-286.574	-108.896	-0.094	-0.026
-285.559	800.000	0.146	0.578
-284.545	-200.000	0.021	-0.593
-283.530	-200.000	-0.382	0.001
-282.516	-85.985	0.400	-0.160
-281.501	-162.187	0.421	0.027
-280.486	44.458	-0.288	-0.344
-279.472	-200.000	-0.055	0.388
-278.457	90.382	0.151	-0.220
-277.443	306.478	0.185	-0.448
-276.428	60.347	-0.048	0.062
-275.413	-200.000	-0.025	-0.401
-274.399	87.521	-0.171	-0.246
-273.384	9.768	-0.092	-0.090
-272.370	-148.066	-0.504	-0.054
-271.355	34.404	-0.274	0.310
-270.340	-128.124	0.513	-0.094
-269.326	-64.029	-0.155	-0.082
-268.311	800.000	0.038	0.176
-267.297	-98.059	0.171	0.057
-266.282	-18.746	0.349	0.282
-265.267	130.634	-0.036	-0.059
-264.253	-117.130	-0.413	-0.097
-263.238	178.499	-0.230	0.436
-262.224	121.653	-0.128	0.208
-261.209	69.974	0.180	-0.241
-260.195	-128.344	0.164	-0.030
-259.180	-142.644	-0.185	0.023
-258.165	343.261	0.057	0.144
-257.151	83.904	0.265	-0.376
-256.136	102.188	0.195	-0.295
-255.122	407.912	-0.053	0.146
-254.107	800.000	-0.067	0.284
-253.092	-185.257	-0.263	-0.005
-252.078	-36.428	-0.134	0.093
-251.063	69.460	0.452	-0.604
-250.049	36.153	-0.176	0.201
-249.034	104.116	0.119	0.181
-248.019	74.646	0.209	-0.286
-247.005	-200.000	-0.074	-0.432
-245.990	-29.690	-0.138	-0.102
-244.976	800.000	0.078	-0.354
-243.961	43.331	0.202	0.240
-242.946	70.323	-0.205	0.275
-241.932	-96.769	-0.121	0.041
-240.917	532.258	-0.090	0.276
-239.903	-37.404	0.123	-0.085
-238.888	19.341	0.022	0.023
-237.873	205.952	-0.101	0.204
-236.859	-70.601	0.281	-0.137
-235.844	138.009	0.213	0.362
-234.830	-200.000	0.031	-0.245
-233.815	-153.519	0.137	-0.012
-232.800	-65.167	0.247	-0.129
-231.786	-125.868	-0.449	0.087
-230.771	-120.478	-0.198	-0.043
-229.757	-145.341	0.247	-0.029
-228.742	800.000	-0.019	-0.097
-227.727	-16.743	0.055	-0.045
-226.713	1.860	0.269	0.251
-225.698	-169.930	-0.211	0.010
-224.684	-82.154	-0.182	0.076
-223.669	120.878	-0.138	0.223
-222.655	-34.372	-0.151	0.107
-221.640	329.435	-0.190	-0.475
-220.625	-2.361	-0.151	-0.137
-219.611	-154.880	0.241	0.020
-218.596	-152.332	-0.175	0.016
-217.582	37.643	-0.204	-0.234
-216.567	-104.989	-0.354	-0.104
-215.552	-200.000	-0.001	-0.192
-214.538	67.889	0.188	-0.249
-213.523	29.429	-0.339	-0.373
-212.509	-98.849	-0.298	-0.098
-211.494	58.655	-0.519	0.660
-210.479	360.212	-0.152	0.396
-209.465	800.000	-0.086	0.445
-208.450	-78.862	0.098	-0.043
-207.436	319.808	-0.111	-0.274
-206.421	134.009	0.049	-0.083
-205.406	-159.759	-0.200	0.014
-204.392	106.426	0.245	-0.376
-203.377	-58.628	-0.392	-0.219
-202.363	299.814	0.031	-0.074
-201.348	50.419	-0.143	-0.175
-200.333	-20.378	-0.628	0.499
-199.319	-200.000	-0.021	0.138
-198.304	-98.119	-0.350	0.116
-197.290	-103.202	0.071	-0.022
-196.275	-200.000	-0.063	0.722
-195.260	-117.079	-0.214	-0.050
-194.246	28.494	-0.043	-0.047
-193.231	674.952	0.182	-0.614
-192.217	-89.809	0.597	0.225
-191.202	26.524	0.182	0.197
-190.187	100.790	-0.166	-0.250
-189.173	9.659	-0.089	-0.088
-188.158	-147.804	0.434	0.046
-187.144	22.930	-0.258	0.273
-186.129	-165.223	0.101	-0.006
-185.114	113.205	-0.025	-0.040
-184.100	-109.105	-0.237	-0.065
-183.085	-141.890	0.505	0.064
-182.071	800.000	0.084	0.427
-181.056	192.327	-0.169	-0.330
-180.042	-170.080	0.319	0.014
-179.027	-55.590	0.389	0.224
-178.012	-138.692	-0.267	0.037
-176.998	428.887	-0.092	0.257
-175.983	13.373	-0.107	0.107
-174.969	174.672	0.064	-0.120
-173.954	-200.000	0.044	0.403
-172.939	611.511	-0.054	0.176
-171.925	14.929	0.311	0.314
-170.910	55.102	-0.181	0.226
-169.896	-67.520	-0.250	0.126
-168.881	-39.687	0.081	0.054
-167.866	-61.082	-0.475	-0.258
-166.852	-200.000	0.025	-0.402
-165.837	-49.285	-0.130	0.080
-164.823	192.584	0.225	0.439
-163.808	800.000	0.115	0.499
-162.793	-39.111	0.351	0.238
-161.779	-200.000	0.005	-0.170
-160.764	-102.114	0.625	-0.193
-159.750	-55.151	0.371	0.215
-158.735	183.569	0.179	0.343
-157.720	298.874	0.098	0.233
-156.706	442.905	0.098	-0.278
-155.691	-160.428	-0.231	0.016
-154.677	800.000	0.089	0.425
-153.662	58.397	0.203	-0.257
-152.647	-23.519	0.309	0.239
-151.633	-147.951	0.307	0.033
-150.618	-2.982	0.621	-0.559
-149.604	-127.932	-0.267	0.049
-148.589	-89.556	-0.147	-0.055
-147.574	-153.538	-0.111	0.010
-146.560	120.045	-0.140	-0.224
-145.545	-46.787	-0.389	-0.245
-144.531	13.868	0.315	0.316
-143.516	-17.368	0.367	0.298
-142.502	104.178	-0.075	-0.114
-141.487	3.531	0.326	0.307
-140.472	800.000	0.051	0.215
-139.458	-200.000	-0.029	0.307
-138.443	14.616	0.135	0.136
-137.429	482.284	-0.048	-0.142
-136.414	-162.201	-0.131	-0.008
-135.399	42.639	-0.239	0.281
-134.385	800.000	-0.062	-0.354
-133.370	-106.288	0.507	0.145
-132.356	630.216	0.139	0.456
-131.341	-82.064	-0.410	-0.172
-130.326	-11.629	-0.228	-0.193
-129.312	68.455	0.164	-0.218
-128.297	-79.108	-0.539	-0.235
-127.283	-127.029	-0.015	0.003
-126.268	-159.647	0.607	0.043
-125.253	-96.227	0.510	0.173
-124.239	-73.074	-0.373	0.176
-123.224	-36.736	-0.646	0.446
-122.210	800.000	0.051	-0.266
-121.195	-74.719	-0.069	0.032
-120.180	-16.084	-0.085	-0.069
-119.166	-13.429	0.226	0.189
-118.151	-90.606	0.312	0.116
-117.137	99.744	-0.077	-0.116
-116.122	245.389	-0.327	0.712
-115.107	800.000	-0.106	0.392
-114.093	59.873	-0.074	0.094
-113.078	9.048	-0.133	0.129
-112.064	-37.730	0.507	0.347
-111.049	-18.854	-0.408	0.327
-110.034	-200.000	-0.044	0.554
-109.020	57.565	-0.130	-0.164
-108.005	182.547	0.261	-0.498
-106.991	-200.000	-0.008	0.388
-105.976	-200.000	0.015	-0.370
-104.962	-20.795	0.283	-0.223
-103.947	-167.207	0.655	0.034
-102.932	-15.852	0.355	0.291
-101.918	-33.861	-0.266	-0.188
-100.903	-60.668	-0.315	0.171
-99.889	-29.830	-0.339	-0.249
-98.874	-200.000	0.012	0.326
-97.859	49.709	0.162	-0.197
-96.845	-115.757	-0.132	0.032
-95.830	-95.998	-0.320	0.109
-94.816	181.302	0.161	-0.306
-93.801	-20.621	-0.416	0.329
-92.786	-99.597	0.052	-0.017
-91.772	-127.251	-0.466	-0.087
-90.757	-107.828	0.116	0.032
-89.743	-81.174	0.562	0.238
-88.728	106.448	-0.099	0.151
-87.713	-15.544	-0.285	-0.234
-86.699	-106.373	-0.112	0.032
-85.684	-64.350	0.317	0.165
-84.670	123.869	-0.325	0.526
-83.655	64.408	-0.180	0.233
-82.640	-186.711	0.526	0.009
-81.626	800.000	-0.035	-0.163
-80.611	120.726	0.193	0.309
-79.597	-45.214	0.038	-0.024
-78.582	-2.070	-0.082	0.074
-77.567	-81.219	-0.455	-0.193
-76.553	-73.230	0.297	-0.139
-75.538	-139.792	0.319	-0.043
-74.524	503.617	-0.129	-0.386
-73.509	-3.848	0.294	0.262
-72.494	28.597	-0.127	-0.138
-71.480	-130.750	-0.464	0.079
-70.465	-34.694	0.107	0.075
-69.451	-200.000	-0.033	-0.315
-68.436	38.872	-0.209	0.240
-67.422	-83.746	-0.131	0.054
-66.407	-200.000	-0.101	0.901
-65.392	58.363	-0.006	0.008
-64.378	-92.459	-0.090	-0.033
-63.363	-95.896	0.509	-0.174
-62.349	126.851	0.176	0.288
-61.334	4.998	-2.426	-2.295
-60.319	91.972	0.823	1.193
-59.305	194.837	-3.630	-7.107
-58.290	88.173	3.510	5.017
-57.276	404.280	3.834	10.436
-56.261	-200.000	20.587	302.960
-55.246	380.084	1268.224	3358.921
-54.232	53.618	2855.681	3526.888
-53.217	64.449	2705.412	3508.864
-52.203	36.353	2435.252	2761.928
-51.188	35.466	2094.704	2364.625
-50.173	30.941	1978.420	2180.201
-49.159	29.720	1967.512	2153.803
-48.144	29.448	1963.605	2146.266
-47.130	29.389	1960.336	2141.922
-46.115	29.201	1959.876	2139.132
-45.100	29.309	1958.091	2138.360
-44.086	29.158	1957.251	2135.599
-43.071	29.135	1956.395	2134.318
-42.057	29.098	1954.174	2131.378
-41.042	29.157	1952.469	2130.115
-40.027	29.326	1950.220	2129.540
-39.013	29.103	1949.547	2126.128
-37.998	29.115	1947.974	2124.470
-36.984	29.138	1946.738	2123.312
-35.969	29.194	1945.876	2122.929
-34.954	29.112	1943.922	2119.767
-33.940	29.051	1942.565	2117.502
-32.925	29.039	1941.446	2116.055
-31.911	29.042	1940.423	2114.885
-30.896	28.909	1939.226	2111.961
-29.881	28.995	1938.894	2112.509
-28.867	28.925	1936.923	2109.474
-27.852	29.006	1935.062	2108.300
-26.838	28.933	1933.663	2105.851
-25.823	28.817	1932.985	2103.690
-24.809	29.074	1929.922	2103.230
-23.794	28.971	1928.953	2100.901
-22.779	29.022	1927.741	2100.091
-21.765	29.019	1926.750	2098.886
-20.750	28.991	1926.079	2097.752
-19.736	28.986	1924.543	2095.942
-18.721	28.912	1923.866	2094.275
-17.706	28.888	1921.817	2091.689
-16.692	28.914	1921.207	2091.239
-15.677	28.848	1919.706	2088.768
-14.663	28.921	1918.090	2087.758
-13.648	28.884	1916.612	2085.641
-12.633	28.841	1915.896	2084.295
-11.619	28.856	1914.676	2083.051
-10.604	28.814	1913.003	2080.670
-9.590	28.666	1912.625	2078.489
-8.575	28.820	1910.976	2078.373
-7.560	28.787	1909.718	2076.544
-6.546	28.756	1909.192	2075.544
-5.531	28.739	1906.714	2072.567
-4.517	28.688	1907.325	2072.572
-3.502	28.710	1905.001	2070.215
-2.487	28.820	1903.844	2070.125
-1.473	28.742	1899.881	2064.844
-0.458	28.408	1880.740	2040.223
0.556	24.526	2026.828	2139.142
1.571	23.062	2236.078	2340.249
2.586	23.951	2277.213	2395.052
3.600	24.101	2280.522	2400.283
4.615	24.284	2280.515	2402.456
5.629	24.183	2278.443	2398.629
6.644	24.282	2276.838	2397.991
7.659	24.359	2274.659	2396.450
8.673	24.238	2272.818	2392.585
9.688	23.772	2278.598	2392.082
10.702	22.233	2359.147	2454.769
11.717	20.987	2426.701	2506.762
12.731	11.875	2401.558	2349.601
13.746	2.243	2373.984	2184.462
14.761	0.453	2369.673	2154.555
15.775	0.286	2367.355	2149.785
16.790	0.195	2365.923	2146.930
17.804	0.209	2363.659	2144.818
18.819	0.205	2363.087	2143.981
19.834	0.197	2361.425	2142.101
20.848	0.205	2360.050	2140.714
21.863	0.244	2358.442	2139.564
22.877	0.221	2355.701	2136.490
23.892	0.262	2354.065	2135.338
24.907	0.286	2351.799	2133.358
25.921	0.182	2351.096	2130.989
26.936	0.251	2348.241	2129.134
27.950	0.199	2346.026	2126.123
28.965	0.239	2343.644	2124.275
29.980	0.239	2341.336	2121.941
30.994	0.326	2339.720	2121.448
32.009	5.428	2357.532	2209.937
33.023	17.385	2393.261	2414.704
34.038	22.900	2403.957	2504.010
35.053	23.581	2403.017	2512.437
36.067	23.527	2400.805	2509.051
37.082	23.463	2399.147	2506.109
38.096	23.506	2396.912	2504.088
39.111	23.802	2394.472	2505.436
40.126	24.089	2392.213	2506.825
41.140	24.253	2392.735	2509.395
42.155	23.996	2390.170	2502.775
43.169	23.980	2387.678	2499.637
44.184	24.059	2385.918	2498.606
45.199	23.897	2383.966	2493.984
46.213	23.850	2382.148	2491.125
47.228	23.871	2381.331	2490.272
48.242	23.850	2379.768	2488.039
49.257	23.907	2377.473	2486.135
50.271	24.196	2374.623	2486.920
51.286	23.997	2373.712	2482.877
52.301	23.935	2370.385	2478.231
53.315	23.862	2370.539	2477.065
54.330	23.986	2370.161	2478.116
55.344	24.064	2366.781	2475.377
56.359	24.064	2363.648	2471.798
57.374	23.968	2360.470	2466.851
58.388	23.982	2358.903	2465.115
59.403	24.091	2355.149	2462.407
60.417	24.296	2353.418	2463.148
61.432	24.285	2352.065	2461.289
62.447	24.336	2349.786	2459.307
63.461	24.320	2347.777	2456.690
64.476	24.384	2345.348	2454.742
65.490	24.618	2345.647	2457.996
66.505	24.780	2345.325	2459.602
67.520	24.475	2343.426	2453.113
68.534	23.977	2339.402	2441.736
69.549	24.007	2335.448	2437.723
70.563	23.936	2334.044	2435.000
71.578	23.953	2331.733	2432.522
72.593	24.049	2330.473	2432.232
73.607	24.169	2329.503	2432.574
74.622	24.154	2327.830	2430.331
75.636	24.109	2323.577	2424.994
76.651	24.034	2321.858	2421.876
77.666	24.025	2319.594	2419.106
78.680	23.949	2318.247	2416.372
79.695	24.045	2316.009	2415.066
80.709	24.011	2315.796	2414.089
81.724	24.113	2314.337	2413.671
82.739	24.075	2311.026	2409.411
83.753	23.923	2307.707	2403.593
84.768	23.876	2307.093	2402.022
85.782	23.637	2306.515	2397.891
86.797	23.761	2303.487	2396.146
87.812	23.685	2300.747	2391.973
88.826	23.631	2299.048	2389.197
89.841	23.689	2297.933	2388.535
90.855	23.957	2295.580	2389.411
91.870	23.742	2294.357	2384.960
92.884	23.654	2291.378	2380.390
93.899	23.748	2290.534	2380.488
94.914	23.689	2289.945	2378.808
95.928	23.824	2290.060	2380.454
96.943	23.976	2287.448	2379.494
97.957	23.738	2284.190	2372.626
98.972	23.600	2281.596	2367.796
99.987	23.340	2278.782	2361.113
101.001	23.439	2276.581	2359.877
102.016	23.530	2274.835	2359.004
103.030	23.570	2273.678	2358.055
104.045	23.657	2270.439	2355.574
105.060	23.915	2269.338	2357.584
106.074	23.833	2267.425	2354.222
107.089	23.640	2265.924	2349.813
108.103	23.787	2265.360	2350.898
109.118	23.952	2263.330	2350.708
110.133	23.942	2261.863	2348.775
111.147	24.060	2259.542	2347.645
112.162	24.197	2257.761	2347.323
113.176	23.891	2255.990	2341.153
114.191	23.917	2253.986	2339.143
115.206	23.842	2252.667	2336.493
116.220	23.929	2249.880	2334.482
117.235	23.923	2247.840	2331.999
118.249	23.948	2246.296	2330.448
119.264	24.105	2245.211	2331.109
120.279	24.151	2242.457	2328.583
121.293	24.062	2240.681	2325.291
122.308	23.921	2240.276	2322.737
123.322	24.000	2237.951	2321.089
124.337	23.701	2236.971	2315.872
125.352	24.050	2237.176	2320.375
126.366	24.283	2235.846	2321.775
127.381	23.982	2232.790	2314.388
128.395	23.781	2230.078	2308.668
129.410	24.077	2227.355	2309.438
130.424	24.044	2226.061	2307.396
131.439	24.024	2224.092	2304.817
132.454	23.888	2221.978	2300.584
133.468	23.998	2219.550	2299.212
134.483	23.995	2218.184	2297.487
135.497	23.862	2216.852	2294.113
136.512	23.980	2214.470	2292.897
137.527	23.985	2211.882	2290.013
138.541	23.864	2210.865	2287.112
139.556	23.781	2209.851	2284.725
140.570	23.774	2208.674	2283.140
141.585	23.818	2206.377	2281.064
142.600	23.873	2205.100	2280.170
143.614	23.721	2203.727	2276.524
144.629	23.812	2201.171	2274.786
145.643	23.789	2199.145	2272.122
146.658	23.647	2197.953	2268.800
147.673	23.649	2195.190	2265.695
148.687	23.597	2195.249	2264.814
149.702	23.743	2193.424	2264.542
150.716	23.599	2192.862	2261.838
151.731	23.749	2191.673	2262.264
152.746	23.944	2190.412	2263.186
153.760	23.645	2189.527	2258.176
154.775	23.650	2189.551	2257.991
155.789	23.771	2186.953	2256.590
156.804	23.507	2183.155	2249.030
157.819	23.310	2179.454	2242.448
158.833	23.477	2176.783	2241.548
159.848	23.710	2175.019	2242.422
160.862	23.915	2173.862	2243.560
161.877	24.019	2173.949	2244.707
162.892	23.885	2173.438	2242.216
163.906	24.227	2170.701	2243.451
164.921	24.127	2169.512	2240.684
165.935	24.126	2167.185	2238.005
166.950	24.086	2164.563	2234.525
167.964	23.847	2162.661	2229.276
168.979	23.860	2161.115	2227.580
169.994	23.818	2159.922	2225.549
171.008	23.796	2157.330	2222.347
172.023	23.772	2155.705	2220.099
173.037	23.915	2154.423	2220.311
174.052	23.978	2153.212	2219.590
175.067	23.966	2151.547	2217.456
176.081	23.947	2150.131	2215.495
177.096	23.929	2149.372	2214.222
178.110	23.876	2146.453	2210.285
179.125	23.923	2145.783	2209.912
180.140	23.992	2145.046	2209.755
181.154	24.068	2144.141	2209.501
182.169	23.885	2142.110	2204.866
183.183	23.921	2140.272	2203.157
184.198	23.965	2140.030	2203.192
185.213	23.828	2139.548	2200.731
186.227	24.044	2136.923	2200.454
187.242	23.975	2135.488	2197.856
188.256	24.115	2133.553	2197.330
189.271	24.071	2132.602	2195.542
190.286	24.033	2130.435	2192.581
191.300	23.928	2127.213	2187.710
192.315	23.849	2125.559	2184.762
193.329	24.025	2124.164	2185.241
194.344	24.161	2123.639	2186.124
195.359	24.166	2122.850	2185.103
196.373	24.173	2120.697	2182.721
197.388	24.101	2117.393	2178.170
198.402	23.856	2115.276	2172.715
199.417	23.785	2112.721	2168.970
200.432	23.827	2111.735	2168.207
201.446	23.837	2110.920	2167.230
202.461	23.892	2108.590	2165.258
203.475	23.815	2106.944	2162.363
204.490	23.644	2105.331	2158.364
205.504	23.670	2102.948	2155.981
206.519	23.616	2100.552	2152.607
207.534	23.604	2098.734	2150.341
208.548	23.562	2097.566	2148.378
209.563	23.490	2095.698	2145.323
210.577	23.554	2093.844	2143.943
211.592	23.571	2093.113	2143.155
212.607	23.782	2092.464	2144.791
213.621	23.652	2091.622	2142.094
214.636	23.557	2090.813	2139.862
215.650	23.538	2088.675	2137.180
216.665	23.621	2085.958	2135.149
217.680	23.803	2084.418	2135.511
218.694	23.833	2083.104	2134.271
219.709	23.791	2081.723	2132.099
220.723	23.785	2081.076	2131.112
221.738	23.887	2079.139	2130.101
222.753	23.893	2077.086	2127.810
223.767	23.787	2075.264	2124.414
224.782	23.616	2072.820	2119.615
225.796	23.696	2071.219	2118.677
226.811	23.750	2071.293	2119.148
227.826	23.960	2069.519	2119.591
228.840	24.152	2066.970	2119.028
229.855	23.997	2067.248	2117.206
230.869	23.868	2064.948	2113.055
231.884	23.831	2063.558	2110.937
232.899	23.831	2061.411	2108.488
233.913	23.859	2060.507	2107.650
234.928	23.955	2059.042	2107.041
235.942	23.946	2057.714	2105.320
236.957	23.976	2056.050	2103.718
237.972	24.055	2054.789	2103.114
238.986	24.077	2053.634	2101.939
240.001	24.132	2051.613	2100.280
241.015	23.897	2050.488	2096.092
242.030	23.976	2049.871	2096.138
243.045	24.190	2049.132	2097.672
244.059	24.119	2048.322	2095.743
245.074	24.056	2044.212	2090.550
246.088	23.969	2042.237	2087.259
247.103	24.038	2040.017	2085.545
248.117	24.065	2038.877	2084.455
249.132	24.225	2036.632	2083.790
250.147	23.920	2035.085	2078.373
251.161	23.714	2033.547	2074.129
252.176	23.931	2032.490	2075.358
253.190	24.043	2029.589	2073.454
254.205	23.854	2027.898	2069.270
255.220	23.751	2026.869	2066.764
256.234	23.784	2025.903	2065.917
257.249	23.742	2024.065	2063.310
258.263	23.610	2023.982	2061.434
259.278	23.698	2021.044	2059.223
260.293	23.583	2020.228	2056.801
261.307	23.668	2017.213	2054.470
262.322	23.624	2016.113	2052.599
263.336	23.463	2014.401	2048.744
264.351	23.501	2013.316	2047.836
265.366	23.584	2011.535	2046.735
266.380	23.603	2011.281	2046.460
267.395	23.438	2008.802	2041.774
268.409	23.495	2006.710	2040.062
269.424	23.694	2005.308	2040.698
270.439	23.709	2005.095	2040.411
271.453	23.777	2003.886	2039.717
272.468	24.015	2002.343	2040.649
273.482	23.899	2000.590	2037.275
274.497	23.651	1997.944	2031.483
275.512	23.609	1994.405	2027.161
276.526	23.603	1993.429	2025.860
277.541	23.669	1990.820	2023.722
278.555	23.433	1990.756	2020.709
279.570	23.453	1986.920	2016.805
280.585	23.425	1986.263	2015.579
281.599	23.584	1985.085	2015.959
282.614	23.612	1984.711	2015.655
283.628	23.767	1982.875	2015.313
284.643	23.682	1982.057	2013.272
285.657	23.701	1981.730	2012.920
286.672	23.792	1978.860	2010.792
287.687	23.674	1976.801	2007.120
288.701	23.516	1975.865	2004.142
289.716	23.586	1973.969	2002.770
290.730	23.589	1973.007	2001.593
291.745	23.662	1971.565	2000.712
292.760	23.614	1970.731	1999.088
293.774	23.636	1969.983	1998.339
294.789	23.948	1968.867	2000.487
295.803	24.036	1965.846	1998.170
296.818	24.078	1965.121	1997.676
297.833	24.140	1964.578	1997.580
298.847	23.918	1963.531	1993.778
299.862	24.048	1961.674	1993.113
300.876	24.040	1960.341	1991.426
301.891	24.057	1959.393	1990.422
302.906	24.090	1958.856	1990.010
303.920	24.252	1956.912	1989.617
304.935	24.052	1953.783	1983.953
305.949	23.979	1951.590	1980.676
306.964	23.973	1950.722	1979.484
307.979	24.035	1948.959	1978.149
308.993	23.566	1946.759	1970.454
310.008	23.554	1944.397	1967.684
311.022	23.689	1943.261	1967.804
312.037	23.727	1942.152	1966.869
313.052	23.619	1939.820	1963.075
314.066	23.242	1937.967	1956.778
315.081	23.237	1936.437	1954.939
316.095	23.197	1934.753	1952.562
317.110	23.076	1933.912	1950.141
318.125	23.364	1932.467	1951.640
319.139	23.604	1931.750	1953.341
320.154	23.789	1929.912	1953.289
321.168	23.645	1928.800	1950.341
322.183	23.638	1927.705	1948.920
323.197	23.941	1926.247	1950.556
324.212	23.707	1924.129	1945.605
325.227	23.581	1922.723	1942.555
326.241	23.662	1921.042	1941.521
327.256	23.795	1920.013	1941.707
328.270	23.714	1918.938	1939.503
329.285	23.665	1918.617	1938.400
330.300	23.818	1918.473	1939.705
331.314	23.910	1916.974	1938.965
332.329	23.878	1915.368	1936.753
333.343	23.808	1912.664	1933.032
334.358	23.931	1910.690	1932.149
335.373	24.051	1908.256	1930.761
336.387	23.879	1907.827	1928.225
337.402	23.798	1905.450	1924.706
338.416	23.782	1904.113	1922.949
339.431	23.749	1902.894	1921.130
340.446	24.052	1901.451	1922.737
341.460	24.030	1899.876	1920.669
342.475	24.007	1897.410	1917.697
343.489	23.795	1896.284	1914.038
344.504	23.818	1895.391	1913.158
345.519	23.676	1893.220	1909.198
346.533	23.684	1890.605	1906.426
347.548	23.552	1890.423	1904.583
348.562	23.778	1888.561	1904.919
349.577	23.837	1888.047	1904.810
350.592	23.714	1886.807	1902.005
351.606	23.652	1884.745	1899.032
352.621	23.546	1882.418	1895.317
353.635	23.453	1882.527	1894.209
354.650	23.552	1880.577	1893.075
355.665	23.640	1879.621	1892.837
356.679	23.774	1878.912	1893.331
357.694	23.951	1877.032	1893.095
358.708	24.057	1877.168	1894.142
359.723	24.185	1875.888	1893.990
360.738	24.078	1874.925	1891.647
361.752	24.059	1873.764	1890.051
362.767	24.119	1870.512	1887.188
363.781	23.945	1868.837	1883.415
364.796	24.070	1866.952	1882.615
365.810	23.982	1865.958	1880.457
366.825	23.892	1864.616	1877.926
367.840	23.786	1863.993	1875.943
368.854	23.794	1863.427	1875.240
369.869	23.886	1861.535	1874.089
370.883	23.733	1860.092	1870.782
371.898	23.624	1857.837	1867.145
372.913	23.657	1856.106	1865.527
373.927	23.774	1855.333	1865.767
374.942	23.846	1854.145	1865.106
375.956	23.837	1852.606	1863.239
376.971	23.694	1849.990	1858.884
377.986	23.436	1847.856	1853.799
379.000	23.436	1847.588	1853.307
380.015	23.840	1846.470	1856.211
381.029	23.903	1844.849	1855.019
382.044	24.008	1842.799	1853.838
383.059	24.134	1840.922	1853.045
384.073	23.981	1840.352	1850.645
385.088	23.626	1839.048	1845.401
386.102	23.580	1837.823	1843.472
387.117	23.739	1835.434	1842.511
388.132	23.866	1835.124	1843.304
389.146	23.775	1836.258	1843.279
390.161	23.948	1834.329	1842.918
391.175	24.050	1829.998	1839.408
392.190	23.990	1827.182	1835.734
393.205	23.770	1826.028	1832.080
394.219	23.884	1824.408	1831.412
395.234	23.807	1823.017	1828.996
396.248	23.806	1820.993	1826.740
397.263	23.695	1819.110	1823.484
398.278	23.738	1816.683	1821.285
399.292	23.590	1816.792	1819.644
400.307	23.913	1815.353	1821.311
401.321	23.914	1814.860	1820.612
402.336	23.578	1812.454	1814.524
403.350	23.420	1811.260	1811.492
404.365	23.709	1810.772	1813.748
405.380	23.907	1808.481	1813.271
406.394	23.641	1808.146	1809.993
407.409	23.379	1806.897	1805.838
408.423	23.412	1803.378	1802.440
409.438	23.256	1802.673	1799.929
410.453	23.366	1801.718	1799.883
411.467	23.706	1801.394	1802.818
412.482	23.778	1800.933	1802.871
413.496	23.968	1798.543	1802.197
414.511	23.895	1796.631	1799.328
415.526	23.854	1794.165	1796.223
416.540	23.958	1792.920	1795.820
417.555	23.834	1792.323	1793.747
418.569	23.940	1791.888	1794.174
419.584	23.975	1792.500	1794.927
420.599	23.920	1791.831	1793.480
421.613	23.929	1790.546	1792.070
422.628	23.939	1788.906	1790.320
423.642	24.078	1787.404	1790.002
424.657	23.841	1785.629	1785.621
425.672	23.685	1783.651	1781.851
426.686	23.848	1782.775	1782.415
427.701	23.886	1782.160	1781.967
428.715	23.970	1779.942	1780.380
429.730	24.101	1778.874	1780.410
430.745	24.157	1778.071	1779.956
431.759	23.841	1777.019	1775.518
432.774	23.324	1774.768	1767.878
433.788	22.934	1771.512	1760.511
434.803	22.535	1771.380	1756.173
435.818	22.646	1770.333	1756.039
436.832	22.556	1769.722	1754.321
437.847	21.470	1761.921	1735.552
438.861	11.930	1736.372	1615.984
439.876	2.158	1717.769	1502.229
440.890	0.406	1714.259	1481.691
441.905	0.269	1712.402	1478.554
442.920	0.375	1711.180	1478.371
443.934	0.276	1709.258	1475.555
444.949	0.316	1708.139	1474.804
445.963	0.188	1707.522	1472.838
446.978	0.225	1706.621	1472.250
447.993	0.199	1705.306	1470.687
449.007	0.327	1702.550	1469.383
450.022	0.189	1701.147	1466.647
451.036	0.422	1700.586	1468.268
452.051	1.526	1703.302	1481.250
453.066	8.657	1722.373	1568.085
454.080	19.211	1741.902	1690.290
455.095	22.775	1748.337	1731.550
456.109	23.959	1749.715	1744.384
457.124	24.348	1749.221	1747.511
458.139	24.214	1748.247	1745.016
459.153	23.982	1747.276	1741.549
460.168	23.916	1744.547	1737.978
461.182	23.958	1742.025	1735.665
462.197	23.930	1740.677	1733.846
463.212	23.802	1739.388	1731.099
464.226	24.008	1737.677	1731.207
465.241	24.078	1737.242	1731.248
466.255	24.068	1735.587	1729.295
467.270	24.159	1734.481	1728.871
468.285	23.991	1732.927	1725.476
469.299	24.014	1731.788	1724.363
470.314	23.935	1729.967	1721.571
471.328	23.906	1728.840	1719.968
472.343	23.995	1727.946	1719.735
473.358	24.061	1726.718	1718.948
474.372	24.177	1724.872	1718.022
475.387	24.015	1724.497	1715.873
476.401	24.208	1722.456	1715.513
477.416	24.132	1721.177	1713.293
478.430	24.180	1720.072	1712.453
479.445	24.245	1718.564	1711.375
480.460	24.031	1717.914	1708.461
481.474	24.104	1717.189	1708.236
482.489	24.241	1715.741	1707.912
483.503	24.257	1713.361	1705.487
484.518	24.183	1712.103	1703.320
485.533	24.087	1711.710	1701.807
486.547	24.179	1710.443	1701.228
487.562	24.283	1708.863	1700.450
488.576	24.396	1707.261	1699.737
489.591	24.271	1706.299	1697.372
490.606	24.411	1704.638	1696.859
491.620	24.382	1703.158	1694.904
492.635	24.415	1701.391	1693.259
493.649	24.164	1700.375	1689.649
494.664	24.055	1698.612	1686.656
495.679	24.046	1696.982	1684.749
496.693	23.963	1696.252	1683.034
497.708	23.995	1695.661	1682.551
498.722	24.081	1694.642	1682.155
499.737	24.126	1692.799	1680.550
500.752	24.216	1690.422	1678.842
501.766	24.102	1689.421	1676.572
502.781	24.232	1687.271	1675.462
503.795	24.236	1685.652	1673.693
504.810	24.184	1685.486	1672.840
505.825	24.240	1685.036	1672.723
506.839	24.172	1683.956	1670.810
507.854	24.230	1681.853	1669.071
508.868	24.214	1680.080	1666.954
509.883	23.979	1679.098	1663.574
510.898	24.197	1677.389	1663.732
511.912	24.136	1675.656	1661.241
512.927	23.971	1674.461	1658.311
513.941	24.092	1673.558	1658.348
514.956	24.335	1672.922	1659.791
515.971	24.509	1671.632	1659.939
516.985	24.376	1670.312	1657.196
518.000	24.247	1669.673	1655.155
519.014	24.225	1668.686	1653.772
520.029	24.233	1666.412	1651.396
521.043	24.088	1664.945	1648.398
522.058	23.935	1664.133	1645.974
523.073	24.066	1663.445	1646.314
524.087	24.208	1662.365	1646.366
525.102	24.179	1660.152	1643.706
526.116	24.174	1658.838	1642.163
527.131	24.143	1658.124	1640.970
528.146	24.261	1657.412	1641.164
529.160	24.223	1656.364	1639.578
530.175	24.216	1655.148	1638.110
531.189	24.260	1654.548	1637.734
532.204	24.322	1652.399	1635.976
533.219	24.203	1651.231	1633.526
534.233	24.101	1650.454	1631.623
535.248	24.109	1649.536	1630.600
536.262	24.280	1648.522	1630.975
537.277	24.479	1646.438	1630.544
538.292	24.409	1645.349	1628.624
539.306	24.267	1643.557	1625.352
540.321	24.243	1641.907	1623.313
541.335	24.250	1640.634	1621.922
542.350	24.408	1639.690	1622.239
543.365	24.319	1638.445	1620.002
544.379	24.508	1636.930	1620.035
545.394	24.314	1636.289	1617.433
546.408	24.273	1634.746	1615.344
547.423	24.237	1632.818	1612.911
548.438	24.120	1631.274	1610.133
549.452	24.210	1630.265	1609.766
550.467	24.210	1629.044	1608.362
551.481	24.280	1628.023	1607.798
552.496	24.272	1627.416	1606.933
553.511	24.322	1627.277	1607.061
554.525	24.419	1625.003	1605.492
555.540	24.320	1624.498	1603.910
556.554	24.271	1622.812	1601.608
557.569	24.300	1621.275	1600.163
558.583	24.232	1620.423	1598.519
559.598	24.292	1618.963	1597.428
560.613	24.181	1617.433	1594.730
561.627	24.297	1616.260	1594.422
562.642	24.122	1614.485	1590.913
563.656	24.094	1612.915	1588.921
564.671	24.129	1612.751	1588.884
565.686	24.158	1611.576	1587.793
566.700	24.311	1609.359	1586.794
567.715	24.186	1608.515	1584.653
568.729	24.350	1607.572	1584.995
569.744	24.488	1606.169	1584.652
570.759	24.545	1604.743	1583.568
571.773	24.404	1604.521	1581.904
572.788	24.506	1602.733	1580.855
573.802	24.420	1600.344	1577.545
574.817	24.270	1598.972	1574.676
575.832	24.128	1598.150	1572.419
576.846	24.236	1596.816	1571.872
577.861	24.223	1595.855	1570.627
578.875	24.303	1594.943	1570.243
579.890	24.267	1594.204	1569.015
580.905	24.252	1592.908	1567.417
581.919	24.329	1592.543	1567.546
582.934	24.283	1591.456	1565.888
583.948	24.261	1589.467	1563.549
584.963	24.215	1587.764	1561.279
585.978	24.214	1587.098	1560.428
586.992	24.295	1586.076	1559.949
588.007	24.222	1585.605	1558.656
589.021	24.230	1584.213	1557.171
590.036	24.171	1582.513	1554.797
591.051	24.345	1581.429	1555.070
592.065	24.263	1580.461	1553.219
593.080	24.628	1578.094	1553.900
594.094	24.478	1576.431	1550.762
595.109	24.239	1575.165	1547.248
596.123	24.227	1573.900	1545.719
597.138	24.275	1572.573	1544.645
598.153	24.208	1571.863	1543.180
599.167	24.296	1570.690	1542.606
600.182	24.350	1569.458	1541.681
601.196	24.327	1568.647	1540.497
602.211	24.251	1567.843	1538.864
603.226	24.291	1565.838	1537.058
604.240	24.088	1564.433	1533.745
605.255	24.164	1563.275	1533.083
606.269	24.394	1562.313	1533.941
607.284	24.227	1560.876	1530.903
608.299	24.277	1559.156	1529.464
609.313	24.136	1559.229	1528.138
610.328	24.332	1557.748	1528.189
611.342	24.170	1556.734	1525.621
612.357	24.276	1555.007	1524.653
613.372	24.320	1553.910	1523.778
614.386	24.180	1552.828	1521.329
615.401	24.225	1552.333	1521.046
616.415	24.159	1551.499	1519.489
617.430	24.179	1550.450	1518.448
618.445	24.124	1549.073	1516.443
619.459	24.079	1547.564	1514.402
620.474	24.208	1548.076	1515.828
621.488	24.396	1546.328	1515.540
622.503	24.503	1544.997	1514.965
623.518	24.368	1543.791	1512.452
624.532	24.256	1542.122	1509.677
625.547	24.382	1540.582	1509.067
626.561	24.108	1540.001	1505.983
627.576	24.024	1538.949	1504.066
628.591	24.329	1537.679	1505.232
629.605	24.554	1537.447	1506.732
630.620	24.589	1535.930	1505.357
631.634	24.545	1535.141	1504.031
632.649	24.633	1534.457	1503.924
633.663	24.627	1532.774	1502.047
634.678	24.481	1530.478	1498.385
635.693	24.288	1528.404	1494.548
636.707	24.120	1526.641	1491.233
637.722	24.056	1525.278	1489.182
638.736	24.006	1524.829	1488.151
639.751	24.192	1524.270	1488.991
640.766	24.338	1522.023	1487.837
641.780	24.149	1521.352	1485.419
642.795	24.130	1520.615	1484.361
643.809	24.232	1520.063	1484.501
644.824	24.232	1519.312	1483.592
645.839	24.299	1518.514	1483.196
646.853	24.342	1516.894	1481.797
647.868	24.288	1515.013	1479.330
648.882	24.317	1513.338	1477.760
649.897	24.349	1512.342	1476.874
650.912	24.383	1510.975	1475.649
651.926	24.307	1510.507	1474.377
652.941	24.251	1509.362	1472.617
653.955	24.312	1507.523	1471.156
654.970	24.166	1505.813	1468.105
655.985	24.074	1504.340	1465.732
656.999	24.134	1502.864	1464.611
658.014	23.966	1502.084	1462.289
659.028	24.060	1501.310	1462.135
660.043	24.314	1500.252	1463.028
661.058	24.323	1499.572	1462.262
662.072	24.347	1497.828	1460.586
663.087	24.237	1496.749	1458.453
664.101	24.281	1495.030	1456.960
665.116	24.088	1494.716	1454.896
666.131	24.320	1493.447	1455.391
667.145	24.341	1491.828	1453.808
668.160	24.102	1491.228	1451.098
669.174	24.167	1489.173	1449.457
670.189	24.122	1488.251	1448.018
671.204	24.367	1488.116	1449.708
672.218	24.257	1487.406	1447.950
673.233	24.297	1485.962	1446.693
674.247	24.114	1484.416	1443.524
675.262	24.089	1483.225	1441.996
676.276	24.167	1481.952	1441.218
677.291	24.006	1482.125	1439.903
678.306	24.252	1480.387	1440.042
679.320	24.251	1478.834	1438.349
680.335	23.932	1478.769	1435.524
681.349	24.009	1478.492	1435.711
682.364	24.102	1476.504	1434.359
683.379	24.171	1474.747	1433.038
684.393	24.123	1473.348	1431.123
685.408	24.074	1472.317	1429.549
686.422	24.051	1471.316	1428.224
687.437	23.937	1471.171	1426.993
688.452	23.767	1470.211	1424.517
689.466	24.109	1468.040	1424.997
690.481	24.070	1467.430	1423.925
691.495	24.061	1467.186	1423.439
692.510	24.392	1466.664	1425.423
693.525	24.474	1465.286	1424.569
694.539	24.479	1463.563	1422.765
695.554	24.241	1462.403	1419.563
696.568	23.910	1461.220	1415.593
697.583	23.795	1459.786	1413.121
698.598	23.823	1459.096	1412.503
699.612	23.979	1457.478	1412.012
700.627	23.927	1456.210	1410.206
701.641	24.056	1455.233	1410.116
702.656	23.995	1453.988	1408.256
703.671	23.980	1453.809	1407.795
704.685	24.014	1453.964	1408.045
705.700	23.919	1452.336	1405.550
706.714	24.077	1450.166	1404.528
707.729	24.084	1448.778	1403.075
708.744	24.235	1447.476	1402.839
709.758	24.122	1446.008	1400.354
710.773	24.085	1445.225	1399.136
711.787	24.046	1444.383	1397.844
712.802	24.157	1442.440	1396.671
713.816	24.266	1441.012	1395.984
714.831	24.234	1440.422	1394.993
715.846	24.147	1439.526	1393.270
716.860	24.027	1438.698	1391.362
717.875	23.903	1437.749	1389.305
718.889	24.131	1436.329	1389.557
719.904	23.971	1435.455	1387.292
720.919	24.074	1433.361	1385.906
721.933	24.009	1432.471	1384.370
722.948	23.997	1431.371	1383.050
723.962	23.851	1430.873	1381.261
724.977	23.845	1429.813	1380.027
725.992	23.863	1429.126	1379.339
727.006	23.969	1427.530	1378.455
728.021	23.822	1426.345	1376.007
729.035	23.859	1425.073	1374.903
730.050	24.029	1423.922	1374.946
731.065	23.885	1422.800	1372.584
732.079	23.968	1421.661	1371.958
733.094	24.036	1420.458	1371.161
734.108	23.970	1419.411	1369.473
735.123	23.991	1417.605	1367.731
736.138	24.019	1416.721	1366.932
737.152	24.012	1415.864	1365.888
738.167	23.893	1414.237	1363.234
739.181	24.012	1413.636	1363.409
740.196	23.786	1413.477	1361.352
741.211	23.872	1412.349	1360.770
742.225	23.962	1411.247	1360.235
743.240	23.986	1409.291	1358.371
744.254	23.905	1407.985	1356.327
745.269	23.786	1407.685	1354.966
746.284	23.689	1406.460	1352.878
747.298	23.841	1406.145	1353.581
748.313	24.100	1405.204	1354.492
749.327	24.355	1404.869	1355.956
750.342	24.427	1404.492	1355.982
751.356	24.551	1403.170	1355.489
752.371	24.329	1401.622	1352.136
753.386	24.089	1399.628	1348.226
754.400	23.767	1398.933	1344.942
755.415	23.935	1397.229	1344.422
756.429	23.959	1395.831	1343.100
757.444	23.799	1395.457	1341.366
758.459	23.790	1394.277	1339.997
759.473	23.896	1392.495	1338.926
760.488	23.843	1391.383	1337.301
761.502	23.901	1389.896	1336.151
762.517	23.984	1389.649	1336.381
763.532	23.918	1388.667	1334.778
764.546	23.867	1387.469	1333.078
765.561	23.834	1386.676	1331.906
766.575	23.945	1385.942	1331.882
767.590	23.917	1385.009	1330.615
768.605	23.995	1383.466	1329.558
769.619	24.013	1382.079	1328.202
770.634	23.832	1381.251	1325.888
771.648	23.800	1379.809	1324.105
772.663	23.600	1379.240	1321.908
773.678	23.655	1378.191	1321.150
774.692	23.814	1377.598	1321.616
775.707	23.761	1377.043	1320.525
776.721	23.663	1376.197	1318.824
777.736	23.650	1374.842	1317.271
778.751	23.741	1374.042	1317.026
779.765	23.738	1372.766	1315.627
780.780	23.758	1371.933	1314.821
781.794	23.977	1370.734	1315.135
782.809	23.665	1369.652	1311.629
783.824	23.626	1368.436	1310.017
784.838	23.705	1367.646	1309.689
785.853	24.082	1367.465	1312.155
786.867	24.163	1366.596	1311.759
787.882	23.915	1366.017	1309.212
788.897	23.919	1364.523	1307.655
789.911	23.766	1362.810	1304.723
790.926	23.570	1362.057	1302.406
791.940	23.677	1360.015	1301.080
792.955	23.645	1358.437	1299.185
793.969	23.573	1357.578	1297.680
794.984	23.487	1357.467	1296.780
795.999	23.603	1355.951	1296.029
797.013	23.696	1353.922	1294.618
798.028	23.666	1352.928	1293.293
799.042	23.709	1352.416	1292.965
800.057	23.619	1351.327	1291.110
801.072	23.656	1349.884	1289.845
802.086	23.641	1348.759	1288.504
803.101	23.543	1347.772	1286.692
804.115	23.757	1346.782	1287.159
805.130	23.660	1345.820	1285.374
806.145	23.590	1344.243	1283.208
807.159	23.488	1343.085	1281.209
808.174	23.744	1342.296	1282.162
809.188	23.827	1340.944	1281.315
810.203	23.809	1339.429	1279.585
811.218	23.838	1338.119	1278.392
812.232	23.805	1337.105	1277.026
813.247	23.743	1335.786	1275.171
814.261	23.620	1335.480	1273.833
815.276	23.889	1334.289	1274.491
816.291	23.594	1332.786	1270.779
817.305	23.555	1331.692	1269.297
818.320	23.589	1330.062	1267.836
819.334	23.682	1329.189	1267.521
820.349	23.610	1328.177	1265.890
821.364	23.573	1326.517	1263.887
822.378	23.522	1325.404	1262.316
823.393	23.476	1323.607	1260.123
824.407	23.430	1322.611	1258.692
825.422	23.534	1322.202	1258.898
826.437	23.359	1321.094	1256.444
827.451	23.510	1319.949	1256.281
828.466	23.831	1319.506	1257.994
829.480	24.050	1317.657	1257.635
830.495	23.958	1315.400	1254.678
831.509	23.717	1314.314	1251.781
832.524	23.508	1313.601	1249.475
833.539	23.622	1311.907	1248.523
834.553	23.450	1310.954	1246.250
835.568	23.535	1309.376	1245.199
836.582	23.591	1308.301	1244.420
837.597	23.680	1306.671	1243.348
838.612	23.482	1306.122	1241.289
839.626	23.618	1304.973	1241.002
840.641	23.700	1304.277	1240.764
841.655	23.753	1303.557	1240.309
842.670	23.640	1302.577	1238.434
843.685	23.748	1302.181	1238.661
844.699	23.651	1300.487	1236.225
845.714	23.718	1298.878	1235.019
846.728	23.587	1297.980	1233.098
847.743	23.610	1296.518	1231.726
848.758	23.502	1295.159	1229.536
849.772	23.366	1293.968	1227.310
850.787	23.349	1292.300	1225.464
851.801	23.389	1291.452	1224.790
852.816	23.477	1290.554	1224.400
853.831	23.435	1289.375	1222.842
854.845	23.251	1287.984	1220.103
855.860	23.333	1286.156	1218.792
856.874	23.473	1285.235	1218.746
857.889	23.793	1284.213	1219.839
858.904	24.037	1283.304	1220.511
859.918	24.151	1282.263	1220.157
860.933	24.093	1281.041	1218.449
861.947	23.880	1280.221	1216.063
862.962	23.833	1278.162	1213.638
863.977	23.591	1276.997	1210.728
864.991	23.414	1276.038	1208.459
866.006	23.278	1275.951	1207.297
867.020	23.431	1274.252	1206.592
868.035	23.256	1272.686	1203.774
869.049	23.374	1271.787	1203.585
870.064	23.362	1270.769	1202.395
871.079	23.359	1270.758	1202.218
872.093	23.287	1269.526	1200.415
873.108	23.510	1267.990	1200.339
874.122	23.513	1267.199	1199.469
875.137	23.569	1267.136	1199.644
876.152	23.607	1266.295	1198.960
877.166	23.703	1263.940	1197.244
878.181	23.536	1262.817	1194.901
879.195	23.386	1262.162	1193.121
880.210	23.286	1261.521	1191.700
881.225	23.364	1259.990	1190.634
882.239	23.421	1258.631	1189.597
883.254	23.510	1257.610	1189.087
884.268	23.377	1257.180	1187.646
885.283	23.363	1255.721	1186.026
886.298	23.454	1253.849	1184.732
887.312	23.476	1252.969	1183.904
888.327	23.391	1252.148	1182.418
889.341	23.440	1250.815	1181.344
890.356	23.386	1250.252	1180.309
891.371	23.485	1250.313	1180.886
892.385	23.355	1249.888	1179.474
893.400	23.366	1248.991	1178.565
894.414	23.496	1247.751	1178.120
895.429	23.811	1246.075	1178.492
896.444	24.044	1245.022	1178.907
897.458	24.349	1244.010	1179.837
898.473	23.927	1243.410	1176.322
899.487	23.752	1241.597	1173.306
900.502	23.656	1240.066	1171.083
901.517	23.384	1238.668	1167.818
902.531	23.537	1237.498	1167.592
903.546	23.377	1237.149	1166.062
904.560	23.427	1236.274	1165.430
905.575	23.337	1235.799	1164.249
906.589	23.256	1234.962	1162.782
907.604	23.369	1234.264	1162.737
