DTS Sentinel unit serial number:	SN409020Multiplexer serial number:	ORYXHardware model number:	OX4-SRSoftware version number:	ORYX F/W v3.00 Oryx Data Collector v3.7.2.0data status	okinstallation	HaddamTimeLapsedifferential loss correction	single-endedforward channel	channel 3reverse channel	N/Adate	2011/06/21time	19:31:17forward acquisition time	30.00reverse acquisition time	0.00gamma	498.7831k internal	0.1796k external	0.1796temperature offset calibration	1.0074default loss term (dB/km)	0.3790temperature slope calibration	1.3530multiplexer offset coefficient	1.0000multiplexer slope coefficient	1.0000fibre end	0.00T internal ref (°C)	33.81T ext. ref 1 (°C)	25.93T ext. ref 2 (°C)	0.25length (m)	temperature (°C)	Stokes	anti-Stokes-747.200	4.177	-0.284	0.269
-746.185	-136.649	-0.242	0.036
-745.171	-200.000	-0.029	-0.311
-744.156	-116.673	0.541	-0.128
-743.142	-56.443	-0.192	0.110
-742.127	-200.000	0.035	0.491
-741.112	101.184	-0.116	-0.176
-740.098	307.726	0.254	0.616
-739.083	15.558	-0.387	0.393
-738.069	-22.734	-0.323	-0.252
-737.054	-48.581	-0.200	-0.124
-736.039	-58.358	-0.437	0.245
-735.025	-200.000	0.038	0.264
-734.010	487.587	-0.037	-0.110
-732.996	-176.822	-0.095	0.003
-731.981	22.662	0.160	-0.169
-730.966	66.410	-0.305	-0.402
-729.952	224.914	0.174	-0.366
-728.937	133.209	-0.153	0.256
-727.923	-200.000	0.025	-0.396
-726.908	-73.163	-0.697	0.329
-725.894	-25.331	-0.139	-0.107
-724.879	-79.760	0.324	-0.141
-723.864	-32.149	0.339	-0.245
-722.850	-102.097	0.432	0.134
-721.835	-200.000	-0.010	-0.326
-720.821	193.170	-0.280	-0.550
-719.806	-35.237	0.080	0.056
-718.791	-42.337	-0.184	-0.121
-717.777	-132.156	0.388	0.064
-716.762	-59.064	-0.213	-0.119
-715.748	-200.000	0.006	-0.449
-714.733	-135.832	-0.297	0.045
-713.718	800.000	-0.037	0.160
-712.704	-94.021	0.278	0.098
-711.689	137.377	-0.113	0.192
-710.675	-40.788	-0.096	0.064
-709.660	-58.994	-0.133	0.074
-708.645	-199.490	-0.516	0.003
-707.631	-200.000	-0.039	-0.420
-706.616	-49.168	-0.233	-0.144
-705.602	-66.833	0.302	-0.154
-704.587	522.291	-0.133	-0.406
-703.572	360.945	-0.117	-0.303
-702.558	-93.304	-0.113	0.040
-701.543	152.810	0.196	0.347
-700.529	-58.102	0.249	0.140
-699.514	-120.498	0.129	-0.028
-698.499	-81.179	0.211	-0.090
-697.485	-31.499	0.391	0.284
-696.470	-89.730	0.348	-0.131
-695.456	-50.001	-0.364	-0.222
-694.441	97.196	0.283	-0.420
-693.426	-10.557	-0.172	-0.147
-692.412	-200.000	0.038	-0.360
-691.397	696.385	-0.043	-0.147
-690.383	-200.000	-0.037	0.225
-689.368	-200.000	0.055	0.409
-688.354	-200.000	-0.209	-0.001
-687.339	-200.000	-0.323	-0.001
-686.324	-200.000	0.015	0.221
-685.310	-200.000	-0.035	0.579
-684.295	320.246	-0.136	0.336
-683.281	800.000	-0.088	-0.388
-682.266	-159.976	0.458	0.032
-681.251	104.336	0.081	-0.124
-680.237	296.288	0.029	0.068
-679.222	-16.899	0.061	-0.050
-678.208	626.040	0.118	-0.386
-677.193	-21.423	0.345	0.272
-676.178	-67.282	-0.269	0.136
-675.164	-141.052	0.214	-0.028
-674.149	184.787	0.125	-0.240
-673.135	-176.103	0.253	0.008
-672.120	154.458	0.086	0.153
-671.105	-154.599	0.429	0.036
-670.091	-200.000	-0.053	-0.335
-669.076	-41.468	-0.116	0.077
-668.062	-177.776	-0.035	-0.001
-667.047	220.222	0.110	-0.229
-666.032	-119.104	0.284	-0.064
-665.018	-200.000	0.028	0.238
-664.003	-145.506	0.198	0.023
-662.989	116.744	0.212	-0.336
-661.974	43.645	-0.324	0.383
-660.959	-90.771	-0.192	-0.071
-659.945	184.114	-0.094	0.180
-658.930	-132.023	0.198	0.033
-657.916	17.135	0.453	-0.463
-656.901	330.935	-0.201	-0.503
-655.886	45.445	-0.261	-0.312
-654.872	-165.918	-0.204	0.011
-653.857	382.386	0.110	-0.292
-652.843	21.620	0.289	-0.303
-651.828	122.422	-0.074	-0.119
-650.814	-75.467	-0.124	0.057
-649.799	496.000	0.011	0.033
-648.784	800.000	0.056	-0.300
-647.770	-133.834	0.350	-0.056
-646.755	-96.155	0.300	-0.102
-645.741	-200.000	-0.009	0.128
-644.726	-54.680	0.572	-0.332
-643.711	-156.882	0.387	0.030
-642.697	-8.909	0.075	0.065
-641.682	291.766	0.034	0.081
-640.668	38.419	-0.062	-0.071
-639.653	-161.813	0.266	0.017
-638.638	12.099	-0.091	-0.090
-637.624	-85.832	-0.131	-0.052
-636.609	-52.554	0.364	0.216
-635.595	-189.872	-0.398	-0.006
-634.580	475.401	0.045	-0.131
-633.565	800.000	-0.046	-0.231
-632.551	-200.000	-0.011	-0.142
-631.536	-14.838	-0.192	-0.159
-630.522	-29.252	-0.150	0.111
-629.507	18.328	0.545	-0.560
-628.492	-200.000	-0.021	0.366
-627.478	25.276	0.252	-0.270
-626.463	457.405	0.147	-0.424
-625.449	3.724	0.180	-0.170
-624.434	-200.000	0.065	-0.000
-623.419	110.097	0.096	-0.148
-622.405	590.374	-0.081	-0.260
-621.390	-172.397	0.206	-0.008
-620.376	-97.373	0.260	-0.087
-619.361	88.436	0.207	-0.297
-618.346	-200.000	0.048	0.430
-617.332	118.190	0.258	0.411
-616.317	-200.000	0.004	-0.468
-615.303	13.634	-0.300	-0.301
-614.288	263.075	-0.085	0.191
-613.273	98.378	-0.162	-0.241
-612.259	-120.776	0.539	0.116
-611.244	112.327	0.289	0.451
-610.230	196.926	0.063	0.124
-609.215	-41.189	-0.585	-0.388
-608.201	-4.027	-0.241	0.215
-607.186	-158.300	0.061	0.005
-606.171	-200.000	0.025	-0.599
-605.157	23.937	0.270	0.287
-604.142	800.000	-0.049	-0.193
-603.128	-200.000	-0.003	-0.164
-602.113	51.102	-0.162	-0.198
-601.098	0.648	0.202	-0.186
-600.084	119.994	-0.226	0.362
-599.069	800.000	-0.077	-0.362
-598.055	-136.081	0.150	0.022
-597.040	-162.665	0.083	0.005
-596.025	-84.544	-0.692	-0.280
-595.011	136.531	-0.096	0.161
-593.996	-200.000	0.034	0.362
-592.982	-200.000	0.001	-0.335
-591.967	110.753	-0.113	-0.175
-590.952	127.117	-0.140	0.229
-589.938	800.000	0.036	-0.184
-588.923	-2.693	0.434	-0.390
-587.909	-179.608	-0.118	-0.003
-586.894	-6.131	0.064	0.056
-585.879	-11.762	-0.125	0.106
-584.865	-200.000	-0.015	-0.093
-583.850	-200.000	0.030	0.363
-582.836	-200.000	0.013	0.100
-581.821	-52.916	-0.113	-0.067
-580.806	-3.990	0.202	0.180
-579.792	-87.351	0.170	-0.066
-578.777	-39.834	0.167	-0.112
-577.763	-104.381	0.313	-0.093
-576.748	-34.455	-0.224	0.158
-575.733	4.559	0.173	0.164
-574.719	51.995	0.168	0.206
-573.704	-61.924	-0.208	-0.112
-572.690	-154.261	0.234	0.020
-571.675	800.000	0.066	0.286
-570.661	-91.226	0.356	0.131
-569.646	590.066	0.120	-0.383
-568.631	-184.148	-0.460	-0.010
-567.617	646.036	0.040	-0.131
-566.602	-54.361	0.189	-0.110
-565.588	-153.267	0.503	-0.045
-564.573	-28.091	0.210	-0.156
-563.558	-33.833	0.195	0.138
-562.544	14.635	-0.133	-0.134
-561.529	-175.475	-0.303	0.010
-560.515	-110.067	-0.340	-0.091
-559.500	-200.000	-0.032	0.366
-558.485	411.278	-0.023	-0.064
-557.471	96.836	-0.112	-0.165
-556.456	800.000	-0.030	0.166
-555.442	-94.145	0.398	-0.139
-554.427	-97.415	-0.224	0.075
-553.412	-35.857	-0.650	-0.452
-552.398	36.527	-0.107	-0.121
-551.383	800.000	-0.052	-0.294
-550.369	29.859	-0.027	-0.029
-549.354	-112.373	0.310	0.079
-548.339	124.060	-0.205	0.331
-547.325	0.540	-0.362	-0.332
-546.310	800.000	0.115	0.608
-545.296	-65.782	0.036	-0.018
-544.281	81.999	0.228	0.317
-543.266	800.000	-0.052	0.210
-542.252	219.910	-0.034	-0.070
-541.237	109.685	-0.056	0.087
-540.223	-8.458	-0.293	0.253
-539.208	-160.557	-0.464	-0.031
-538.193	-35.228	0.138	0.096
-537.179	-200.000	-0.025	-0.557
-536.164	800.000	-0.052	-0.200
-535.150	-104.118	0.566	0.168
-534.135	-70.107	0.068	-0.033
-533.121	-98.644	-0.278	0.090
-532.106	-80.290	0.529	-0.226
-531.091	-6.442	-0.253	-0.221
-530.077	19.432	0.049	-0.051
-529.062	-200.000	-0.012	0.500
-528.048	-12.666	0.077	-0.064
-527.033	-46.346	0.370	-0.233
-526.018	-79.795	-0.138	-0.059
-525.004	-200.000	0.015	-0.247
-523.989	65.452	-0.533	-0.693
-522.975	23.700	-0.267	-0.282
-521.960	-200.000	0.004	-0.542
-520.945	-117.679	-0.326	-0.075
-519.931	-200.000	-0.023	-0.151
-518.916	231.129	-0.110	-0.232
-517.902	240.294	-0.249	0.534
-516.887	-108.691	-0.096	-0.026
-515.872	208.503	-0.064	0.130
-514.858	-113.547	0.164	-0.041
-513.843	-100.110	0.064	0.020
-512.829	151.023	0.173	0.303
-511.814	-91.743	0.382	-0.139
-510.799	-16.067	0.584	0.476
-509.785	-141.881	0.271	-0.034
-508.770	-113.687	-0.304	-0.076
-507.756	800.000	0.091	-0.395
-506.741	10.146	0.128	0.125
-505.726	290.541	-0.110	0.256
-504.712	800.000	0.109	-0.548
-503.697	255.965	0.315	0.697
-502.683	187.423	0.086	-0.165
-501.668	-200.000	0.018	0.110
-500.653	-118.608	0.295	0.066
-499.639	95.231	0.183	-0.268
-498.624	800.000	-0.089	-0.343
-497.610	-77.699	-0.360	-0.159
-496.595	90.101	0.206	0.296
-495.581	-58.771	0.379	0.210
-494.566	238.063	-0.045	0.096
-493.551	255.178	-0.157	-0.346
-492.537	-9.741	0.147	0.126
-491.522	-200.000	0.039	-0.222
-490.508	-94.500	-0.289	0.101
-489.493	141.275	-0.083	0.141
-488.478	-14.000	0.237	-0.196
-487.464	-50.967	-0.343	-0.206
-486.449	-13.088	0.221	0.184
-485.435	-47.220	-0.214	-0.133
-484.420	-118.458	-0.462	-0.104
-483.405	-200.000	0.001	0.138
-482.391	-89.819	0.183	0.068
-481.376	-184.143	0.328	0.007
-480.362	63.028	0.047	0.060
-479.347	-7.775	-0.710	0.614
-478.332	-124.482	0.174	0.034
-477.318	-159.285	0.319	-0.023
-476.303	-56.285	-0.151	-0.086
-475.289	-37.880	0.440	0.299
-474.274	84.466	-0.050	0.071
-473.259	-17.769	-0.262	-0.210
-472.245	-97.905	0.349	-0.115
-471.230	8.006	0.194	0.186
-470.216	39.972	0.134	-0.154
-469.201	-162.485	-0.149	0.009
-468.186	432.421	-0.092	0.257
-467.172	800.000	-0.092	-0.338
-466.157	-21.981	-0.391	-0.304
-465.143	157.074	-0.178	-0.316
-464.128	4.128	-0.244	0.229
-463.113	-174.228	0.205	0.007
-462.099	-114.820	-0.245	0.059
-461.084	-76.743	0.270	-0.120
-460.070	-175.462	0.205	-0.007
-459.055	306.159	0.060	-0.144
-458.040	-83.917	-0.231	-0.094
-457.026	2.148	0.042	0.039
-456.011	-200.000	0.036	-0.430
-454.997	685.191	0.158	-0.531
-453.982	-91.532	0.475	0.173
-452.968	7.476	0.218	0.209
-451.953	14.591	-0.333	0.332
-450.938	467.624	0.088	0.254
-449.924	28.739	0.369	0.400
-448.909	-172.287	0.100	-0.004
-447.895	309.296	0.059	0.141
-446.880	86.512	0.247	0.349
-445.865	139.335	0.053	-0.089
-444.851	-45.931	0.541	0.341
-443.836	204.423	0.263	0.523
-442.822	165.827	-0.208	0.377
-441.807	800.000	-0.049	0.187
-440.792	-166.753	-0.033	0.002
-439.778	-17.562	0.183	-0.147
-438.763	-10.329	-0.154	-0.131
-437.749	-200.000	0.048	0.739
-436.734	395.777	0.086	-0.230
-435.719	800.000	-0.067	0.367
-434.705	-153.261	-0.341	0.030
-433.690	-200.000	-0.046	-0.398
-432.676	-200.000	-0.008	-0.194
-431.661	-178.411	-0.019	0.001
-430.646	-65.171	-0.490	-0.252
-429.632	-94.458	-0.355	-0.123
-428.617	-200.000	-0.005	-0.222
-427.603	-200.000	-0.032	0.496
-426.588	245.572	-0.131	0.284
-425.573	-145.136	-0.524	-0.060
-424.559	-144.593	-0.289	0.034
-423.544	10.771	-0.153	0.149
-422.530	800.000	-0.101	0.518
-421.515	87.926	0.302	0.428
-420.500	13.357	0.335	0.332
-419.486	183.501	-0.224	0.424
-418.471	-200.000	-0.015	-0.340
-417.457	113.113	0.096	0.149
-416.442	800.000	0.044	-0.196
-415.428	205.954	-0.093	0.186
-414.413	-10.779	-0.177	-0.149
-413.398	-81.670	0.079	0.033
-412.384	-70.100	-0.111	0.054
-411.369	-184.021	0.348	0.007
-410.355	-54.141	-0.325	-0.188
-409.340	-87.327	-0.503	-0.194
-408.325	-105.022	-0.340	0.099
-407.311	-79.795	-0.161	-0.069
-406.296	153.449	0.179	0.313
-405.282	40.142	-0.155	0.178
-404.267	-74.709	0.346	-0.158
-403.252	-200.000	-0.017	0.153
-402.238	-134.666	0.239	-0.037
-401.223	-3.460	-0.097	0.086
-400.209	-162.761	-0.379	0.023
-399.194	-174.824	-0.258	0.009
-398.179	-2.194	0.216	0.193
-397.165	-164.695	0.428	-0.024
-396.150	112.307	0.043	0.067
-395.136	-103.613	0.328	0.098
-394.121	196.389	-0.067	-0.130
-393.106	242.104	-0.082	0.177
-392.092	-47.076	0.359	0.223
-391.077	-136.382	0.561	-0.083
-390.063	471.946	0.078	-0.226
-389.048	-42.690	-0.190	0.123
-388.033	-0.734	-0.175	0.158
-387.019	800.000	-0.069	0.292
-386.004	-108.224	0.275	-0.076
-384.990	129.135	0.102	0.167
-383.975	-73.643	-0.510	0.236
-382.960	-200.000	0.033	0.446
-381.946	-200.000	-0.017	0.389
-380.931	507.521	-0.166	-0.494
-379.917	-39.924	-0.412	0.274
-378.902	-118.120	-0.231	0.052
-377.888	-140.279	0.531	-0.070
-376.873	65.182	0.303	-0.392
-375.858	-200.000	-0.012	0.239
-374.844	-8.590	0.209	-0.179
-373.829	516.112	-0.163	0.487
-372.815	800.000	-0.111	0.451
-371.800	574.029	-0.057	-0.179
-370.785	113.005	0.155	0.241
-369.771	84.246	-0.273	0.382
-368.756	-149.975	0.318	-0.031
-367.742	242.143	-0.177	0.378
-366.727	-200.000	0.061	-0.389
-365.712	-161.638	0.137	-0.009
-364.698	-156.774	0.302	0.023
-363.683	-200.000	-0.071	-0.583
-362.669	-84.622	0.210	-0.084
-361.654	139.769	-0.046	0.078
-360.639	63.244	0.242	0.309
-359.625	800.000	0.037	0.146
-358.610	-200.000	0.009	0.574
-357.596	424.172	-0.110	0.304
-356.581	-200.000	0.002	-0.404
-355.566	-178.250	0.389	-0.011
-354.552	800.000	-0.037	-0.153
-353.537	-52.444	0.379	0.223
-352.523	236.388	-0.204	-0.431
-351.508	-6.703	0.159	-0.138
-350.493	800.000	-0.101	-0.473
-349.479	131.733	0.274	-0.451
-348.464	-200.000	-0.006	0.045
-347.450	170.488	0.143	0.262
-346.435	-34.750	0.278	-0.193
-345.420	-127.040	0.523	-0.097
-344.406	-124.747	-0.208	0.041
-343.391	141.902	-0.093	0.157
-342.377	-96.676	-0.486	0.162
-341.362	39.350	-0.429	0.490
-340.348	-200.000	0.064	-0.510
-339.333	-121.072	-0.237	0.050
-338.318	-200.000	0.006	0.043
-337.304	69.633	0.295	0.388
-336.289	582.137	-0.079	0.249
-335.275	-150.746	0.434	-0.042
-334.260	-41.148	0.305	-0.200
-333.245	520.905	0.023	-0.070
-332.231	-52.878	0.399	0.233
-331.216	1.597	0.169	0.155
-330.202	7.811	-0.222	0.212
-329.187	421.526	0.200	0.550
-328.172	-42.137	0.495	-0.321
-327.158	289.895	-0.199	-0.462
-326.143	-75.225	-0.198	-0.090
-325.129	-96.903	-0.480	-0.160
-324.114	-7.928	-0.652	-0.560
-323.099	-27.380	-0.435	-0.321
-322.085	-32.230	0.275	-0.195
-321.070	389.823	0.083	-0.219
-320.056	453.489	0.179	-0.507
-319.041	800.000	-0.060	-0.216
-318.026	-200.000	-0.027	0.237
-317.012	-200.000	0.088	-0.652
-315.997	-25.255	-0.132	0.099
-314.983	800.000	0.017	-0.064
-313.968	677.686	-0.047	-0.158
-312.953	188.331	0.211	0.404
-311.939	800.000	0.063	0.231
-310.924	-51.860	-0.304	-0.180
-309.910	417.877	0.193	0.528
-308.895	800.000	-0.022	0.117
-307.880	-120.984	-0.552	0.117
-306.866	374.059	0.088	-0.229
-305.851	133.700	0.218	0.359
-304.837	-115.455	-0.243	-0.058
-303.822	-200.000	-0.094	-0.532
-302.807	8.626	0.115	-0.111
-301.793	-200.000	0.027	-0.366
-300.778	83.022	0.413	-0.573
-299.764	3.549	-0.097	0.090
-298.749	30.447	0.307	-0.334
-297.735	-200.000	0.017	0.262
-296.720	306.664	0.152	0.362
-295.705	1.213	-0.217	-0.198
-294.691	223.683	0.021	-0.043
-293.676	-132.442	0.329	0.053
-292.662	28.616	0.265	-0.286
-291.647	800.000	0.035	0.150
-290.632	-46.399	-0.376	-0.234
-289.618	-104.672	-0.263	-0.077
-288.603	-74.700	-0.369	0.168
-287.589	-70.488	-0.190	-0.091
-286.574	-59.977	0.392	0.212
-285.559	17.920	0.124	-0.125
-284.545	23.441	-0.189	0.197
-283.530	125.598	-0.080	0.128
-282.516	-82.694	-0.161	-0.066
-281.501	38.832	0.106	0.120
-280.486	-200.000	-0.004	-0.323
-279.472	323.852	0.090	-0.220
-278.457	-159.799	0.219	0.015
-277.443	800.000	-0.066	-0.304
-276.428	-31.059	-0.126	-0.090
-275.413	-88.598	0.452	-0.170
-274.399	-63.569	0.821	-0.427
-273.384	329.460	-0.131	-0.321
-272.370	-5.612	-0.413	-0.359
-271.355	-5.877	0.364	0.317
-270.340	128.739	-0.176	-0.286
-269.326	166.687	0.234	-0.422
-268.311	-37.390	0.087	0.059
-267.297	-200.000	-0.017	-0.430
-266.282	225.016	-0.231	-0.476
-265.267	-130.763	0.236	-0.040
-264.253	-90.986	0.127	-0.046
-263.238	131.299	0.065	0.107
-262.224	322.689	0.053	-0.128
-261.209	-154.098	-0.191	-0.016
-260.195	800.000	-0.110	0.557
-259.180	-102.321	0.164	0.050
-258.165	93.726	-0.193	0.278
-257.151	-200.000	-0.048	0.282
-256.136	-10.038	0.315	0.266
-255.122	-0.926	-0.332	-0.299
-254.107	39.423	-0.142	-0.162
-253.092	-137.278	-0.324	0.046
-252.078	-200.000	0.021	-0.315
-251.063	297.253	-0.164	0.383
-250.049	153.648	-0.185	-0.324
-249.034	-200.000	-0.029	-0.374
-248.019	126.356	-0.106	-0.170
-247.005	-40.897	-0.307	0.201
-245.990	-10.225	-0.302	-0.254
-244.976	-149.134	-0.307	0.031
-243.961	-114.270	-0.296	0.072
-242.946	32.061	-0.264	0.289
-241.932	74.724	-0.261	0.349
-240.917	-103.219	0.207	-0.062
-239.903	198.743	0.211	0.412
-238.888	272.180	-0.038	-0.086
-237.873	368.695	0.120	-0.308
-236.859	17.148	0.376	-0.378
-235.844	-142.163	0.175	-0.022
-234.830	603.859	-0.102	-0.323
-233.815	-150.958	-0.451	-0.043
-232.800	-15.126	0.039	-0.031
-231.786	-133.087	0.439	-0.070
-230.771	37.083	0.139	0.156
-229.757	61.574	-0.049	-0.062
-228.742	-31.352	-0.168	-0.120
-227.727	-5.121	-0.464	0.404
-226.713	213.413	0.219	-0.440
-225.698	-74.023	0.721	-0.330
-224.684	-86.688	0.336	-0.130
-223.669	8.133	-0.284	-0.270
-222.655	-65.285	-0.352	-0.179
-221.640	377.548	-0.093	0.242
-220.625	-108.255	-0.364	0.099
-219.611	391.449	-0.182	0.483
-218.596	-158.720	-0.398	0.029
-217.582	-87.938	-0.388	0.147
-216.567	-17.088	-0.215	0.172
-215.552	-12.911	-0.300	0.247
-214.538	-139.219	-0.368	0.050
-213.523	532.806	0.103	-0.310
-212.509	800.000	0.064	-0.339
-211.494	-200.000	0.025	-0.336
-210.479	171.452	-0.204	-0.373
-209.465	-16.092	-0.506	0.407
-208.450	-200.000	0.042	-0.485
-207.436	-77.559	-0.111	-0.049
-206.421	-179.951	0.147	-0.004
-205.406	99.882	-0.261	-0.384
-204.392	-117.918	-0.509	0.115
-203.377	-121.519	-0.173	0.036
-202.363	122.755	-0.259	0.411
-201.348	123.690	0.096	-0.154
-200.333	21.301	0.197	0.203
-199.319	243.935	0.032	-0.069
-198.304	-32.228	0.250	-0.177
-197.290	800.000	-0.040	0.157
-196.275	555.826	0.191	-0.586
-195.260	800.000	0.028	-0.101
-194.246	800.000	0.100	0.520
-193.231	38.798	-0.145	0.164
-192.217	-141.873	0.185	-0.023
-191.202	-87.135	0.188	-0.072
-190.187	0.478	0.312	0.283
-189.173	83.854	-0.360	0.499
-188.158	41.028	-0.411	0.471
-187.144	-51.143	-0.179	0.106
-186.129	-146.312	0.372	-0.041
-185.114	14.984	0.067	0.066
-184.100	60.937	-0.100	0.126
-183.085	800.000	-0.088	0.340
-182.071	97.416	-0.084	0.122
-181.056	-197.699	-0.513	-0.004
-180.042	123.633	-0.040	-0.064
-179.027	16.386	0.208	0.208
-178.012	-81.780	-0.434	0.179
-176.998	-67.564	-0.110	-0.054
-175.983	39.694	-0.035	0.040
-174.969	-90.292	-0.242	-0.089
-173.954	-112.720	-0.479	0.120
-172.939	46.366	-0.456	0.535
-171.925	256.302	0.124	0.271
-170.910	800.000	0.133	0.641
-169.896	-128.224	-0.330	0.059
-168.881	30.958	-0.148	-0.160
-167.866	101.955	0.137	0.203
-166.852	-87.542	0.224	0.085
-165.837	224.292	0.081	-0.166
-164.823	-27.230	0.124	-0.091
-163.808	800.000	0.018	-0.087
-162.793	37.833	0.230	0.259
-161.779	-132.775	0.211	-0.034
-160.764	103.513	-0.132	0.196
-159.750	-35.782	-0.249	0.170
-158.735	21.157	-0.166	0.171
-157.720	-200.000	-0.024	0.391
-156.706	115.346	-0.124	0.192
-155.691	-200.000	-0.008	0.413
-154.677	-88.537	0.354	-0.133
-153.662	-200.000	-0.064	0.453
-152.647	61.183	0.209	-0.263
-151.633	-135.643	0.274	0.041
-150.618	-15.876	-0.247	-0.198
-149.604	-114.919	-0.345	-0.082
-148.589	-200.000	0.036	-0.359
-147.574	61.248	0.272	0.342
-146.560	32.491	-0.123	-0.134
-145.545	-200.000	-0.013	-0.102
-144.531	-182.054	-0.468	-0.011
-143.516	-62.025	0.508	-0.267
-142.502	-200.000	-0.008	0.279
-141.487	-87.830	0.205	-0.078
-140.472	30.086	0.101	-0.109
-139.458	56.161	-0.283	0.348
-138.443	-76.032	-0.012	0.005
-137.429	800.000	0.059	-0.240
-136.414	-54.386	0.121	0.069
-135.399	-200.000	0.019	0.190
-134.385	115.943	0.054	0.084
-133.370	-200.000	-0.027	0.164
-132.356	-109.506	0.288	-0.076
-131.341	-79.514	0.334	0.142
-130.326	800.000	-0.103	0.389
-129.312	-120.034	0.286	-0.062
-128.297	-126.996	0.632	0.116
-127.283	49.935	0.033	-0.039
-126.268	223.733	0.135	-0.276
-125.253	369.835	-0.095	-0.244
-124.239	-42.359	-0.495	0.318
-123.224	-18.225	-0.164	-0.129
-122.210	-106.673	0.130	0.036
-121.195	172.224	0.066	0.121
-120.180	-62.167	-0.569	0.299
-119.166	800.000	-0.079	0.290
-118.151	589.655	-0.116	0.363
-117.137	-138.039	-0.172	0.024
-116.122	-85.855	-0.529	0.206
-115.107	-144.618	-0.215	-0.025
-114.093	-105.375	0.302	0.086
-113.078	-18.135	0.350	0.277
-112.064	68.158	0.412	0.534
-111.049	103.316	-0.332	-0.493
-110.034	-106.200	-0.185	-0.052
-109.020	-71.747	0.392	0.184
-108.005	800.000	0.074	0.278
-106.991	-92.881	0.229	0.080
-105.976	36.921	-0.141	-0.158
-104.962	26.621	-0.151	-0.160
-103.947	524.452	-0.081	0.243
-102.932	-118.709	-0.121	0.027
-101.918	-200.000	-0.051	0.461
-100.903	92.968	0.117	0.167
-99.889	-77.152	-0.311	0.136
-98.874	59.780	0.172	0.215
-97.859	-9.171	-0.546	-0.460
-96.845	-200.000	0.018	0.309
-95.830	532.683	-0.011	0.032
-94.816	14.254	0.167	0.164
-93.801	-69.080	0.360	0.175
-92.786	1.368	-0.097	0.088
-91.772	41.645	-0.210	-0.240
-90.757	-71.198	-0.505	-0.238
-89.743	-51.516	-0.381	-0.224
-88.728	395.898	0.110	-0.291
-87.713	-180.992	-0.175	-0.004
-86.699	156.285	-0.146	0.256
-85.684	-200.000	0.014	-0.226
-84.670	-165.727	-0.268	0.014
-83.655	-106.600	0.232	0.065
-82.640	800.000	0.111	-0.522
-81.626	14.690	-0.204	-0.201
-80.611	-70.302	-0.076	0.036
-79.597	-38.520	-0.244	0.163
-78.582	800.000	0.048	0.194
-77.567	800.000	0.077	-0.291
-76.553	185.477	0.165	0.311
-75.538	-70.199	-0.102	0.049
-74.524	-200.000	-0.061	0.371
-73.509	176.254	0.025	-0.045
-72.494	-111.526	0.449	-0.114
-71.480	-76.718	0.491	0.216
-70.465	800.000	0.080	0.399
-69.451	-175.313	0.457	-0.016
-68.436	800.000	-0.093	-0.498
-67.422	-161.050	0.105	-0.007
-66.407	-103.646	-0.440	0.129
-65.392	91.517	0.063	-0.090
-64.378	-76.868	0.303	0.133
-63.363	-3.537	-0.125	-0.109
-62.349	800.000	0.020	-0.103
-61.334	-21.529	-1.983	-1.522
-60.319	101.346	0.876	1.288
-59.305	206.240	-3.264	-6.425
-58.290	20.068	3.088	3.140
-57.276	564.114	3.552	10.905
-56.261	-200.000	15.551	236.430
-55.246	434.950	1196.644	3295.817
-54.232	59.427	2838.326	3528.771
-53.217	68.663	2724.178	3526.784
-52.203	48.303	2451.635	2893.629
-51.188	43.471	2103.159	2424.146
-50.173	35.998	1976.570	2193.019
-49.159	34.706	1964.645	2164.993
-48.144	34.150	1961.191	2154.776
-47.130	34.215	1958.618	2152.606
-46.115	34.111	1957.247	2149.834
-45.100	34.183	1955.907	2149.089
-44.086	34.171	1954.876	2147.736
-43.071	34.117	1953.638	2145.686
-42.057	34.068	1951.954	2143.190
-41.042	34.100	1950.148	2141.489
-40.027	34.059	1948.752	2139.398
-39.013	34.181	1946.532	2138.259
-37.998	34.148	1944.998	2136.112
-36.984	33.953	1945.473	2134.348
-35.969	34.057	1942.798	2132.508
-34.954	34.068	1940.895	2130.458
-33.940	34.036	1940.455	2129.529
-32.925	33.875	1939.243	2126.306
-31.911	33.882	1938.328	2125.295
-30.896	33.898	1936.806	2123.721
-29.881	33.990	1935.401	2123.132
-28.867	33.930	1934.292	2121.152
-27.852	33.836	1932.938	2118.530
-26.838	33.835	1931.497	2116.862
-25.823	33.787	1930.102	2114.705
-24.809	33.869	1928.309	2113.574
-23.794	33.733	1927.911	2111.538
-22.779	33.781	1925.980	2109.876
-21.765	33.789	1924.782	2108.566
-20.750	33.747	1923.705	2106.829
-19.736	33.777	1921.879	2105.086
-18.721	33.677	1920.616	2102.500
-17.706	33.874	1918.504	2102.296
-16.692	33.582	1918.930	2099.435
-15.677	33.755	1916.682	2098.817
-14.663	33.743	1915.404	2097.194
-13.648	33.699	1913.460	2094.495
-12.633	33.703	1912.499	2093.407
-11.619	33.642	1912.062	2092.165
-10.604	33.661	1910.844	2090.962
-9.590	33.718	1909.366	2089.891
-8.575	33.671	1907.689	2087.462
-7.560	33.684	1907.262	2087.052
-6.546	33.540	1906.510	2084.551
-5.531	33.720	1904.177	2083.903
-4.517	33.731	1902.988	2082.639
-3.502	33.641	1902.649	2081.197
-2.487	33.668	1901.699	2080.372
-1.473	33.670	1898.536	2076.848
-0.458	33.695	1877.282	2053.795
0.556	29.331	2011.402	2136.954
1.571	27.117	2225.043	2335.077
2.586	28.423	2270.455	2399.650
3.600	28.407	2273.514	2402.387
4.615	28.477	2272.512	2401.961
5.629	28.363	2269.923	2397.436
6.644	28.291	2269.012	2395.243
7.659	28.537	2266.938	2395.994
8.673	28.746	2264.771	2396.168
9.688	27.902	2270.605	2390.945
10.702	24.957	2341.446	2425.228
11.717	21.930	2404.781	2448.149
12.731	11.192	2377.503	2270.435
13.746	1.711	2352.446	2114.351
14.761	0.280	2347.801	2089.979
15.775	0.043	2345.494	2084.370
16.790	0.031	2344.672	2083.223
17.804	-0.096	2343.904	2080.522
18.819	-0.005	2342.328	2080.147
19.834	0.075	2339.194	2078.225
20.848	0.030	2338.254	2076.512
21.863	0.027	2336.539	2074.703
22.877	0.020	2334.330	2072.399
23.892	0.098	2331.848	2071.018
24.907	0.091	2329.613	2068.697
25.921	0.068	2327.904	2066.602
26.936	0.050	2326.035	2064.447
27.950	0.036	2323.714	2061.948
28.965	-0.000	2321.805	2059.512
29.980	0.067	2320.598	2059.126
30.994	0.283	2317.775	2059.335
32.009	5.825	2338.289	2153.976
33.023	18.447	2375.590	2364.141
34.038	23.757	2384.569	2446.496
35.053	24.118	2381.807	2448.360
36.067	24.015	2378.242	2442.975
37.082	23.713	2376.994	2437.246
38.096	23.665	2374.703	2433.943
39.111	23.770	2372.738	2433.077
40.126	23.765	2370.294	2430.215
41.140	23.996	2367.657	2430.384
42.155	23.795	2366.618	2426.280
43.169	23.636	2365.042	2422.193
44.184	23.454	2361.859	2416.149
45.199	23.484	2358.814	2413.157
46.213	23.386	2358.002	2410.694
47.228	23.425	2356.847	2409.748
48.242	23.553	2355.161	2409.497
49.257	23.615	2353.182	2408.019
50.271	23.634	2351.233	2405.999
51.286	23.652	2348.776	2403.444
52.301	23.427	2345.777	2397.024
53.315	23.795	2347.592	2403.604
54.330	25.462	2351.887	2430.384
55.344	26.603	2352.216	2445.944
56.359	26.903	2349.107	2446.483
57.374	26.825	2347.572	2443.529
58.388	26.757	2344.212	2438.827
59.403	26.574	2339.966	2431.643
60.417	26.325	2336.072	2423.952
61.432	26.595	2334.235	2425.392
62.447	26.494	2332.900	2422.351
63.461	26.523	2331.637	2421.144
64.476	26.663	2329.892	2420.925
65.490	26.571	2328.568	2418.017
66.505	26.180	2325.323	2409.126
67.520	25.245	2321.879	2392.735
68.534	24.818	2318.314	2383.062
69.549	24.392	2313.886	2372.540
70.563	24.068	2311.088	2365.060
71.578	24.183	2308.518	2363.680
72.593	24.385	2307.404	2364.947
73.607	24.043	2305.719	2358.383
74.622	24.096	2304.179	2357.235
75.636	24.470	2301.397	2359.073
76.651	24.285	2299.530	2354.418
77.666	24.379	2297.687	2353.499
78.680	24.177	2294.850	2347.639
79.695	24.008	2290.747	2340.925
80.709	23.512	2290.621	2333.955
81.724	23.446	2287.769	2329.899
82.739	23.835	2285.734	2332.681
83.753	24.367	2285.970	2339.657
84.768	24.436	2283.255	2337.507
85.782	24.332	2282.578	2335.167
86.797	24.176	2280.528	2330.740
87.812	24.014	2278.461	2326.219
88.826	24.318	2276.749	2328.175
89.841	24.336	2274.768	2326.105
90.855	24.502	2271.533	2324.699
91.870	24.323	2270.504	2321.029
92.884	24.190	2268.308	2316.759
93.899	24.132	2266.456	2313.841
94.914	24.111	2267.471	2314.318
95.928	24.940	2268.846	2326.270
96.943	25.465	2267.890	2331.866
97.957	24.885	2263.416	2319.440
98.972	24.369	2260.021	2308.964
99.987	24.323	2256.751	2304.751
101.001	24.367	2253.987	2302.231
102.016	24.398	2251.858	2300.177
103.030	24.180	2248.783	2293.940
104.045	23.925	2245.740	2287.262
105.060	24.094	2244.620	2288.040
106.074	24.313	2243.029	2288.971
107.089	24.130	2241.123	2284.384
108.103	23.832	2239.595	2278.718
109.118	23.961	2239.009	2279.505
110.133	24.155	2236.328	2278.998
111.147	24.299	2235.178	2279.412
112.162	24.336	2233.352	2277.742
113.176	24.210	2230.587	2273.036
114.191	23.865	2228.493	2266.210
115.206	23.827	2227.132	2264.075
116.220	24.142	2226.229	2266.916
117.235	24.147	2223.924	2264.360
118.249	24.116	2222.075	2261.805
119.264	24.033	2219.920	2258.290
120.279	23.858	2218.266	2254.102
121.293	24.102	2215.789	2254.422
122.308	24.189	2214.483	2253.930
123.322	23.889	2213.838	2249.196
124.337	23.632	2212.350	2244.141
125.352	24.816	2215.595	2262.219
126.366	25.655	2215.434	2272.444
127.381	24.969	2211.119	2259.052
128.395	24.640	2206.860	2250.268
129.410	24.437	2204.056	2244.576
130.424	24.255	2202.645	2240.572
131.439	24.656	2201.264	2243.955
132.454	24.538	2199.286	2240.179
133.468	24.621	2197.226	2238.862
134.483	24.520	2194.222	2234.269
135.497	24.413	2192.215	2230.604
136.512	24.470	2191.445	2230.275
137.527	24.504	2190.130	2229.098
138.541	24.513	2189.102	2227.893
139.556	24.721	2188.086	2229.199
140.570	24.498	2186.430	2224.460
141.585	24.217	2182.908	2217.086
142.600	24.109	2181.174	2213.719
143.614	24.040	2180.291	2211.688
144.629	24.074	2178.378	2209.917
145.643	23.915	2176.053	2205.303
146.658	23.830	2174.333	2202.241
147.673	23.799	2171.609	2198.832
148.687	23.783	2169.125	2195.853
149.702	23.903	2168.846	2196.800
150.716	24.098	2169.999	2200.122
151.731	24.468	2169.849	2204.300
152.746	24.515	2167.729	2202.473
153.760	24.444	2167.869	2201.469
154.775	25.192	2168.977	2211.600
155.789	25.459	2168.825	2214.496
156.804	24.900	2163.462	2201.839
157.819	24.270	2157.900	2188.144
158.833	24.120	2154.271	2182.366
159.848	24.183	2152.151	2180.731
160.862	24.093	2151.519	2178.720
161.877	24.353	2151.189	2181.326
162.892	24.460	2149.678	2180.844
163.906	24.548	2147.728	2179.678
164.921	24.358	2146.124	2175.465
165.935	24.114	2143.875	2169.937
166.950	23.942	2142.087	2165.759
167.964	24.152	2139.637	2165.597
168.979	23.956	2137.630	2160.908
169.994	24.090	2135.961	2160.597
171.008	24.028	2134.695	2158.302
172.023	23.978	2132.940	2155.665
173.037	24.210	2132.069	2157.346
174.052	24.120	2130.982	2154.899
175.067	24.079	2128.957	2152.090
176.081	24.177	2127.223	2151.273
177.096	24.282	2126.692	2151.751
178.110	24.410	2125.087	2151.418
179.125	24.371	2124.002	2149.589
180.140	24.364	2123.519	2148.760
181.154	24.338	2122.378	2147.031
182.169	24.289	2121.466	2145.261
183.183	24.739	2122.051	2151.039
184.198	25.647	2122.108	2161.807
185.213	25.880	2120.284	2162.499
186.227	25.101	2114.998	2147.481
187.242	24.391	2111.991	2135.621
188.256	24.278	2110.514	2132.518
189.271	24.411	2109.732	2133.076
190.286	24.272	2107.809	2129.207
191.300	23.977	2105.439	2123.019
192.315	24.157	2104.046	2123.519
193.329	24.371	2103.272	2125.043
194.344	24.321	2101.409	2122.311
195.359	24.196	2100.627	2119.765
196.373	24.504	2097.933	2120.470
197.388	24.414	2094.636	2115.819
198.402	24.221	2092.766	2111.375
199.417	24.299	2091.624	2110.899
200.432	24.327	2089.575	2108.916
201.446	24.208	2087.847	2105.504
202.461	24.198	2086.620	2103.895
203.475	24.160	2084.400	2100.955
204.490	24.229	2082.305	2099.407
205.504	24.193	2080.547	2096.957
206.519	24.175	2078.485	2094.420
207.534	24.184	2077.261	2093.040
208.548	24.445	2075.736	2094.334
209.563	24.182	2074.281	2089.507
210.577	24.512	2073.887	2092.757
211.592	24.654	2073.555	2093.839
212.607	24.761	2073.866	2095.158
213.621	25.405	2075.540	2104.184
214.636	25.518	2072.947	2102.640
215.650	25.187	2070.408	2095.918
216.665	25.050	2067.271	2090.885
217.680	24.727	2063.930	2083.472
218.694	24.305	2062.903	2077.246
219.709	24.185	2060.405	2073.085
220.723	24.174	2058.287	2070.577
221.738	24.290	2057.716	2071.107
222.753	24.538	2055.391	2071.413
223.767	24.395	2053.158	2067.251
224.782	24.246	2052.318	2064.425
225.796	24.207	2050.106	2061.496
226.811	24.266	2048.917	2060.734
227.826	24.171	2046.835	2057.292
228.840	24.017	2044.457	2052.867
229.855	23.974	2044.347	2052.018
230.869	24.216	2042.988	2053.214
231.884	24.370	2042.035	2053.795
232.899	24.566	2040.395	2054.161
233.913	24.372	2040.247	2051.523
234.928	24.294	2037.978	2048.092
235.942	24.068	2035.477	2042.730
236.957	23.974	2033.490	2039.414
237.972	24.148	2033.203	2040.880
238.986	24.086	2032.218	2038.939
240.001	23.912	2029.949	2034.409
241.015	24.075	2027.749	2033.835
242.030	24.438	2030.352	2040.376
243.045	25.486	2031.121	2052.949
244.059	25.913	2029.605	2056.060
245.074	25.134	2024.967	2042.203
246.088	24.561	2020.665	2031.073
247.103	24.518	2018.951	2028.620
248.117	24.898	2019.309	2033.068
249.132	24.903	2016.881	2030.441
250.147	24.585	2013.732	2023.403
251.161	24.070	2012.649	2016.216
252.176	24.165	2011.242	2015.647
253.190	24.230	2007.764	2012.661
254.205	24.278	2006.045	2011.242
255.220	23.990	2004.695	2006.382
256.234	23.673	2002.892	2000.741
257.249	23.689	2002.725	2000.524
258.263	23.900	2001.119	2001.066
259.278	23.814	2000.568	1999.306
260.293	23.966	1999.454	1999.661
261.307	24.159	1997.498	1999.644
262.322	24.189	1996.554	1998.805
263.336	23.987	1992.881	1992.616
264.351	23.984	1992.302	1991.766
265.366	24.234	1992.281	1994.313
266.380	24.463	1990.782	1995.148
267.395	24.423	1989.966	1993.646
268.409	24.579	1988.224	1993.404
269.424	24.487	1986.046	1989.960
270.439	24.426	1985.640	1988.631
271.453	24.918	1987.139	1995.397
272.468	25.724	1986.979	2004.025
273.482	25.656	1983.865	1999.889
274.497	24.793	1979.594	1985.714
275.512	24.614	1976.276	1980.156
276.526	24.409	1974.107	1975.468
277.541	24.151	1971.562	1969.821
278.555	23.994	1969.559	1965.837
279.570	23.950	1968.166	1963.726
280.585	23.919	1967.205	1962.183
281.599	23.968	1965.870	1961.162
282.614	24.184	1963.965	1961.416
283.628	24.283	1964.086	1962.394
284.643	24.175	1961.652	1958.533
285.657	23.848	1960.005	1953.050
286.672	23.742	1958.458	1950.103
287.687	23.702	1956.241	1947.224
288.701	23.598	1954.798	1944.404
289.716	23.477	1952.436	1940.491
290.730	23.092	1950.835	1934.441
291.745	23.706	1951.007	1941.120
292.760	23.839	1950.253	1941.599
293.774	23.883	1949.100	1940.706
294.789	24.187	1948.581	1943.293
295.803	24.208	1946.581	1941.290
296.818	24.253	1945.963	1940.939
297.833	24.538	1944.940	1942.800
298.847	24.308	1942.875	1937.987
299.862	24.065	1940.978	1933.212
300.876	24.352	1941.055	1936.191
301.891	25.629	1943.137	1951.980
302.906	25.919	1941.977	1953.740
303.920	24.763	1936.894	1935.821
304.935	24.420	1933.492	1928.468
305.949	24.477	1931.817	1927.180
306.964	24.363	1929.692	1923.599
307.979	23.894	1927.639	1916.240
308.993	23.333	1923.483	1905.818
310.008	22.430	1920.680	1893.055
311.022	22.066	1918.950	1887.187
312.037	22.249	1917.141	1887.160
313.052	22.167	1914.747	1883.691
314.066	21.950	1912.542	1878.970
315.081	22.026	1911.937	1878.959
316.095	22.010	1911.049	1877.696
317.110	21.748	1909.939	1873.564
318.125	21.563	1907.721	1869.175
319.139	21.661	1906.401	1868.708
320.154	22.027	1905.994	1872.016
321.168	22.135	1904.966	1871.935
322.183	23.095	1905.387	1882.396
323.197	24.077	1907.051	1894.322
324.212	24.227	1904.830	1893.499
325.227	24.038	1903.232	1889.662
326.241	24.337	1902.323	1891.723
327.256	24.659	1901.166	1893.778
328.270	24.193	1899.971	1887.398
329.285	24.206	1898.823	1886.168
330.300	24.413	1900.016	1889.335
331.314	25.413	1902.036	1901.761
332.329	25.710	1899.282	1901.933
333.343	24.846	1894.064	1887.328
334.358	24.286	1890.803	1877.930
335.373	24.193	1889.753	1875.672
336.387	24.444	1888.606	1876.969
337.402	24.378	1887.516	1874.957
338.416	24.447	1886.289	1874.242
339.431	24.392	1884.655	1871.820
340.446	24.230	1882.614	1867.862
341.460	23.901	1879.673	1861.262
342.475	23.399	1876.026	1852.149
343.489	22.439	1872.087	1837.973
344.504	22.007	1870.823	1831.983
345.519	21.900	1869.151	1829.006
346.533	21.717	1867.338	1825.099
347.548	21.990	1865.431	1825.873
348.562	22.238	1863.809	1826.653
349.577	22.127	1864.103	1825.566
350.592	22.402	1863.603	1827.721
351.606	22.476	1862.180	1826.883
352.621	22.057	1859.382	1819.554
353.635	22.139	1858.491	1819.324
354.650	22.550	1859.694	1824.557
355.665	23.587	1860.104	1835.535
356.679	23.882	1859.297	1837.583
357.694	24.211	1859.037	1840.519
358.708	24.407	1858.082	1841.384
359.723	24.607	1858.593	1843.749
360.738	25.672	1859.459	1855.433
361.752	25.812	1858.196	1855.400
362.767	25.388	1853.620	1846.230
363.781	24.908	1849.824	1837.275
364.796	24.549	1847.943	1831.484
365.810	24.398	1847.451	1829.222
366.825	24.321	1844.187	1824.981
367.840	22.982	1840.953	1807.806
368.854	22.062	1838.261	1795.493
369.869	22.045	1836.749	1793.632
370.883	22.279	1836.304	1795.382
371.898	22.492	1835.643	1796.698
372.913	22.275	1834.197	1792.854
373.927	22.100	1831.701	1788.408
374.942	22.106	1830.703	1787.274
375.956	22.615	1830.696	1792.255
376.971	23.126	1829.575	1796.170
377.986	23.224	1827.983	1795.386
379.000	23.322	1826.545	1794.754
380.015	23.146	1826.064	1792.275
381.029	23.821	1825.242	1798.124
382.044	24.142	1824.164	1800.109
383.059	24.160	1822.732	1798.665
384.073	24.113	1822.888	1798.124
385.088	24.478	1821.892	1800.625
386.102	24.266	1820.576	1796.965
387.117	23.979	1818.723	1792.009
388.132	24.167	1818.020	1793.007
389.146	24.526	1819.366	1797.757
390.161	25.521	1819.945	1808.175
391.175	25.582	1815.156	1803.813
392.190	24.462	1809.927	1787.142
393.205	24.315	1806.980	1782.540
394.219	23.945	1805.516	1777.169
395.234	23.869	1804.659	1775.352
396.248	23.934	1802.324	1773.492
397.263	23.819	1800.105	1769.945
398.278	23.968	1798.343	1769.488
399.292	23.851	1797.862	1767.633
400.307	23.848	1796.009	1765.572
401.321	23.653	1795.296	1762.712
402.336	23.860	1794.466	1763.752
403.350	23.624	1793.120	1759.862
404.365	23.727	1790.980	1758.584
405.380	23.232	1787.893	1750.415
406.394	22.059	1785.418	1736.140
407.409	21.936	1783.110	1732.469
408.423	21.896	1781.886	1730.674
409.438	21.848	1780.251	1728.398
410.453	21.974	1779.510	1728.719
411.467	22.057	1779.065	1728.908
412.482	22.302	1778.251	1730.331
413.496	23.496	1780.026	1743.658
414.511	24.286	1779.191	1750.432
415.526	24.240	1776.475	1747.095
416.540	24.054	1775.464	1744.065
417.555	24.176	1775.036	1744.636
418.569	24.366	1774.978	1746.238
419.584	24.362	1775.202	1746.205
420.599	24.591	1774.156	1747.221
421.613	24.834	1773.832	1749.084
422.628	24.506	1772.165	1744.012
423.642	24.265	1769.338	1738.660
424.657	24.048	1767.892	1734.904
425.672	24.474	1766.386	1737.386
426.686	24.088	1764.492	1731.540
427.701	23.677	1761.890	1724.765
428.715	23.919	1761.290	1726.335
429.730	24.167	1761.012	1728.276
430.745	24.512	1760.308	1730.738
431.759	24.712	1760.183	1732.357
432.774	25.175	1759.965	1736.439
433.788	24.519	1756.975	1726.911
434.803	23.558	1754.994	1715.423
435.818	23.489	1753.974	1713.545
436.832	23.326	1754.259	1712.035
437.847	22.767	1746.919	1699.260
438.861	14.218	1722.243	1593.138
439.876	2.981	1701.323	1466.277
440.890	0.526	1694.810	1437.016
441.905	0.081	1694.090	1431.980
442.920	0.021	1693.234	1430.511
443.934	0.000	1691.962	1429.068
444.949	0.167	1690.537	1429.286
445.963	0.113	1689.632	1427.834
446.978	0.041	1688.998	1426.437
447.993	0.041	1688.322	1425.696
449.007	-0.010	1685.901	1422.998
450.022	0.079	1683.277	1421.461
451.036	0.033	1682.407	1420.116
452.051	1.485	1689.166	1439.482
453.066	12.203	1713.459	1563.082
454.080	22.209	1728.647	1672.936
455.095	24.338	1733.255	1697.581
456.109	26.022	1736.946	1717.123
457.124	26.825	1736.726	1724.376
458.139	26.504	1734.715	1719.110
459.153	26.281	1733.795	1715.870
460.168	26.436	1731.563	1714.929
461.182	26.723	1731.070	1716.971
462.197	27.266	1730.197	1721.068
463.212	27.111	1728.398	1717.595
464.226	27.156	1727.037	1716.464
465.241	27.547	1726.990	1719.923
466.255	27.728	1725.965	1720.414
467.270	27.810	1724.542	1719.565
468.285	27.621	1723.461	1716.496
469.299	27.646	1722.514	1715.579
470.314	27.934	1721.190	1716.780
471.328	28.014	1719.473	1715.614
472.343	28.170	1718.483	1715.888
473.358	28.067	1717.638	1713.868
474.372	28.122	1716.707	1713.251
475.387	28.196	1715.416	1712.459
476.401	28.066	1713.748	1709.368
477.416	27.625	1712.242	1703.518
478.430	27.940	1711.214	1705.249
479.445	27.792	1709.975	1702.417
480.460	27.722	1708.120	1699.716
481.474	27.776	1708.095	1699.994
482.489	28.355	1707.374	1704.485
483.503	28.435	1705.370	1703.030
484.518	28.190	1704.172	1699.341
485.533	28.307	1702.433	1698.502
486.547	28.156	1700.908	1695.366
487.562	28.251	1699.916	1695.056
488.576	28.499	1699.135	1696.387
489.591	28.482	1698.240	1695.129
490.606	28.403	1696.221	1692.178
491.620	28.491	1695.044	1691.621
492.635	28.767	1692.828	1691.763
493.649	28.481	1690.829	1686.918
494.664	28.028	1689.214	1680.917
495.679	27.555	1687.936	1675.072
496.693	27.615	1687.861	1675.350
497.708	28.082	1686.757	1678.366
498.722	28.451	1686.269	1681.078
499.737	28.576	1684.711	1680.479
500.752	28.365	1683.190	1676.823
501.766	28.298	1681.419	1674.239
502.781	28.466	1680.042	1674.205
503.795	28.452	1677.761	1671.609
504.810	28.280	1676.596	1668.672
505.825	28.384	1675.867	1668.695
506.839	28.169	1674.413	1665.087
507.854	28.048	1673.285	1662.653
508.868	28.065	1671.620	1660.960
509.883	27.935	1669.475	1657.440
510.898	27.796	1668.242	1654.749
511.912	27.337	1665.903	1648.059
512.927	26.751	1663.087	1639.748
513.941	26.569	1661.925	1636.749
514.956	26.615	1661.487	1636.543
515.971	27.140	1660.028	1639.668
516.985	26.970	1658.460	1636.384
518.000	26.855	1658.018	1634.712
519.014	26.909	1657.459	1634.458
520.029	27.176	1655.353	1634.600
521.043	27.119	1653.678	1632.233
522.058	27.179	1653.277	1632.181
523.073	27.447	1652.659	1633.796
524.087	27.989	1652.159	1637.986
525.102	28.072	1652.010	1638.394
526.116	27.899	1650.311	1634.958
527.131	28.051	1649.536	1635.357
528.146	28.396	1649.912	1638.637
529.160	28.635	1648.745	1639.424
530.175	28.890	1648.068	1640.847
531.189	28.938	1647.096	1640.112
532.204	28.979	1645.479	1638.673
533.219	28.561	1643.573	1632.840
534.233	28.339	1642.800	1629.889
535.248	28.235	1641.486	1627.466
536.262	28.626	1640.894	1630.178
537.277	28.983	1639.644	1631.921
538.292	28.915	1638.173	1629.656
539.306	28.844	1636.378	1627.045
540.321	28.680	1634.895	1623.916
541.335	28.260	1632.502	1617.614
542.350	28.664	1632.194	1620.705
543.365	28.947	1631.868	1622.693
544.379	29.133	1630.285	1622.577
545.394	29.076	1628.792	1620.386
546.408	28.701	1626.304	1614.409
547.423	28.353	1624.795	1609.640
548.438	28.317	1623.698	1608.045
549.452	28.605	1623.454	1610.153
550.467	28.732	1621.999	1609.637
551.481	28.621	1621.536	1608.005
552.496	28.603	1620.850	1606.975
553.511	29.019	1620.285	1609.885
554.525	29.084	1618.530	1608.517
555.540	28.946	1618.093	1606.677
556.554	28.987	1616.873	1605.636
557.569	28.810	1614.223	1601.255
558.583	28.539	1612.580	1597.068
559.598	28.496	1610.975	1594.912
560.613	28.583	1609.508	1594.024
561.627	28.502	1608.679	1592.312
562.642	28.502	1606.767	1590.227
563.656	28.304	1605.827	1587.381
564.671	27.906	1604.229	1582.142
565.686	27.607	1602.110	1577.265
566.700	27.472	1600.171	1573.992
567.715	27.315	1598.972	1571.260
568.729	27.269	1597.287	1569.026
569.744	27.446	1595.705	1568.810
570.759	27.557	1594.623	1568.518
571.773	27.636	1593.582	1567.992
572.788	27.482	1593.529	1566.425
573.802	27.476	1591.912	1564.590
574.817	27.551	1589.426	1562.609
575.832	27.854	1589.678	1565.283
576.846	28.392	1588.873	1568.933
577.861	28.557	1588.551	1569.846
578.875	28.699	1587.638	1569.977
579.890	29.098	1587.767	1573.341
580.905	29.187	1587.121	1573.279
581.919	29.219	1586.801	1573.048
582.934	29.394	1585.910	1573.480
583.948	29.381	1583.890	1571.178
584.963	29.115	1582.545	1567.376
585.978	28.817	1580.963	1563.073
586.992	28.726	1579.848	1561.007
588.007	29.010	1579.438	1562.837
589.021	28.471	1576.291	1554.948
590.036	27.518	1574.094	1544.477
591.051	28.200	1574.606	1550.604
592.065	28.968	1573.654	1556.013
593.080	29.269	1572.334	1557.078
594.094	29.246	1571.493	1555.864
595.109	28.997	1568.912	1551.016
596.123	28.831	1567.827	1548.354
597.138	29.233	1567.205	1550.948
598.153	29.180	1565.257	1548.392
599.167	28.969	1564.263	1545.437
600.182	28.908	1563.260	1543.751
601.196	29.067	1562.737	1544.390
602.211	29.303	1560.784	1544.262
603.226	29.235	1559.523	1542.261
604.240	29.473	1558.264	1542.826
605.255	29.557	1557.919	1543.009
606.269	29.486	1556.887	1541.202
607.284	29.225	1556.004	1537.956
608.299	29.156	1554.262	1535.470
609.313	29.074	1551.274	1531.654
610.328	28.969	1550.122	1529.449
611.342	28.931	1549.620	1528.460
612.357	29.000	1548.888	1528.125
613.372	29.019	1547.435	1526.674
614.386	28.787	1546.175	1523.312
615.401	28.734	1545.534	1522.059
616.415	28.758	1544.520	1521.077
617.430	28.545	1542.938	1517.561
618.445	28.163	1541.486	1512.784
619.459	28.152	1539.025	1510.097
620.474	27.881	1538.159	1506.813
621.488	27.707	1537.358	1504.409
622.503	27.873	1536.356	1504.624
623.518	27.941	1535.443	1504.111
624.532	28.048	1533.738	1503.146
625.547	28.065	1532.305	1501.702
626.561	28.161	1532.498	1502.500
627.576	28.300	1531.410	1502.405
628.591	28.049	1529.746	1498.523
629.605	28.057	1529.090	1497.767
630.620	28.250	1527.218	1497.343
631.634	28.232	1526.383	1496.194
632.649	28.375	1525.484	1496.305
633.663	28.348	1524.352	1494.800
634.678	28.271	1523.291	1492.951
635.693	28.254	1521.229	1490.604
636.707	28.217	1520.047	1488.968
637.722	28.387	1519.615	1489.753
638.736	28.586	1519.660	1491.250
639.751	29.236	1517.916	1494.664
640.766	29.241	1516.785	1493.411
641.780	29.213	1515.346	1491.588
642.795	29.268	1515.339	1491.850
643.809	29.337	1515.161	1492.051
644.824	29.682	1513.842	1493.379
645.839	29.462	1513.244	1490.827
646.853	29.496	1512.532	1490.220
647.868	29.457	1509.940	1487.175
648.882	29.259	1508.310	1483.787
649.897	29.249	1507.105	1482.340
650.912	29.161	1505.530	1479.903
651.926	29.405	1504.341	1480.526
652.941	29.265	1502.809	1477.719
653.955	28.794	1500.806	1471.774
654.970	27.971	1497.766	1462.003
655.985	27.802	1495.913	1458.663
656.999	27.642	1494.924	1456.238
658.014	27.994	1494.505	1458.480
659.028	28.678	1494.551	1463.833
660.043	29.088	1494.375	1466.770
661.058	29.272	1494.158	1467.855
662.072	29.281	1493.348	1466.962
663.087	29.110	1492.038	1464.129
664.101	29.145	1490.421	1462.643
665.116	29.294	1489.683	1462.939
666.131	29.241	1488.999	1461.662
667.145	29.493	1487.530	1462.059
668.160	29.545	1486.632	1461.412
669.174	29.369	1485.223	1458.454
670.189	29.547	1484.427	1458.908
671.204	29.512	1483.485	1457.533
672.218	29.449	1481.803	1455.209
673.233	29.759	1480.664	1456.371
674.247	29.836	1479.938	1456.087
675.262	29.661	1479.524	1454.127
676.276	29.499	1478.380	1451.542
677.291	29.393	1477.579	1449.746
678.306	29.424	1475.798	1448.069
679.320	29.318	1473.803	1445.104
680.335	29.168	1473.624	1443.574
681.349	29.373	1472.932	1444.340
682.364	29.324	1471.529	1442.405
683.379	29.263	1469.691	1439.949
684.393	29.065	1468.221	1436.782
685.408	29.125	1466.347	1435.250
686.422	28.955	1465.290	1432.715
687.437	28.708	1464.803	1430.132
688.452	28.621	1464.310	1428.794
689.466	28.522	1462.333	1425.922
690.481	28.419	1460.719	1423.376
691.495	28.522	1459.922	1423.230
692.510	28.436	1459.263	1421.749
693.525	28.620	1457.582	1421.370
694.539	28.503	1456.058	1418.807
695.554	28.340	1456.528	1417.829
696.568	28.483	1455.221	1417.498
697.583	28.385	1455.345	1416.688
698.598	28.705	1454.266	1417.953
699.612	28.968	1453.194	1418.776
700.627	29.168	1451.931	1418.918
701.641	29.300	1451.030	1418.889
702.656	29.425	1450.298	1418.972
703.671	29.461	1450.165	1418.951
704.685	29.725	1448.974	1419.651
705.700	29.543	1447.180	1416.321
706.714	29.314	1444.932	1412.193
707.729	29.221	1443.591	1409.995
708.744	29.056	1442.861	1407.847
709.758	28.915	1440.976	1404.758
710.773	28.312	1439.054	1398.085
711.787	28.251	1436.999	1395.455
712.802	28.863	1436.843	1399.823
713.816	29.215	1436.405	1401.921
714.831	29.268	1436.374	1402.131
715.846	29.430	1434.571	1401.440
716.860	29.259	1434.104	1399.512
717.875	29.369	1432.492	1398.606
718.889	29.183	1430.980	1395.546
719.904	29.348	1429.507	1395.201
720.919	29.278	1428.828	1393.838
721.933	29.242	1428.485	1393.063
722.948	29.077	1428.148	1391.311
723.962	29.145	1427.258	1390.797
724.977	29.284	1425.344	1389.815
725.992	29.372	1424.771	1389.761
727.006	29.519	1423.891	1389.851
728.021	29.576	1422.228	1388.488
729.035	29.585	1421.473	1387.651
730.050	29.710	1420.297	1387.279
731.065	29.464	1418.973	1383.965
732.079	29.337	1418.034	1381.933
733.094	29.540	1417.217	1382.500
734.108	29.613	1415.335	1381.041
735.123	29.445	1414.082	1378.392
736.138	29.277	1413.078	1375.991
737.152	29.403	1411.658	1375.384
738.167	29.443	1410.808	1374.697
739.181	29.524	1410.070	1374.420
740.196	29.574	1409.248	1373.827
741.211	29.461	1408.501	1372.086
742.225	29.302	1407.466	1369.730
743.240	29.180	1405.557	1366.799
744.254	29.159	1403.073	1364.060
745.269	28.858	1402.542	1361.139
746.284	28.724	1401.746	1359.210
747.298	28.565	1399.950	1356.122
748.313	28.482	1398.829	1354.256
749.327	28.525	1398.467	1354.068
750.342	28.516	1398.155	1353.532
751.356	28.730	1396.267	1353.133
752.371	28.604	1395.533	1351.322
753.386	28.736	1394.440	1351.081
754.400	29.008	1394.366	1352.855
755.415	29.435	1393.118	1354.639
756.429	29.669	1392.053	1355.163
757.444	29.696	1390.890	1354.068
758.459	29.673	1390.013	1352.881
759.473	29.545	1388.496	1350.302
760.488	29.300	1387.201	1347.086
761.502	29.148	1386.060	1344.696
762.517	29.197	1385.121	1343.984
763.532	29.331	1384.273	1343.985
764.546	29.190	1382.255	1340.836
765.561	28.522	1380.389	1333.984
766.575	27.688	1378.579	1325.983
767.590	27.801	1377.072	1325.197
768.605	28.575	1376.984	1330.596
769.619	29.087	1377.066	1334.250
770.634	29.286	1375.726	1334.239
771.648	29.246	1375.174	1333.255
772.663	29.263	1374.307	1332.377
773.678	29.546	1373.438	1333.428
774.692	29.595	1372.617	1332.827
775.707	29.518	1372.938	1332.418
776.721	29.610	1372.434	1332.437
777.736	29.560	1370.552	1330.093
778.751	29.576	1369.745	1329.263
779.765	29.528	1368.744	1327.786
780.780	29.561	1367.700	1326.856
781.794	29.373	1367.194	1324.847
782.809	29.094	1365.505	1321.039
783.824	28.741	1363.606	1316.504
784.838	28.534	1362.153	1313.454
785.853	28.425	1361.805	1312.177
786.867	28.575	1361.233	1312.546
787.882	28.584	1360.154	1311.410
788.897	28.520	1359.115	1309.792
789.911	28.533	1357.724	1308.393
790.926	28.656	1356.664	1308.092
791.940	28.712	1355.663	1307.375
792.955	29.068	1354.220	1308.365
793.969	28.963	1353.464	1306.730
794.984	29.078	1353.064	1307.012
795.999	29.237	1352.282	1307.230
797.013	29.640	1350.328	1308.052
798.028	29.468	1349.114	1305.497
799.042	29.445	1349.071	1305.137
800.057	29.326	1348.469	1303.553
801.072	29.394	1346.488	1301.962
802.086	29.332	1345.546	1300.457
803.101	29.517	1343.973	1300.095
804.115	29.579	1342.632	1299.077
805.130	29.479	1342.117	1297.714
806.145	29.285	1341.016	1295.131
807.159	29.195	1339.325	1292.703
808.174	29.261	1338.380	1292.106
809.188	29.240	1337.584	1291.034
810.203	28.927	1336.201	1287.342
811.218	28.619	1333.680	1282.595
812.232	28.413	1331.367	1278.774
813.247	27.872	1330.507	1274.002
814.261	28.598	1331.018	1279.429
815.276	29.030	1330.872	1282.162
816.291	29.039	1329.725	1280.964
817.305	28.926	1328.470	1278.809
818.320	29.215	1327.544	1279.789
819.334	29.228	1326.898	1279.100
820.349	29.517	1324.914	1279.051
821.364	29.454	1324.036	1277.609
822.378	29.422	1322.847	1276.084
823.393	29.395	1320.780	1273.755
824.407	29.423	1319.955	1272.999
825.422	29.396	1319.075	1271.811
826.437	29.208	1317.292	1268.641
827.451	28.746	1316.277	1264.315
828.466	28.554	1314.936	1261.546
829.480	28.641	1313.480	1260.597
830.495	28.657	1311.031	1258.210
831.509	28.634	1310.901	1257.774
832.524	28.713	1310.957	1258.224
833.539	29.021	1309.561	1258.853
834.553	29.325	1308.226	1259.506
835.568	29.306	1307.098	1258.139
836.582	29.380	1305.875	1257.317
837.597	29.394	1304.706	1256.134
838.612	29.275	1303.298	1253.816
839.626	29.050	1301.424	1250.329
840.641	28.865	1300.388	1247.921
841.655	28.670	1299.234	1245.336
842.670	28.247	1297.107	1240.267
843.685	27.535	1296.348	1234.542
844.699	28.213	1296.123	1238.793
845.714	28.742	1295.134	1241.298
846.728	28.656	1294.288	1239.755
847.743	28.733	1294.052	1239.904
848.758	28.932	1293.098	1240.192
849.772	29.199	1292.117	1240.905
850.787	29.109	1290.497	1238.593
851.801	29.229	1289.152	1237.969
852.816	29.279	1287.963	1237.011
853.831	29.129	1286.466	1234.418
854.845	28.950	1284.231	1230.922
855.860	28.802	1282.423	1228.047
856.874	28.525	1281.776	1225.420
857.889	28.621	1281.224	1225.388
858.904	28.748	1279.694	1224.632
859.918	28.697	1278.210	1222.723
860.933	28.601	1277.006	1220.782
861.947	28.512	1276.299	1219.369
862.962	28.558	1274.875	1218.170
863.977	28.443	1273.640	1216.075
864.991	28.587	1273.437	1216.696
866.006	28.709	1272.703	1216.659
867.020	28.902	1271.354	1216.506
868.035	28.968	1270.834	1216.302
869.049	29.207	1269.766	1216.726
870.064	29.325	1269.113	1216.736
871.079	29.147	1268.121	1214.459
872.093	29.073	1266.797	1212.557
873.108	28.941	1265.661	1210.448
874.122	28.747	1264.002	1207.435
875.137	28.361	1263.691	1204.443
876.152	28.254	1262.500	1202.460
877.166	28.337	1260.416	1200.878
878.181	28.579	1259.589	1201.537
879.195	28.840	1259.551	1203.076
880.210	28.921	1259.117	1203.051
881.225	29.084	1258.000	1202.908
882.239	28.994	1257.139	1201.354
883.254	29.172	1255.957	1201.245
884.268	29.144	1255.758	1200.730
885.283	29.190	1254.116	1199.316
886.298	29.131	1252.034	1196.793
887.312	29.217	1251.110	1196.329
888.327	29.141	1250.608	1195.213
889.341	28.925	1249.717	1192.805
890.356	28.784	1248.583	1190.663
891.371	28.783	1248.151	1190.105
892.385	28.793	1246.510	1188.459
893.400	28.673	1245.900	1186.958
894.414	28.603	1244.266	1184.803
895.429	28.759	1242.445	1183.943
896.444	28.695	1240.652	1181.673
897.458	28.577	1240.009	1180.156
898.473	28.614	1239.399	1179.678
899.487	28.480	1238.764	1178.068
900.502	28.764	1237.327	1178.387
901.517	28.761	1236.043	1177.005
902.531	28.873	1235.443	1177.012
903.546	28.978	1235.129	1177.250
904.560	28.912	1234.602	1176.185
905.575	29.096	1233.554	1176.227
906.589	29.012	1232.805	1174.828
907.604	28.993	1231.114	1172.955
