DTS Sentinel unit serial number:	SN409020Multiplexer serial number:	ORYXHardware model number:	OX4-SRSoftware version number:	ORYX F/W v3.00 Oryx Data Collector v3.7.2.0data status	okinstallation	HaddamTimeLapsedifferential loss correction	single-endedforward channel	channel 3reverse channel	N/Adate	2011/06/21time	23:31:17forward acquisition time	30.00reverse acquisition time	0.00gamma	498.7831k internal	0.1753k external	0.1753temperature offset calibration	1.0074default loss term (dB/km)	0.3790temperature slope calibration	1.3530multiplexer offset coefficient	1.0000multiplexer slope coefficient	1.0000fibre end	0.00T internal ref (°C)	23.22T ext. ref 1 (°C)	18.55T ext. ref 2 (°C)	0.05length (m)	temperature (°C)	Stokes	anti-Stokes-747.200	651.004	-0.086	-0.295
-746.185	41.850	0.329	0.396
-745.171	202.952	-0.152	0.313
-744.156	-89.685	0.439	0.170
-743.142	-88.990	-0.160	-0.063
-742.127	-40.777	0.105	-0.072
-741.112	5.120	-0.153	-0.150
-740.098	800.000	-0.130	0.633
-739.083	24.346	-0.202	0.221
-738.069	3.489	0.409	0.395
-737.054	-200.000	-0.378	0.001
-736.039	-55.879	-0.223	0.132
-735.025	-180.721	-0.264	-0.007
-734.010	-81.499	-0.161	0.070
-732.996	-200.000	-0.056	-0.417
-731.981	800.000	-0.084	-0.397
-730.966	-41.826	-0.141	0.096
-729.952	-115.591	-0.212	-0.052
-728.937	-128.177	-0.355	-0.067
-727.923	-2.974	-0.414	-0.382
-726.908	-187.142	-0.302	-0.005
-725.894	-107.875	-0.530	0.152
-724.879	-200.000	0.017	-0.344
-723.864	-11.710	0.318	-0.277
-722.850	-32.865	0.043	0.032
-721.835	67.151	0.656	-0.887
-720.821	193.725	0.033	0.067
-719.806	-168.213	-0.143	0.007
-718.791	-26.119	-0.519	-0.403
-717.777	24.847	0.202	-0.222
-716.762	12.216	-0.050	-0.051
-715.748	-71.908	0.107	0.052
-714.733	-115.061	0.391	-0.098
-713.718	158.913	-0.093	0.171
-712.704	177.987	0.113	0.220
-711.689	15.210	-0.241	0.251
-710.675	-200.000	0.035	-0.326
-709.660	-200.000	0.020	0.329
-708.645	0.623	-0.149	0.141
-707.631	-159.301	0.425	0.031
-706.616	-91.168	0.309	-0.117
-705.602	659.303	-0.045	-0.154
-704.587	-158.585	-0.257	0.019
-703.572	550.106	0.184	-0.587
-702.558	-200.000	0.015	-0.213
-701.543	73.576	-0.040	-0.056
-700.529	-132.611	-0.252	0.042
-699.514	35.532	0.226	0.263
-698.499	-121.623	-0.251	0.055
-697.485	-88.824	0.025	0.010
-696.470	-22.825	-0.084	-0.067
-695.456	-200.000	-0.009	0.620
-694.441	-82.984	-0.274	0.116
-693.426	236.730	-0.028	0.063
-692.412	151.409	0.082	-0.149
-691.397	-158.212	-0.403	0.031
-690.383	-33.911	-0.257	0.187
-689.368	46.403	0.060	0.074
-688.354	-116.622	-0.611	-0.148
-687.339	-200.000	-0.020	0.556
-686.324	-34.964	0.026	-0.019
-685.310	-113.390	0.344	-0.089
-684.295	-200.000	0.030	-0.538
-683.281	114.103	-0.186	0.300
-682.266	-2.327	0.185	-0.172
-681.251	-95.512	0.376	-0.133
-680.237	35.148	-0.288	-0.335
-679.222	82.474	-0.161	-0.231
-678.208	89.800	0.106	-0.157
-677.193	34.179	-0.262	0.302
-676.178	-200.000	0.018	0.258
-675.164	20.572	0.332	0.356
-674.149	-136.139	0.302	-0.046
-673.135	-65.283	0.281	0.149
-672.120	241.365	0.047	0.105
-671.105	-105.016	-0.090	0.027
-670.091	76.398	-0.398	0.558
-669.076	800.000	0.011	-0.056
-668.062	448.677	-0.112	-0.327
-667.047	-54.370	0.370	-0.221
-666.032	-20.607	-0.020	-0.016
-665.018	-158.113	-0.327	0.025
-664.003	-108.532	-0.696	-0.197
-662.989	-123.377	-0.119	0.025
-661.974	-10.225	0.027	0.023
-660.959	113.219	-0.275	-0.442
-659.945	55.562	0.111	0.142
-658.930	357.874	0.134	0.356
-657.916	-200.000	0.033	0.567
-656.901	800.000	-0.071	-0.269
-655.886	-84.493	0.335	0.139
-654.872	430.733	0.206	-0.594
-653.857	34.387	0.114	0.132
-652.843	37.711	0.089	0.105
-651.828	-131.555	-0.393	-0.068
-650.814	127.463	0.261	-0.439
-649.799	465.888	-0.104	-0.309
-648.784	121.696	0.066	-0.110
-647.770	-156.551	0.243	0.020
-646.755	115.506	-0.176	0.285
-645.741	25.322	-0.096	-0.105
-644.726	-200.000	-0.001	0.647
-643.711	212.687	-0.104	0.218
-642.697	566.184	-0.206	-0.663
-641.682	10.187	0.276	-0.277
-640.668	-8.743	-0.185	-0.164
-639.653	800.000	-0.149	0.562
-638.638	-67.376	-0.629	0.325
-637.624	-89.282	-0.139	-0.054
-636.609	-74.736	-0.194	-0.092
-635.595	800.000	0.035	-0.176
-634.580	-133.286	-0.252	-0.042
-633.565	800.000	-0.033	0.124
-632.551	-146.240	-0.517	-0.059
-631.536	376.153	-0.057	0.155
-630.522	-22.433	-0.390	-0.311
-629.507	-30.534	0.618	-0.462
-628.492	-168.162	-0.392	-0.020
-627.478	-101.427	-0.351	0.112
-626.463	-159.852	-0.318	0.023
-625.449	11.512	-0.427	0.432
-624.434	139.188	-0.050	0.087
-623.419	800.000	-0.033	0.142
-622.405	667.041	-0.103	0.354
-621.390	48.812	-0.045	-0.055
-620.376	306.926	0.117	-0.288
-619.361	-156.583	-0.154	0.012
-618.346	-114.644	-0.254	0.064
-617.332	-51.020	0.480	0.296
-616.317	-39.446	-0.347	0.239
-615.303	55.159	-0.155	0.197
-614.288	116.484	-0.146	-0.236
-613.273	-200.000	-0.013	-0.192
-612.259	-74.652	0.172	-0.082
-611.244	-38.222	0.307	-0.215
-610.230	-110.696	0.244	0.066
-609.215	31.151	-0.215	-0.244
-608.201	-134.161	-0.110	0.018
-607.186	-33.653	0.210	-0.152
-606.171	-140.252	0.118	-0.016
-605.157	-2.222	-0.069	0.063
-604.142	-88.388	0.343	0.134
-603.128	-200.000	0.001	0.462
-602.113	-60.149	0.089	-0.050
-601.098	-47.554	-0.168	0.108
-600.084	-51.714	-0.181	-0.111
-599.069	-7.856	0.280	-0.249
-598.055	-76.565	0.595	0.274
-597.040	4.038	0.092	0.089
-596.025	-200.000	-0.022	-0.421
-595.011	-200.000	0.021	-0.125
-593.996	-72.958	0.289	0.140
-592.982	-82.526	0.431	-0.183
-591.967	-88.978	0.248	0.097
-590.952	-144.061	-0.118	0.014
-589.938	800.000	-0.092	0.438
-588.923	-70.483	-0.333	0.165
-587.909	-167.002	0.192	0.010
-586.894	-168.785	0.591	-0.029
-585.879	127.230	0.186	0.312
-584.865	800.000	0.077	-0.304
-583.850	800.000	-0.072	0.344
-582.836	800.000	-0.019	-0.093
-581.821	471.463	0.052	-0.156
-580.806	800.000	-0.044	-0.207
-579.792	800.000	0.056	0.302
-578.777	-52.313	0.067	0.041
-577.763	-27.953	-0.208	0.158
-576.748	45.193	-0.167	0.203
-575.733	-69.500	-0.231	-0.116
-574.719	-167.641	-0.232	-0.012
-573.704	784.181	-0.161	-0.585
-572.690	-46.647	0.149	0.096
-571.675	378.624	-0.193	-0.523
-570.661	-200.000	0.076	-0.514
-569.646	-9.697	0.348	-0.305
-568.631	800.000	0.091	-0.389
-567.617	139.898	0.160	-0.279
-566.602	-53.806	-0.296	-0.177
-565.588	81.415	-0.165	0.236
-564.573	-84.827	-0.574	0.236
-563.558	-200.000	-0.023	0.247
-562.544	15.062	-0.382	0.394
-561.529	62.566	-0.268	0.353
-560.515	-154.688	0.493	0.043
-559.500	-200.000	-0.029	0.391
-558.485	-81.684	0.453	-0.195
-557.471	31.789	-0.227	-0.257
-556.456	-59.092	-0.338	-0.191
-555.442	-80.136	0.210	0.092
-554.427	159.117	0.203	0.372
-553.412	64.470	-0.259	0.343
-552.398	-189.140	0.135	-0.002
-551.383	-172.998	0.441	-0.018
-550.369	-115.051	0.552	-0.137
-549.354	-15.885	-0.281	0.235
-548.339	0.203	0.115	0.108
-547.325	-194.751	0.294	0.003
-546.310	259.006	-0.214	-0.487
-545.296	601.912	0.129	-0.424
-544.281	-200.000	-0.015	0.128
-543.266	-77.262	0.206	0.094
-542.252	-11.556	0.244	0.211
-541.237	90.095	0.267	0.393
-540.223	-127.969	0.113	0.021
-539.208	-96.994	0.116	-0.040
-538.193	-200.000	-0.023	-0.317
-537.179	-52.203	0.264	-0.161
-536.164	-154.947	0.384	-0.033
-535.150	-18.194	0.340	0.280
-534.135	-149.510	-0.210	0.022
-533.121	18.680	0.153	-0.161
-532.106	261.015	-0.139	-0.318
-531.091	-47.998	0.050	-0.032
-530.077	-91.064	-0.281	0.105
-529.062	33.246	0.259	0.296
-528.048	-24.404	-0.164	-0.129
-527.033	-61.177	0.304	-0.168
-526.018	-23.217	-0.396	-0.313
-525.004	86.162	-0.283	0.411
-523.989	800.000	-0.070	-0.268
-522.975	800.000	-0.104	-0.410
-521.960	94.503	-0.227	0.340
-520.945	-63.477	0.372	-0.200
-519.931	-122.356	0.440	-0.093
-518.916	-67.345	0.510	0.263
-517.902	-147.100	-0.189	0.021
-516.887	-200.000	-0.011	-0.394
-515.872	232.186	0.050	-0.109
-514.858	58.920	-0.064	0.083
-513.843	46.942	0.160	0.196
-512.829	-71.270	-0.098	-0.048
-511.814	-2.192	-0.243	-0.224
-510.799	-135.276	0.277	-0.043
-509.785	91.806	-0.349	0.517
-508.770	-28.268	0.211	0.160
-507.756	339.558	0.139	-0.357
-506.741	14.896	0.138	0.142
-505.726	-118.197	0.340	0.079
-504.712	21.460	-0.313	-0.335
-503.697	-57.105	-0.195	0.113
-502.683	800.000	0.150	0.580
-501.668	209.934	0.255	0.527
-500.653	-29.027	0.230	-0.173
-499.639	-185.039	0.598	0.012
-498.624	-14.447	-0.409	-0.345
-497.610	-32.212	-0.289	-0.212
-496.595	15.075	-0.168	-0.172
-495.581	-90.631	-0.199	0.075
-494.566	-174.397	-0.314	0.012
-493.551	-1.133	-0.016	0.015
-492.537	278.484	0.035	-0.083
-491.522	-200.000	0.006	0.542
-490.508	-200.000	-0.006	-0.175
-489.493	175.778	-0.279	0.533
-488.478	-157.710	0.783	0.060
-487.464	-139.925	-0.287	-0.039
-486.449	-70.657	0.190	-0.094
-485.435	-1.383	-0.345	-0.320
-484.420	-57.631	-0.268	-0.154
-483.405	46.182	-0.151	-0.184
-482.391	-134.432	0.069	0.011
-481.376	-96.092	-0.494	-0.171
-480.362	800.000	-0.049	0.249
-479.347	531.251	0.118	0.369
-478.332	-82.751	-0.371	-0.157
-477.318	56.905	0.344	-0.440
-476.303	-110.751	0.156	-0.042
-475.289	-92.205	0.251	-0.092
-474.274	655.779	-0.164	0.557
-473.259	-76.737	0.257	0.118
-472.245	-200.000	-0.010	0.104
-471.230	-86.934	0.192	0.076
-470.216	-87.929	-0.800	0.314
-469.201	144.377	0.029	0.052
-468.186	-93.352	-0.133	-0.048
-467.172	-200.000	0.010	-0.095
-466.157	144.573	0.123	0.217
-465.143	126.194	0.163	-0.272
-464.128	-200.000	0.051	0.362
-463.113	-29.756	-0.562	0.420
-462.099	-165.229	0.560	0.032
-461.084	-154.538	0.475	-0.041
-460.070	-171.127	0.369	0.016
-459.055	16.682	-0.376	-0.390
-458.040	292.803	-0.159	-0.381
-457.026	-200.000	-0.070	0.497
-456.011	-53.291	-0.432	0.259
-454.997	-94.520	-0.589	-0.209
-453.982	-88.320	-0.410	-0.160
-452.968	-56.977	-0.575	-0.331
-451.953	-94.632	0.200	0.071
-450.938	-101.265	0.306	-0.097
-449.924	-200.000	0.014	-0.097
-448.909	-160.787	-0.251	0.017
-447.895	33.341	0.368	0.419
-446.880	800.000	-0.051	0.286
-445.865	625.367	0.054	-0.178
-444.851	-34.151	0.483	-0.347
-443.836	-87.564	0.264	0.104
-442.822	-100.990	0.585	0.187
-441.807	55.829	-0.221	-0.281
-440.792	129.392	0.196	0.328
-439.778	-112.224	-0.194	-0.051
-438.763	-76.948	-0.427	-0.194
-437.749	229.544	0.090	-0.193
-436.734	-63.133	-0.489	-0.263
-435.719	-93.907	0.041	-0.015
-434.705	800.000	-0.054	0.268
-433.690	-4.581	-0.510	0.462
-432.676	-96.776	-0.499	-0.171
-431.661	-200.000	0.029	-0.323
-430.646	52.890	-0.486	0.609
-429.632	-52.336	0.173	-0.105
-428.617	-89.761	-0.334	0.128
-427.603	141.507	0.436	-0.758
-426.588	-99.248	0.177	0.058
-425.573	800.000	0.082	0.347
-424.559	194.508	-0.064	0.128
-423.544	123.389	-0.252	-0.414
-422.530	-23.858	0.102	0.080
-421.515	800.000	-0.076	0.315
-420.500	-169.809	-0.328	0.015
-419.486	-129.632	-0.689	0.124
-418.471	-95.903	0.372	-0.129
-417.457	264.840	0.023	-0.053
-416.442	800.000	-0.109	-0.539
-415.428	-69.271	-0.078	0.039
-414.413	-123.132	-0.397	0.083
-413.398	-121.454	-0.127	-0.027
-412.384	394.242	0.157	-0.430
-411.369	-200.000	-0.060	-0.395
-410.355	-87.022	0.355	-0.141
-409.340	33.293	-0.254	0.288
-408.325	4.085	0.274	0.262
-407.311	-48.788	-0.403	-0.253
-406.296	26.190	0.029	-0.031
-405.282	-100.544	-0.164	0.053
-404.267	0.695	-0.044	-0.041
-403.252	-107.912	-0.252	-0.071
-402.238	-15.614	-0.212	0.176
-401.223	10.238	-0.266	0.264
-400.209	-150.175	-0.216	0.022
-399.194	-111.050	-0.400	-0.107
-398.179	305.897	0.196	-0.480
-397.165	-200.000	-0.014	-0.223
-396.150	800.000	-0.025	0.126
-395.136	-34.422	0.262	0.187
-394.121	360.665	0.077	-0.203
-393.106	722.505	-0.180	-0.631
-392.092	-119.832	0.284	0.063
-391.077	85.454	-0.240	-0.346
-390.063	-177.480	-0.370	-0.012
-389.048	800.000	-0.081	-0.412
-388.033	-102.130	0.391	0.122
-387.019	-26.459	0.457	-0.350
-386.004	-200.000	-0.054	-0.583
-384.990	800.000	0.040	-0.210
-383.975	-29.017	0.312	0.233
-382.960	264.781	0.192	0.439
-381.946	14.334	-0.183	0.186
-380.931	-200.000	-0.013	0.187
-379.917	16.193	-0.016	-0.017
-378.902	-1.546	0.352	-0.324
-377.888	69.549	-0.172	0.231
-376.873	-7.830	0.224	0.197
-375.858	-96.322	-0.021	-0.007
-374.844	-200.000	0.051	-0.469
-373.829	461.275	0.040	0.117
-372.815	-64.719	-0.252	-0.133
-371.800	-76.770	0.275	0.125
-370.785	-81.302	0.248	0.107
-369.771	-37.525	-0.153	0.107
-368.756	-133.365	0.259	-0.042
-367.742	-200.000	0.005	0.138
-366.727	73.436	0.154	0.211
-365.712	-7.666	0.278	0.245
-364.698	-149.875	0.350	0.035
-363.683	-177.526	0.087	-0.003
-362.669	288.201	-0.184	-0.437
-361.654	800.000	0.032	-0.121
-360.639	-140.556	0.426	-0.057
-359.625	800.000	-0.062	0.290
-358.610	47.417	-0.322	-0.393
-357.596	-140.794	-0.207	0.028
-356.581	79.422	0.345	-0.485
-355.566	-79.442	0.303	0.133
-354.552	-59.467	0.371	0.207
-353.537	-133.270	0.540	0.088
-352.523	568.276	0.028	0.091
-351.508	173.760	0.143	0.271
-350.493	-200.000	0.088	0.526
-349.479	-66.538	-0.089	-0.046
-348.464	800.000	-0.050	-0.211
-347.450	112.062	-0.058	0.091
-346.435	48.904	0.350	0.429
-345.420	52.276	-0.204	0.255
-344.406	-160.499	-0.244	-0.017
-343.391	-63.039	-0.249	0.134
-342.377	-200.000	-0.013	-0.225
-341.362	-19.210	0.405	-0.328
-340.348	68.786	0.194	0.260
-339.333	218.786	-0.226	0.472
-338.318	654.700	0.102	0.343
-337.304	800.000	0.072	0.363
-336.289	585.940	-0.117	0.378
-335.275	-118.476	0.148	-0.034
-334.260	305.107	0.152	0.371
-333.245	610.109	0.055	0.180
-332.231	-51.405	0.558	-0.339
-331.216	-178.486	-0.064	-0.002
-330.202	-4.127	-0.288	-0.260
-329.187	723.673	-0.206	0.722
-328.172	-109.460	-0.272	-0.075
-327.158	-173.222	0.036	-0.001
-326.143	-113.709	-0.415	0.105
-325.129	800.000	0.152	0.642
-324.114	-126.759	0.292	-0.056
-323.099	-20.951	0.303	-0.242
-322.085	167.409	-0.046	0.086
-321.070	132.326	0.213	-0.359
-320.056	-188.835	0.465	0.007
-319.041	-118.872	0.401	0.091
-318.026	-14.623	-0.264	0.221
-317.012	510.506	-0.100	-0.304
-315.997	-2.778	0.077	0.070
-314.983	-15.550	-0.274	-0.228
-313.968	-133.868	0.263	0.042
-312.953	800.000	0.052	-0.202
-311.939	-106.734	-0.360	0.104
-310.924	-31.851	0.339	0.247
-309.910	-36.183	-0.254	-0.179
-308.895	-66.245	0.291	0.151
-307.880	800.000	0.090	-0.359
-306.866	192.088	0.147	-0.290
-305.851	137.729	-0.066	0.113
-304.837	800.000	-0.083	0.446
-303.822	47.684	-0.148	0.180
-302.807	327.915	0.125	-0.314
-301.793	-119.444	0.181	-0.041
-300.778	-98.077	0.244	-0.081
-299.764	80.504	0.278	0.392
-298.749	-200.000	0.015	0.261
-297.735	-125.152	-0.312	0.062
-296.720	185.812	0.248	0.482
-295.705	-74.448	0.246	-0.115
-294.691	278.809	-0.155	-0.362
-293.676	27.103	0.185	-0.203
-292.662	282.086	-0.066	0.156
-291.647	454.132	0.008	0.024
-290.632	-41.588	-0.380	0.254
-289.618	-133.707	-0.269	0.043
-288.603	-85.337	0.174	-0.070
-287.589	37.320	0.174	-0.201
-286.574	28.456	0.312	0.344
-285.559	-200.000	0.006	-0.110
-284.545	-159.903	-0.113	0.008
-283.530	-145.035	0.314	0.037
-282.516	800.000	-0.045	-0.177
-281.501	-93.969	0.240	0.085
-280.486	39.194	0.105	-0.123
-279.472	-200.000	-0.008	0.311
-278.457	266.885	-0.071	-0.163
-277.443	344.803	-0.084	-0.216
-276.428	-115.632	-0.482	0.117
-275.413	-200.000	-0.032	0.202
-274.399	6.514	-0.121	-0.117
-273.384	638.831	-0.080	0.268
-272.370	52.693	0.130	0.162
-271.355	-128.453	-0.276	-0.051
-270.340	95.018	-0.227	-0.336
-269.326	291.811	0.182	0.433
-268.311	-31.164	-0.481	0.352
-267.297	230.122	-0.256	0.547
-266.282	-64.292	0.444	0.235
-265.267	-46.980	0.462	-0.293
-264.253	-51.015	0.024	-0.015
-263.238	-83.757	-0.257	0.106
-262.224	40.110	0.114	-0.134
-261.209	61.051	0.579	0.748
-260.195	-111.011	0.265	-0.070
-259.180	-61.182	0.217	0.119
-258.165	-103.359	0.295	0.090
-257.151	-125.418	-0.245	-0.048
-256.136	144.390	-0.171	-0.299
-255.122	800.000	0.060	-0.233
-254.107	-81.950	-0.290	-0.123
-253.092	-64.927	0.397	0.208
-252.078	-147.494	0.277	0.030
-251.063	69.089	-0.196	-0.262
-250.049	242.153	0.169	-0.370
-249.034	-162.450	-0.205	0.013
-248.019	800.000	0.056	-0.299
-247.005	-15.306	0.396	0.329
-245.990	28.449	0.298	0.328
-244.976	-126.178	-0.455	-0.088
-243.961	8.894	-0.378	-0.370
-242.946	-52.647	-0.327	-0.196
-241.932	-36.168	-0.245	-0.172
-240.917	-103.124	-0.465	-0.142
-239.903	-98.028	0.558	0.186
-238.888	-13.761	0.143	0.120
-237.873	-59.459	-0.361	-0.201
-236.859	279.677	-0.282	-0.659
-235.844	-200.000	-0.060	-0.569
-234.830	-44.063	0.193	-0.126
-233.815	14.504	-0.344	-0.350
-232.800	-200.000	0.009	-0.152
-231.786	-200.000	0.038	-0.397
-230.771	-36.066	0.174	-0.122
-229.757	-200.000	0.024	-0.490
-228.742	313.394	-0.098	-0.240
-227.727	-39.101	0.265	0.181
-226.713	-91.635	0.420	-0.155
-225.698	138.675	-0.156	0.266
-224.684	718.599	0.151	-0.524
-223.669	-65.716	-0.299	0.155
-222.655	247.375	0.223	0.491
-221.640	8.428	0.344	-0.336
-220.625	-145.131	-0.319	0.037
-219.611	551.660	0.064	0.200
-218.596	-200.000	-0.002	0.349
-217.582	-74.391	0.268	-0.125
-216.567	231.327	0.249	-0.531
-215.552	64.625	-0.485	0.636
-214.538	187.251	-0.077	0.150
-213.523	800.000	-0.091	-0.407
-212.509	621.990	0.018	0.058
-211.494	800.000	0.058	-0.281
-210.479	-122.236	-0.119	-0.025
-209.465	-200.000	-0.030	-0.263
-208.450	94.042	-0.130	-0.192
-207.436	-14.704	0.295	-0.246
-206.421	-75.932	0.408	0.187
-205.406	591.494	0.125	0.403
-204.392	-144.702	-0.567	-0.067
-203.377	0.044	0.356	-0.330
-202.363	-200.000	-0.030	0.380
-201.348	-179.074	-0.096	-0.003
-200.333	190.096	-0.235	-0.459
-199.319	296.056	0.153	-0.367
-198.304	-63.417	-0.431	0.229
-197.290	-200.000	-0.106	-0.778
-196.275	-139.896	0.246	-0.033
-195.260	130.380	-0.247	0.412
-194.246	800.000	-0.071	0.327
-193.231	-117.862	-0.685	-0.158
-192.217	-137.845	0.452	0.065
-191.202	11.606	0.361	0.359
-190.187	-183.708	0.220	-0.005
-189.173	-200.000	0.008	0.149
-188.158	132.771	0.030	-0.050
-187.144	-13.200	-0.322	0.272
-186.129	55.350	0.212	0.266
-185.114	35.496	0.257	0.293
-184.100	-200.000	-0.034	0.210
-183.085	-62.973	-0.194	0.104
-182.071	59.689	-0.022	-0.028
-181.056	30.490	-0.132	-0.147
-180.042	253.012	-0.114	-0.253
-179.027	-109.378	0.494	0.135
-178.012	-99.311	0.183	0.060
-176.998	-200.000	0.037	0.347
-175.983	-200.000	0.067	-0.535
-174.969	-163.787	0.185	0.011
-173.954	-129.435	-0.137	0.024
-172.939	-59.171	0.153	0.085
-171.925	800.000	-0.033	-0.135
-170.910	-89.544	0.219	0.083
-169.896	-84.030	-0.029	-0.012
-168.881	-52.591	-0.157	0.094
-167.866	-127.053	-0.308	-0.058
-166.852	-140.409	0.270	-0.036
-165.837	3.663	-0.154	0.146
-164.823	4.601	0.179	-0.170
-163.808	161.012	0.277	-0.503
-162.793	800.000	0.024	0.128
-161.779	327.721	-0.168	0.419
-160.764	-128.000	-0.219	0.040
-159.750	342.870	0.078	0.199
-158.735	-116.748	-0.369	-0.087
-157.720	-61.270	-0.314	-0.171
-156.706	-167.590	-0.355	0.018
-155.691	89.596	-0.186	-0.269
-154.677	-129.526	-0.514	0.091
-153.662	800.000	0.035	0.130
-152.647	139.890	-0.227	-0.388
-151.633	60.804	-0.069	0.089
-150.618	-200.000	0.008	-0.240
-149.604	-69.727	0.163	-0.080
-148.589	-120.363	0.123	-0.027
-147.574	-13.497	-0.201	-0.169
-146.560	-29.916	0.188	-0.138
-145.545	178.927	0.116	-0.221
-144.531	11.592	-0.330	-0.328
-143.516	124.703	-0.208	-0.341
-142.502	66.496	0.334	0.440
-141.487	-70.773	0.148	0.072
-140.472	-70.271	-0.415	0.203
-139.458	107.272	-0.091	0.140
-138.443	-200.000	0.030	-0.236
-137.429	324.581	-0.087	-0.216
-136.414	17.108	-0.066	0.068
-135.399	-115.514	0.236	0.057
-134.385	800.000	0.048	-0.237
-133.370	775.982	-0.056	0.200
-132.356	13.258	-0.247	0.248
-131.341	13.137	0.322	-0.322
-130.326	141.305	-0.059	-0.101
-129.312	-90.851	-0.434	0.161
-128.297	-200.000	0.013	0.277
-127.283	-98.844	-0.650	0.213
-126.268	-74.970	0.234	-0.108
-125.253	-150.976	0.338	-0.033
-124.239	-148.369	0.752	-0.079
-123.224	-0.963	0.194	-0.177
-122.210	-35.592	-0.549	-0.385
-121.195	800.000	-0.043	-0.216
-120.180	-151.532	-0.170	-0.016
-119.166	800.000	0.099	-0.417
-118.151	660.421	0.101	-0.340
-117.137	-71.420	-0.065	-0.031
-116.122	309.144	0.143	-0.347
-115.107	-111.170	-0.242	0.064
-114.093	-1.097	-0.183	-0.167
-113.078	-86.455	0.496	-0.196
-112.064	-26.912	-0.335	-0.253
-111.049	-58.302	-0.454	-0.255
-110.034	800.000	-0.091	-0.427
-109.020	-200.000	-0.016	-0.281
-108.005	403.257	-0.097	-0.266
-106.991	406.184	-0.082	-0.225
-105.976	-101.714	-0.639	-0.199
-104.962	-62.550	0.051	-0.027
-103.947	-117.870	0.628	0.145
-102.932	-78.340	0.378	-0.167
-101.918	58.920	-0.193	0.246
-100.903	92.610	0.124	0.181
-99.889	800.000	0.026	-0.111
-98.874	372.617	-0.084	0.222
-97.859	181.056	0.289	0.552
-96.845	-142.478	0.178	0.022
-95.830	-28.864	-0.455	0.337
-94.816	181.481	0.161	0.307
-93.801	800.000	0.102	0.560
-92.786	-28.436	0.065	-0.048
-91.772	30.102	-0.053	-0.058
-90.757	-200.000	-0.038	-0.251
-89.743	-57.422	0.279	-0.158
-88.728	-200.000	-0.048	-0.398
-87.713	-200.000	0.050	0.441
-86.699	-52.763	-0.372	-0.221
-85.684	40.824	0.252	0.294
-84.670	-30.171	0.244	-0.179
-83.655	93.253	0.226	0.331
-82.640	-130.442	0.440	0.076
-81.626	190.015	0.092	-0.180
-80.611	-98.449	0.110	-0.036
-79.597	258.881	0.240	-0.536
-78.582	435.598	-0.088	-0.249
-77.567	-2.262	0.179	0.162
-76.553	-87.233	0.375	0.146
-75.538	63.583	-0.258	0.334
-74.524	-91.767	-0.271	0.099
-73.509	-45.041	-0.380	-0.244
-72.494	-166.418	0.420	-0.022
-71.480	63.813	-0.419	0.545
-70.465	719.939	0.028	-0.096
-69.451	-137.204	-0.163	0.024
-68.436	361.423	-0.156	0.407
-67.422	617.431	-0.069	-0.226
-66.407	74.490	-0.224	-0.305
-65.392	38.060	0.203	-0.233
-64.378	-173.888	-0.259	0.010
-63.363	205.551	0.267	0.538
-62.349	-30.463	0.088	-0.065
-61.334	26.076	-2.499	-2.693
-60.319	47.974	1.415	1.709
-59.305	307.308	-3.124	-7.551
-58.290	83.612	3.783	5.334
-57.276	305.365	4.082	9.837
-56.261	-200.000	22.346	318.832
-55.246	359.668	1295.772	3362.272
-54.232	53.097	2844.870	3519.534
-53.217	51.689	2663.095	3272.767
-52.203	32.445	2392.671	2669.329
-51.188	28.423	2057.764	2246.176
-50.173	25.160	1944.049	2083.921
-49.159	23.975	1932.875	2058.083
-48.144	23.508	1928.836	2048.280
-47.130	23.286	1926.498	2043.145
-46.115	23.458	1923.904	2042.303
-45.100	23.495	1922.952	2041.641
-44.086	23.484	1921.404	2039.793
-43.071	23.517	1920.348	2038.973
-42.057	23.351	1918.994	2035.533
-41.042	23.380	1916.968	2033.633
-40.027	23.512	1914.886	2032.876
-39.013	23.428	1913.852	2030.722
-37.998	23.461	1912.868	2029.981
-36.984	23.297	1911.912	2027.004
-35.969	23.424	1910.232	2026.596
-34.954	23.401	1909.044	2024.987
-33.940	23.291	1908.753	2023.335
-32.925	23.270	1906.482	2020.609
-31.911	23.386	1904.868	2020.155
-30.896	23.368	1903.568	2018.485
-29.881	23.301	1902.569	2016.574
-28.867	23.269	1901.049	2014.526
-27.852	23.212	1899.413	2012.055
-26.838	23.296	1898.186	2011.641
-25.823	23.341	1896.698	2010.492
-24.809	23.280	1895.362	2008.296
-23.794	23.290	1894.687	2007.614
-22.779	23.229	1893.028	2005.089
-21.765	23.128	1892.258	2003.046
-20.750	23.114	1891.306	2001.800
-19.736	23.274	1889.609	2001.736
-18.721	23.165	1888.855	1999.621
-17.706	23.245	1886.988	1998.474
-16.692	23.238	1886.233	1997.512
-15.677	23.142	1884.837	1994.872
-14.663	23.166	1882.854	1992.970
-13.648	23.018	1882.434	1990.764
-12.633	23.205	1880.381	1990.629
-11.619	23.004	1879.904	1987.772
-10.604	23.103	1878.314	1987.130
-9.590	23.029	1877.172	1985.008
-8.575	23.076	1876.094	1984.319
-7.560	23.032	1875.291	1982.897
-6.546	23.062	1873.718	1981.490
-5.531	23.103	1872.684	1980.782
-4.517	23.045	1871.248	1978.536
-3.502	22.983	1870.588	1977.064
-2.487	23.102	1869.475	1977.146
-1.473	23.221	1865.555	1974.257
-0.458	22.786	1848.382	1951.162
0.556	19.442	1993.375	2052.007
1.571	18.040	2196.508	2242.367
2.586	18.832	2235.571	2292.601
3.600	18.817	2239.033	2295.673
4.615	18.742	2237.490	2292.811
5.629	18.796	2235.139	2290.850
6.644	18.805	2234.013	2289.551
7.659	18.784	2232.113	2287.044
8.673	18.909	2229.138	2285.388
9.688	18.675	2238.802	2291.883
10.702	17.564	2319.542	2358.797
11.717	15.855	2382.555	2398.129
12.731	7.419	2362.462	2257.386
13.746	1.012	2345.152	2149.401
14.761	0.198	2341.019	2133.765
15.775	-0.003	2339.983	2129.701
16.790	0.011	2338.440	2128.236
17.804	0.060	2337.126	2127.482
18.819	0.060	2336.182	2126.368
19.834	0.008	2334.538	2123.885
20.848	0.061	2332.329	2122.372
21.863	0.078	2330.768	2120.942
22.877	0.017	2328.835	2118.057
23.892	0.018	2326.595	2115.791
24.907	-0.049	2324.440	2112.622
25.921	0.053	2322.878	2112.399
26.936	-0.016	2320.773	2109.259
27.950	0.056	2317.630	2107.158
28.965	0.024	2316.369	2105.309
29.980	0.009	2314.929	2103.532
30.994	0.083	2312.311	2101.948
32.009	3.961	2323.338	2166.365
33.023	13.147	2351.051	2322.257
34.038	17.191	2357.062	2385.090
35.053	17.331	2354.101	2383.778
36.067	17.159	2350.672	2377.604
37.082	17.025	2349.464	2374.208
38.096	17.167	2347.306	2373.751
39.111	17.101	2346.451	2371.670
40.126	17.370	2343.348	2372.025
41.140	17.537	2341.748	2372.459
42.155	17.525	2340.205	2370.448
43.169	17.541	2338.103	2368.250
44.184	17.276	2335.571	2361.702
45.199	17.326	2334.208	2360.739
46.213	17.353	2333.299	2359.916
47.228	17.482	2332.297	2360.411
48.242	17.576	2329.450	2358.557
49.257	17.678	2327.471	2357.690
50.271	17.737	2325.961	2356.706
51.286	17.642	2322.546	2351.641
52.301	17.405	2320.923	2346.426
53.315	18.144	2324.429	2359.954
54.330	20.936	2332.207	2406.363
55.344	22.695	2333.158	2431.456
56.359	22.901	2330.977	2431.737
57.374	23.142	2329.885	2433.641
58.388	23.373	2325.840	2432.313
59.403	22.985	2323.218	2423.931
60.417	22.708	2318.565	2414.979
61.432	22.705	2317.762	2413.806
62.447	22.889	2317.090	2415.346
63.461	23.115	2315.193	2416.191
64.476	23.349	2312.967	2416.792
65.490	22.893	2310.759	2407.941
66.505	22.176	2306.596	2393.506
67.520	19.910	2298.962	2354.358
68.534	17.751	2290.251	2315.716
69.549	17.143	2285.510	2302.354
70.563	17.113	2283.028	2299.176
71.578	17.075	2281.307	2296.650
72.593	17.263	2279.125	2296.730
73.607	17.308	2278.514	2296.452
74.622	17.194	2275.877	2291.970
75.636	17.146	2272.465	2287.620
76.651	17.168	2270.459	2285.618
77.666	17.003	2268.370	2281.016
78.680	16.993	2265.837	2278.058
79.695	16.785	2264.009	2273.135
80.709	16.687	2263.144	2270.684
81.724	16.726	2260.246	2268.027
82.739	16.831	2257.577	2266.492
83.753	16.755	2257.295	2264.910
84.768	16.645	2255.556	2261.419
85.782	16.646	2254.086	2259.688
86.797	16.746	2251.575	2258.235
87.812	16.882	2249.221	2257.429
88.826	16.888	2249.033	2257.043
89.841	16.911	2245.915	2253.965
90.855	16.960	2243.496	2251.913
91.870	17.116	2242.644	2252.876
92.884	17.056	2240.137	2249.283
93.899	17.143	2239.102	2249.128
94.914	17.803	2242.708	2261.289
95.928	20.325	2249.928	2301.948
96.943	21.177	2247.966	2311.008
97.957	18.743	2237.428	2267.628
98.972	17.241	2230.411	2240.357
99.987	16.945	2228.529	2234.283
101.001	16.921	2226.151	2231.314
102.016	16.935	2223.963	2229.034
103.030	16.749	2222.274	2224.622
104.045	16.963	2218.735	2223.633
105.060	16.757	2217.380	2219.302
106.074	16.766	2215.548	2217.319
107.089	16.886	2213.517	2216.595
108.103	16.864	2212.815	2215.334
109.118	16.933	2211.017	2214.184
110.133	16.925	2209.742	2212.538
111.147	16.982	2206.116	2209.382
112.162	16.834	2205.615	2206.679
113.176	16.936	2203.639	2205.768
114.191	16.949	2201.719	2203.750
115.206	17.110	2199.573	2203.445
116.220	16.954	2198.581	2200.156
117.235	16.947	2197.028	2198.242
118.249	17.095	2194.212	2197.093
119.264	17.079	2193.513	2195.925
120.279	17.001	2191.451	2192.575
121.293	17.052	2190.114	2191.639
122.308	17.035	2188.728	2189.767
123.322	17.016	2187.215	2187.751
124.337	17.406	2189.035	2194.370
125.352	20.230	2196.316	2238.071
126.366	20.978	2194.828	2245.988
127.381	18.240	2183.813	2199.119
128.395	17.116	2178.533	2179.055
129.410	17.042	2175.731	2175.037
130.424	16.898	2174.046	2171.233
131.439	17.012	2172.954	2171.353
132.454	16.989	2170.828	2168.674
133.468	17.146	2169.344	2168.950
134.483	17.220	2168.945	2169.235
135.497	17.150	2166.341	2165.478
136.512	17.270	2163.487	2163.893
137.527	17.140	2161.531	2160.016
138.541	16.824	2159.844	2154.043
139.556	16.903	2159.703	2154.653
140.570	16.835	2157.797	2151.617
141.585	16.753	2156.261	2148.789
142.600	16.787	2155.070	2147.773
143.614	16.754	2152.423	2144.469
144.629	16.856	2150.171	2143.255
145.643	16.757	2149.514	2141.085
146.658	16.687	2147.417	2137.854
147.673	16.729	2145.595	2136.320
148.687	16.847	2144.642	2136.613
149.702	16.900	2143.825	2136.209
150.716	16.941	2142.506	2135.164
151.731	17.037	2141.903	2135.521
152.746	17.215	2139.685	2135.294
153.760	17.853	2143.081	2146.501
154.775	20.591	2150.650	2188.511
155.789	21.549	2148.530	2198.187
156.804	18.814	2138.134	2152.887
157.819	17.219	2131.541	2125.951
158.833	16.926	2127.746	2118.235
159.848	16.927	2125.120	2115.371
160.862	17.018	2124.435	2115.581
161.877	17.057	2123.991	2115.376
162.892	17.092	2123.154	2114.730
163.906	17.074	2122.557	2113.654
164.921	17.003	2120.003	2109.971
165.935	17.103	2117.405	2108.384
166.950	17.247	2115.107	2107.637
167.964	17.053	2112.905	2102.767
168.979	16.902	2111.678	2099.415
169.994	16.828	2109.638	2096.217
171.008	16.857	2107.020	2093.721
172.023	16.717	2106.322	2091.046
173.037	16.876	2105.521	2091.969
174.052	16.910	2104.454	2091.084
175.067	16.895	2102.928	2089.137
176.081	16.834	2101.138	2086.345
177.096	17.038	2100.020	2087.505
178.110	17.142	2098.314	2086.852
179.125	17.103	2097.677	2085.489
180.140	17.032	2096.826	2083.513
181.154	17.119	2095.762	2083.283
182.169	17.350	2095.252	2085.367
183.183	18.270	2096.484	2097.686
184.198	21.139	2103.704	2140.069
185.213	21.626	2101.483	2143.545
186.227	18.658	2092.136	2097.354
187.242	17.442	2087.435	2077.479
188.256	17.265	2085.424	2073.050
189.271	17.050	2083.157	2067.918
190.286	16.999	2081.186	2065.089
191.300	17.053	2078.856	2063.192
192.315	17.042	2077.799	2061.759
193.329	17.217	2076.914	2062.768
194.344	17.384	2075.915	2063.575
195.359	17.425	2074.184	2062.101
196.373	17.146	2071.269	2055.561
197.388	16.933	2069.466	2050.937
198.402	16.965	2066.477	2048.115
199.417	16.864	2064.449	2044.642
200.432	16.917	2063.437	2044.035
201.446	16.936	2063.007	2043.599
202.461	16.840	2060.895	2040.103
203.475	16.818	2058.829	2037.543
204.490	16.754	2057.146	2034.857
205.504	16.861	2054.258	2033.047
206.519	16.945	2052.624	2032.206
207.534	16.917	2051.455	2030.461
208.548	17.074	2049.365	2030.038
209.563	16.978	2049.633	2028.902
210.577	17.065	2048.966	2029.043
211.592	17.200	2046.740	2028.220
212.607	18.621	2052.182	2050.450
213.621	21.782	2059.994	2096.070
214.636	21.265	2053.357	2082.865
215.650	18.067	2044.179	2035.099
216.665	17.186	2040.677	2020.830
217.680	17.100	2037.860	2016.779
218.694	16.976	2036.364	2013.571
219.709	16.936	2034.163	2010.677
220.723	17.052	2033.664	2011.328
221.738	17.116	2031.467	2009.678
222.753	17.137	2029.905	2008.141
223.767	17.208	2028.365	2007.217
224.782	17.253	2026.458	2005.631
225.796	17.095	2024.893	2001.965
226.811	17.181	2023.343	2001.217
227.826	17.040	2022.417	1998.390
228.840	16.952	2021.206	1995.916
229.855	16.974	2019.579	1994.325
230.869	17.084	2018.381	1994.200
231.884	17.027	2016.061	1990.999
232.899	17.124	2014.731	1990.588
233.913	17.247	2013.379	1990.471
234.928	17.237	2012.763	1989.504
235.942	17.198	2010.844	1986.912
236.957	17.163	2010.196	1985.618
237.972	17.337	2008.015	1985.268
238.986	17.144	2007.510	1982.268
240.001	17.125	2006.041	1980.355
241.015	17.241	2004.759	1980.205
242.030	18.212	2006.431	1992.998
243.045	20.744	2012.899	2028.885
244.059	21.038	2009.221	2028.380
245.074	18.431	2000.549	1988.997
246.088	17.495	1996.258	1973.599
247.103	17.586	1995.546	1973.714
248.117	17.495	1994.042	1970.926
249.132	17.340	1991.291	1966.176
250.147	17.290	1989.315	1963.405
251.161	17.301	1988.171	1962.172
252.176	17.541	1988.191	1964.741
253.190	17.707	1985.469	1963.742
254.205	17.647	1983.182	1960.547
255.220	17.501	1982.492	1957.947
256.234	17.377	1981.967	1955.752
257.249	17.275	1979.045	1951.458
258.263	17.232	1978.823	1950.518
259.278	17.267	1977.619	1949.500
260.293	17.093	1975.161	1944.836
261.307	16.834	1973.226	1939.717
262.322	16.860	1971.339	1937.934
263.336	16.900	1968.498	1935.370
264.351	16.833	1967.692	1933.574
265.366	16.874	1966.392	1932.536
266.380	16.919	1964.466	1930.925
267.395	16.951	1963.652	1930.263
268.409	16.892	1962.621	1928.337
269.424	16.996	1960.779	1927.490
270.439	16.984	1960.346	1926.696
271.453	17.891	1963.558	1939.983
272.468	20.904	1968.792	1979.380
273.482	21.076	1964.321	1976.610
274.497	18.248	1955.703	1935.592
275.512	17.124	1951.010	1917.958
276.526	17.081	1947.601	1913.891
277.541	16.938	1946.903	1911.357
278.555	16.926	1944.575	1908.712
279.570	16.947	1942.299	1906.480
280.585	16.842	1942.378	1905.143
281.599	17.025	1940.868	1905.500
282.614	16.966	1940.768	1904.509
283.628	17.272	1939.961	1906.944
284.643	17.360	1939.356	1907.106
285.657	17.550	1937.995	1907.677
286.672	17.594	1936.810	1906.777
287.687	17.598	1934.657	1904.474
288.701	17.524	1933.277	1902.066
289.716	17.477	1932.143	1900.192
290.730	17.561	1930.689	1899.473
291.745	17.663	1929.548	1899.271
292.760	17.715	1928.385	1898.475
293.774	17.671	1926.806	1896.199
294.789	17.567	1925.794	1893.815
295.803	17.404	1923.518	1889.535
296.818	17.442	1921.891	1888.133
297.833	17.451	1920.633	1886.770
298.847	17.360	1919.218	1884.145
299.862	17.304	1918.662	1882.747
300.876	18.076	1921.059	1893.471
301.891	20.984	1926.920	1931.456
302.906	21.464	1923.757	1933.388
303.920	18.617	1914.784	1892.614
304.935	17.510	1911.432	1876.817
305.949	17.488	1908.176	1873.147
306.964	17.436	1907.038	1871.236
307.979	17.512	1905.940	1870.768
308.993	17.663	1905.156	1871.447
310.008	18.008	1902.502	1872.418
311.022	17.826	1901.945	1869.633
312.037	17.715	1899.942	1866.224
313.052	17.828	1899.737	1867.044
314.066	18.299	1898.407	1870.691
315.081	18.053	1895.847	1865.243
316.095	17.569	1894.364	1858.251
317.110	17.306	1892.237	1853.060
318.125	17.213	1891.004	1850.617
319.139	17.327	1889.785	1850.451
320.154	17.402	1887.807	1849.105
321.168	17.315	1886.578	1846.728
322.183	17.095	1885.531	1843.081
323.197	16.913	1883.281	1838.678
324.212	16.885	1880.859	1835.794
325.227	16.749	1879.246	1832.517
326.241	16.803	1877.185	1830.874
327.256	16.984	1876.263	1831.723
328.270	16.908	1875.454	1829.895
329.285	16.863	1876.526	1830.232
330.300	18.126	1879.986	1847.109
331.314	21.284	1886.110	1887.244
332.329	21.202	1881.082	1881.103
333.343	18.040	1871.634	1837.313
334.358	17.042	1867.332	1822.104
335.373	16.818	1865.583	1817.761
336.387	16.737	1863.235	1814.383
337.402	16.694	1862.149	1812.646
338.416	16.758	1861.681	1812.668
339.431	16.998	1859.667	1813.062
340.446	17.036	1857.581	1811.225
341.460	17.098	1857.085	1811.184
342.475	17.421	1856.106	1813.479
343.489	17.426	1854.796	1812.033
344.504	17.429	1853.837	1810.908
345.519	17.471	1852.771	1810.099
346.533	17.587	1851.866	1810.238
347.548	18.004	1851.917	1814.523
348.562	18.920	1853.088	1825.234
349.577	19.182	1851.722	1826.462
350.592	18.359	1848.062	1813.873
351.606	18.028	1846.694	1808.799
352.621	17.983	1844.234	1805.697
353.635	17.784	1842.930	1802.090
354.650	17.705	1841.160	1799.300
355.665	17.611	1839.460	1796.427
356.679	17.427	1837.943	1792.786
357.694	17.449	1836.036	1790.943
358.708	17.456	1835.605	1790.379
359.723	18.505	1839.887	1805.448
360.738	21.442	1845.261	1841.648
361.752	21.043	1839.332	1831.298
362.767	18.261	1831.000	1793.518
363.781	17.426	1828.007	1781.584
364.796	17.355	1826.816	1779.470
365.810	17.305	1825.489	1777.439
366.825	17.465	1824.129	1777.576
367.840	17.466	1822.787	1776.071
368.854	17.493	1822.109	1775.483
369.869	17.853	1821.271	1778.215
370.883	18.576	1821.685	1785.986
371.898	18.972	1819.843	1788.103
372.913	18.256	1817.980	1778.575
373.927	18.182	1816.948	1776.581
374.942	18.486	1815.978	1778.592
375.956	18.016	1814.221	1771.759
376.971	17.609	1811.119	1764.290
377.986	17.367	1808.879	1759.372
379.000	17.266	1808.278	1757.533
380.015	17.292	1806.910	1756.265
381.029	16.973	1804.709	1750.601
382.044	16.982	1802.558	1748.406
383.059	16.977	1800.157	1745.809
384.073	16.938	1799.849	1744.900
385.088	16.965	1798.523	1743.690
386.102	16.906	1797.718	1742.084
387.117	16.940	1795.059	1739.652
388.132	16.898	1795.299	1739.243
389.146	18.014	1799.451	1754.580
390.161	21.184	1804.857	1792.410
391.175	20.978	1797.321	1782.592
392.190	17.899	1789.235	1742.812
393.205	17.073	1785.784	1730.784
394.219	17.057	1783.247	1727.957
395.234	17.050	1782.176	1726.637
396.248	17.075	1780.283	1724.848
397.263	17.037	1778.483	1722.514
398.278	17.034	1776.989	1720.835
399.292	17.121	1775.650	1720.211
400.307	16.983	1775.407	1718.368
401.321	17.112	1774.652	1718.742
402.336	17.161	1773.551	1717.972
403.350	17.405	1772.070	1718.803
404.365	17.619	1771.502	1720.223
405.380	18.208	1770.869	1725.373
406.394	18.282	1770.510	1725.572
407.409	18.170	1768.827	1722.584
408.423	18.182	1767.989	1721.687
409.438	18.062	1766.278	1718.601
410.453	18.099	1764.915	1717.444
411.467	17.883	1764.563	1714.716
412.482	17.661	1761.812	1709.594
413.496	17.493	1759.728	1705.681
414.511	17.400	1757.614	1702.486
415.526	17.369	1755.024	1699.471
416.540	17.189	1753.980	1696.443
417.555	17.154	1753.492	1695.424
418.569	17.431	1753.954	1698.439
419.584	17.493	1753.689	1698.602
420.599	17.592	1751.959	1697.713
421.613	17.343	1751.407	1694.484
422.628	17.292	1749.179	1691.614
423.642	17.137	1748.149	1688.864
424.657	17.253	1746.168	1687.909
425.672	17.312	1744.913	1687.088
426.686	17.379	1743.471	1686.160
427.701	17.199	1742.096	1682.831
428.715	17.384	1740.828	1683.248
429.730	17.552	1740.395	1684.298
430.745	17.535	1738.627	1682.217
431.759	17.528	1738.244	1681.570
432.774	17.757	1738.851	1684.228
433.788	18.066	1739.332	1687.568
434.803	18.489	1738.524	1690.771
435.818	18.493	1737.505	1689.615
436.832	18.240	1736.991	1686.412
437.847	17.348	1729.859	1670.483
438.861	9.556	1709.410	1574.244
439.876	1.783	1693.825	1483.811
440.890	0.380	1689.761	1466.370
441.905	0.102	1689.552	1463.296
442.920	0.117	1688.569	1462.419
443.934	0.091	1687.511	1461.073
444.949	0.103	1686.331	1459.991
445.963	-0.032	1685.167	1457.493
446.978	0.017	1684.954	1457.606
447.993	-0.069	1683.717	1455.528
449.007	0.175	1680.167	1454.660
450.022	0.177	1678.767	1453.286
451.036	0.089	1678.014	1451.605
452.051	1.164	1681.388	1464.793
453.066	8.958	1699.094	1556.290
454.080	16.692	1710.949	1642.662
455.095	18.405	1713.785	1661.906
456.109	18.874	1714.572	1667.047
457.124	19.282	1712.940	1669.226
458.139	19.265	1712.565	1668.497
459.153	19.466	1711.950	1669.658
460.168	19.445	1709.554	1666.914
461.182	19.358	1708.460	1664.807
462.197	19.328	1706.247	1662.162
463.212	19.186	1704.300	1658.685
464.226	19.294	1703.352	1658.615
465.241	19.314	1703.103	1658.362
466.255	19.485	1701.871	1658.620
467.270	19.463	1700.606	1656.975
468.285	19.242	1699.180	1653.254
469.299	19.169	1697.599	1650.816
470.314	19.344	1695.118	1649.889
471.328	19.181	1694.479	1647.500
472.343	19.327	1693.562	1647.822
473.358	19.463	1693.023	1648.404
474.372	19.422	1691.712	1646.532
475.387	19.284	1689.659	1643.013
476.401	19.280	1687.652	1640.828
477.416	19.251	1687.448	1640.160
478.430	19.237	1686.335	1638.748
479.445	19.102	1684.095	1635.081
480.460	19.023	1682.773	1632.853
481.474	19.118	1682.752	1633.545
482.489	19.390	1681.976	1635.181
483.503	19.570	1680.225	1635.002
484.518	19.419	1679.595	1632.751
485.533	19.432	1677.804	1630.944
486.547	19.515	1675.898	1629.685
487.562	19.691	1675.879	1631.136
488.576	19.719	1674.004	1629.381
489.591	19.564	1673.253	1626.988
490.606	19.429	1671.734	1624.041
491.620	19.469	1670.729	1623.246
492.635	19.701	1669.075	1623.636
493.649	19.954	1667.075	1623.884
494.664	19.595	1665.069	1618.357
495.679	19.140	1663.460	1612.318
496.693	19.197	1662.503	1611.726
497.708	19.433	1662.532	1613.786
498.722	19.841	1661.149	1616.081
499.737	19.734	1660.310	1614.067
500.752	19.502	1658.071	1609.525
501.766	19.442	1656.430	1607.173
502.781	19.552	1655.237	1606.852
503.795	19.637	1653.146	1605.425
504.810	19.584	1652.831	1604.430
505.825	19.674	1652.900	1605.148
506.839	19.724	1651.478	1604.043
507.854	19.652	1649.983	1601.725
508.868	19.886	1647.627	1601.422
509.883	19.905	1647.112	1600.911
510.898	19.957	1646.196	1600.306
511.912	19.851	1644.082	1597.077
512.927	19.596	1642.863	1593.339
513.941	19.567	1640.788	1590.870
514.956	19.381	1640.534	1588.711
515.971	19.400	1638.912	1587.126
516.985	19.448	1638.062	1586.555
518.000	19.594	1637.363	1587.039
519.014	19.762	1637.054	1588.102
520.029	19.849	1635.335	1587.047
521.043	19.906	1633.909	1585.997
522.058	19.886	1631.710	1583.488
523.073	19.990	1630.769	1583.340
524.087	20.306	1630.061	1585.366
525.102	20.260	1628.561	1583.291
526.116	19.850	1626.885	1577.720
527.131	19.810	1626.181	1576.481
528.146	19.965	1626.396	1577.924
529.160	20.081	1624.753	1577.201
530.175	19.972	1624.184	1575.458
531.189	20.189	1623.020	1576.128
532.204	20.174	1621.495	1574.319
533.219	19.862	1619.968	1569.799
534.233	19.672	1618.484	1566.443
535.248	19.886	1618.024	1567.759
536.262	20.249	1617.812	1570.677
537.277	20.191	1615.716	1567.919
538.292	19.874	1613.785	1562.987
539.306	19.879	1611.765	1560.884
540.321	19.925	1610.705	1560.089
541.335	19.772	1609.641	1557.489
542.350	19.960	1608.167	1557.571
543.365	20.014	1607.895	1557.610
544.379	20.033	1606.590	1556.337
545.394	20.278	1605.218	1557.029
546.408	19.934	1602.163	1550.779
547.423	19.660	1601.533	1547.516
548.438	19.542	1600.884	1545.642
549.452	19.923	1599.644	1547.687
550.467	19.993	1598.489	1547.011
551.481	20.021	1598.038	1546.639
552.496	20.125	1597.804	1547.161
553.511	20.265	1596.503	1546.977
554.525	20.286	1594.923	1545.445
555.540	20.563	1594.244	1547.083
556.554	20.608	1592.850	1545.943
557.569	20.459	1591.136	1542.770
558.583	20.289	1589.621	1539.599
559.598	20.233	1588.746	1538.063
560.613	20.329	1587.538	1537.566
561.627	20.174	1586.959	1535.443
562.642	20.377	1585.582	1535.736
563.656	20.737	1584.456	1537.657
564.671	20.482	1583.696	1534.471
565.686	20.461	1581.857	1532.319
566.700	20.241	1580.350	1528.726
567.715	20.102	1578.582	1525.603
568.729	19.956	1577.176	1522.774
569.744	19.825	1575.021	1519.353
570.759	19.914	1573.527	1518.515
571.773	19.915	1573.538	1518.351
572.788	20.212	1572.609	1519.888
573.802	20.218	1570.812	1518.024
574.817	20.413	1569.653	1518.436
575.832	20.572	1568.789	1518.819
576.846	20.647	1566.857	1517.424
577.861	20.515	1566.675	1515.907
578.875	20.477	1566.420	1515.147
579.890	20.676	1564.961	1515.293
580.905	20.790	1564.226	1515.396
581.919	20.802	1563.836	1514.946
582.934	20.861	1562.670	1514.151
583.948	20.707	1561.254	1511.250
584.963	20.787	1560.340	1510.885
585.978	20.434	1558.310	1505.663
586.992	20.649	1556.989	1506.080
588.007	20.684	1557.060	1506.267
589.021	20.246	1554.248	1499.560
590.036	19.948	1553.131	1495.716
591.051	20.224	1552.091	1496.930
592.065	20.483	1550.499	1497.459
593.080	20.699	1549.319	1498.010
594.094	20.691	1547.319	1495.833
595.109	20.379	1545.813	1491.506
596.123	20.021	1544.355	1486.833
597.138	20.575	1543.952	1491.037
598.153	20.687	1542.644	1490.565
599.167	20.616	1542.021	1489.174
600.182	20.736	1541.070	1489.106
601.196	20.793	1540.326	1488.703
602.211	20.609	1539.791	1486.424
603.226	20.785	1538.250	1486.266
604.240	21.021	1536.461	1486.388
605.255	21.076	1535.120	1485.379
606.269	20.974	1535.264	1484.470
607.284	20.884	1533.714	1482.024
608.299	21.071	1531.470	1481.277
609.313	20.801	1530.741	1478.084
610.328	20.826	1529.844	1477.253
611.342	20.864	1527.904	1475.529
612.357	21.085	1527.895	1477.226
613.372	21.111	1526.381	1475.805
614.386	20.886	1525.978	1473.327
615.401	20.920	1525.686	1473.162
616.415	21.119	1524.103	1473.141
617.430	21.019	1523.889	1471.912
618.445	21.205	1522.509	1471.977
619.459	20.950	1520.507	1467.711
620.474	20.676	1518.987	1463.749
621.488	20.454	1516.435	1459.237
622.503	19.896	1515.961	1453.898
623.518	20.435	1515.798	1458.119
624.532	20.729	1515.617	1460.251
625.547	20.954	1514.079	1460.487
626.561	21.287	1512.973	1462.047
627.576	21.252	1511.859	1460.506
628.591	20.763	1510.116	1454.536
629.605	20.367	1508.892	1449.861
630.620	20.331	1506.910	1447.479
631.634	20.235	1505.820	1445.458
632.649	20.295	1504.723	1444.735
633.663	20.541	1503.828	1445.755
634.678	20.882	1503.495	1448.110
635.693	21.177	1502.227	1449.177
636.707	21.247	1501.702	1449.084
637.722	21.474	1500.643	1449.779
638.736	21.513	1499.464	1448.795
639.751	21.424	1498.466	1446.918
640.766	21.292	1496.747	1443.990
641.780	21.326	1495.342	1442.736
642.795	21.376	1494.488	1442.155
643.809	21.452	1494.065	1442.205
644.824	21.314	1492.688	1439.566
645.839	21.264	1491.896	1438.214
646.853	21.350	1490.428	1437.334
647.868	21.255	1489.805	1435.781
648.882	21.193	1487.957	1433.316
649.897	21.306	1486.035	1432.225
650.912	21.196	1485.577	1430.702
651.926	21.253	1483.011	1428.532
652.941	20.908	1481.538	1424.105
653.955	20.630	1480.042	1420.218
654.970	20.440	1478.117	1416.640
655.985	20.351	1477.081	1414.750
656.999	20.319	1476.368	1413.633
658.014	20.645	1475.361	1415.167
659.028	20.748	1475.062	1415.552
660.043	20.874	1475.022	1416.379
661.058	21.105	1473.597	1416.723
662.072	21.101	1472.460	1415.430
663.087	21.223	1471.159	1415.004
664.101	21.177	1470.186	1413.520
665.116	21.353	1468.928	1413.571
666.131	21.449	1468.153	1413.437
667.145	21.353	1467.126	1411.501
668.160	21.390	1466.879	1411.396
669.174	21.542	1465.362	1411.000
670.189	21.578	1463.672	1409.498
671.204	21.419	1463.138	1407.528
672.218	21.355	1461.876	1405.629
673.233	21.567	1460.812	1406.144
674.247	21.656	1460.049	1405.965
675.262	21.783	1459.048	1405.855
676.276	21.756	1457.862	1404.322
677.291	21.593	1457.379	1402.378
678.306	21.407	1455.558	1398.963
679.320	21.378	1453.859	1396.930
680.335	21.695	1453.702	1399.155
681.349	21.681	1453.610	1398.788
682.364	21.588	1452.999	1397.285
683.379	21.541	1450.833	1394.662
684.393	21.467	1449.562	1392.682
685.408	21.672	1448.271	1392.910
686.422	21.580	1447.806	1391.561
687.437	21.571	1447.637	1391.157
688.452	21.778	1446.488	1391.541
689.466	21.729	1444.237	1388.819
690.481	21.468	1442.546	1384.949
691.495	21.154	1440.822	1380.633
692.510	20.650	1439.148	1374.859
693.525	20.372	1437.538	1370.953
694.539	20.728	1437.113	1373.207
695.554	21.270	1437.649	1377.853
696.568	21.742	1436.779	1380.593
697.583	21.758	1436.101	1379.902
698.598	21.704	1435.842	1379.064
699.612	21.812	1434.599	1378.554
700.627	21.922	1433.619	1378.319
701.641	21.887	1432.270	1376.577
702.656	21.859	1431.071	1375.041
703.671	22.033	1431.332	1376.498
704.685	21.994	1430.424	1375.155
705.700	21.924	1428.465	1372.557
706.714	21.699	1426.277	1368.526
707.729	21.616	1424.240	1365.755
708.744	21.477	1423.130	1363.434
709.758	21.324	1422.361	1361.337
710.773	21.144	1420.450	1357.938
711.787	20.846	1419.640	1354.674
712.802	21.024	1418.318	1354.641
713.816	21.210	1417.922	1355.552
714.831	21.488	1417.036	1356.713
715.846	21.849	1415.127	1357.533
716.860	22.004	1413.805	1357.302
717.875	21.788	1413.624	1355.292
718.889	21.754	1412.545	1353.827
719.904	21.925	1411.365	1353.859
720.919	21.862	1410.840	1352.704
721.933	21.986	1410.570	1353.243
722.948	22.036	1410.077	1352.997
723.962	22.053	1408.585	1351.540
724.977	22.112	1407.139	1350.439
725.992	22.116	1406.354	1349.557
727.006	22.183	1404.798	1348.421
728.021	22.186	1403.569	1347.103
729.035	22.009	1403.292	1345.312
730.050	22.082	1401.881	1344.362
731.065	22.079	1400.439	1342.797
732.079	22.067	1399.562	1341.698
733.094	21.946	1398.522	1339.610
734.108	21.926	1397.256	1338.086
735.123	22.019	1395.509	1336.963
736.138	22.049	1394.550	1336.118
737.152	22.103	1393.865	1335.714
738.167	22.323	1392.633	1336.054
739.181	22.404	1391.745	1335.655
740.196	22.277	1391.204	1334.013
741.211	22.215	1390.159	1332.374
742.225	22.091	1389.712	1330.844
743.240	22.152	1388.204	1329.706
744.254	22.011	1386.791	1327.124
745.269	22.089	1385.787	1326.593
746.284	22.272	1384.159	1326.261
747.298	21.766	1383.299	1321.447
748.313	21.487	1381.393	1317.362
749.327	21.099	1379.839	1312.783
750.342	20.792	1378.700	1309.221
751.356	20.482	1377.428	1305.516
752.371	20.789	1377.493	1307.744
753.386	21.529	1376.754	1312.462
754.400	21.809	1377.131	1314.774
755.415	22.143	1376.386	1316.425
756.429	22.193	1374.753	1315.082
757.444	22.184	1373.484	1313.639
758.459	22.341	1373.170	1314.365
759.473	22.452	1371.655	1313.591
760.488	22.277	1370.354	1310.876
761.502	22.408	1369.427	1310.812
762.517	22.099	1368.375	1307.339
763.532	22.073	1366.614	1305.300
764.546	21.721	1365.179	1301.146
765.561	21.358	1363.418	1296.609
766.575	20.887	1362.412	1291.984
767.590	20.981	1361.112	1291.303
768.605	21.235	1360.738	1292.681
769.619	21.602	1359.486	1294.061
770.634	21.882	1359.111	1295.628
771.648	22.190	1358.223	1296.913
772.663	22.471	1357.773	1298.409
773.678	22.264	1357.649	1296.603
774.692	22.359	1356.751	1296.295
775.707	22.350	1356.793	1296.112
776.721	22.423	1355.648	1295.403
777.736	22.413	1353.979	1293.580
778.751	22.441	1352.904	1292.602
779.765	22.417	1352.012	1291.421
780.780	22.497	1350.554	1290.462
781.794	22.365	1350.139	1288.938
782.809	22.163	1349.391	1286.588
783.824	22.049	1347.921	1284.195
784.838	21.719	1345.156	1278.979
785.853	21.044	1343.562	1272.368
786.867	21.304	1342.780	1273.380
787.882	21.540	1342.825	1275.000
788.897	21.741	1342.508	1276.017
789.911	21.910	1341.798	1276.421
790.926	22.043	1340.828	1276.323
791.940	22.197	1339.701	1276.219
792.955	22.386	1338.540	1276.337
793.969	22.294	1337.521	1274.544
794.984	22.286	1336.754	1273.600
795.999	22.389	1335.832	1273.320
797.013	22.695	1333.756	1273.411
798.028	22.475	1332.684	1270.635
799.042	22.724	1331.593	1271.247
800.057	22.503	1331.556	1269.461
801.072	22.582	1329.704	1268.111
802.086	22.584	1329.030	1267.334
803.101	22.742	1327.620	1266.977
804.115	22.619	1326.556	1264.925
805.130	22.568	1326.003	1263.877
806.145	22.439	1325.252	1262.079
807.159	22.493	1323.239	1260.402
808.174	22.366	1321.859	1258.027
809.188	22.243	1320.158	1255.375
810.203	22.104	1318.809	1252.943
811.218	21.696	1317.073	1248.222
812.232	21.493	1314.957	1244.613
813.247	21.346	1313.946	1242.463
814.261	21.622	1314.655	1244.955
815.276	22.138	1314.193	1248.054
816.291	22.368	1313.208	1248.606
817.305	22.594	1312.382	1249.287
818.320	22.673	1311.285	1248.655
819.334	22.532	1310.176	1246.444
820.349	22.520	1309.140	1245.221
821.364	22.634	1307.268	1244.106
822.378	22.723	1306.163	1243.536
823.393	22.697	1304.512	1241.625
824.407	22.663	1303.860	1240.621
825.422	22.626	1302.886	1239.282
826.437	22.673	1301.559	1238.206
827.451	22.199	1298.871	1232.158
828.466	21.733	1296.657	1226.636
829.480	21.278	1295.792	1222.472
830.495	21.494	1294.805	1222.911
831.509	21.987	1294.316	1225.760
832.524	22.441	1293.760	1228.273
833.539	22.595	1293.248	1228.722
834.553	22.739	1292.194	1228.579
835.568	22.628	1291.168	1226.682
836.582	22.534	1290.240	1224.997
837.597	22.610	1288.660	1223.875
838.612	22.757	1287.135	1223.308
839.626	22.598	1286.386	1221.343
840.641	22.286	1284.803	1217.522
841.655	21.886	1283.546	1213.405
842.670	21.671	1281.551	1209.883
843.685	21.223	1280.328	1205.473
844.699	21.692	1280.111	1208.378
845.714	22.221	1279.182	1211.020
846.728	22.364	1278.124	1210.860
847.743	22.449	1277.908	1211.099
848.758	22.502	1277.689	1211.113
849.772	22.623	1276.409	1210.594
850.787	22.574	1275.157	1208.920
851.801	22.556	1273.996	1207.551
852.816	22.561	1272.086	1205.631
853.831	22.494	1270.562	1203.583
854.845	22.563	1268.425	1201.889
855.860	22.334	1267.207	1199.021
856.874	22.087	1266.178	1196.215
857.889	21.846	1264.598	1192.932
858.904	21.475	1262.755	1188.513
859.918	21.221	1259.659	1183.730
860.933	21.083	1258.756	1181.797
861.947	21.547	1258.967	1185.015
862.962	21.836	1258.151	1186.067
863.977	21.912	1257.794	1186.110
864.991	22.094	1257.186	1186.626
866.006	22.371	1256.861	1188.058
867.020	22.537	1255.552	1187.806
868.035	22.681	1254.256	1187.409
869.049	22.535	1254.132	1186.166
870.064	22.645	1253.572	1186.236
871.079	22.571	1252.784	1184.851
872.093	22.465	1252.733	1183.943
873.108	22.533	1250.765	1182.397
874.122	22.379	1248.463	1179.044
875.137	21.911	1247.540	1174.884
876.152	21.825	1246.782	1173.451
877.166	21.976	1245.474	1173.093
878.181	22.323	1244.563	1174.425
879.195	22.494	1243.984	1174.880
880.210	22.649	1243.264	1175.098
881.225	22.700	1242.822	1174.886
882.239	22.702	1241.830	1173.816
883.254	22.862	1240.538	1173.527
884.268	22.842	1239.166	1171.954
885.283	22.852	1237.888	1170.669
886.298	22.630	1237.030	1168.240
887.312	22.672	1236.048	1167.452
888.327	22.646	1235.277	1166.412
889.341	22.560	1233.946	1164.442
890.356	22.566	1233.366	1163.795
891.371	22.622	1232.328	1163.050
892.385	22.645	1231.148	1161.948
893.400	22.333	1230.520	1159.155
894.414	22.273	1228.781	1156.977
895.429	21.967	1226.560	1152.727
896.444	21.240	1224.483	1145.851
897.458	21.024	1222.843	1142.756
898.473	21.377	1223.006	1145.090
899.487	21.756	1223.111	1147.551
900.502	22.320	1222.663	1150.698
901.517	22.359	1221.933	1150.130
902.531	22.519	1221.058	1150.222
903.546	22.622	1220.733	1150.452
904.560	22.658	1219.478	1149.367
905.575	22.754	1218.517	1148.953
906.589	22.726	1217.515	1147.685
907.604	22.593	1217.088	1146.276
