DTS Sentinel unit serial number:	SN409020Multiplexer serial number:	ORYXHardware model number:	OX4-SRSoftware version number:	ORYX F/W v3.00 Oryx Data Collector v3.7.2.0data status	okinstallation	HaddamTimeLapsedifferential loss correction	single-endedforward channel	channel 3reverse channel	N/Adate	2011/06/22time	03:06:16forward acquisition time	30.00reverse acquisition time	0.00gamma	498.7831k internal	0.1750k external	0.1750temperature offset calibration	1.0074default loss term (dB/km)	0.3790temperature slope calibration	1.3530multiplexer offset coefficient	1.0000multiplexer slope coefficient	1.0000fibre end	0.00T internal ref (°C)	22.25T ext. ref 1 (°C)	17.50T ext. ref 2 (°C)	0.05length (m)	temperature (°C)	Stokes	anti-Stokes-747.200	800.000	0.020	-0.081
-746.185	-98.561	-0.132	-0.044
-745.171	-138.270	-0.394	0.057
-744.156	800.000	0.128	0.537
-743.142	-65.082	0.231	-0.124
-742.127	-200.000	0.027	0.254
-741.112	10.254	-0.311	-0.314
-740.098	-58.782	-0.210	0.120
-739.083	251.204	0.113	0.257
-738.069	-30.535	-0.251	0.188
-737.054	-200.000	-0.001	-0.155
-736.039	-14.476	-0.264	0.225
-735.025	-50.419	-0.411	0.257
-734.010	-83.147	0.480	-0.204
-732.996	-118.958	0.487	0.113
-731.981	-185.895	0.456	-0.009
-730.966	800.000	-0.121	-0.512
-729.952	-125.304	0.099	-0.020
-728.937	20.692	-0.246	0.265
-727.923	800.000	0.048	0.217
-726.908	256.638	-0.038	0.088
-725.894	716.267	0.073	0.258
-724.879	-15.599	-0.217	0.184
-723.864	-22.794	-0.385	0.308
-722.850	-117.757	-0.126	0.030
-721.835	-118.578	-0.172	0.040
-720.821	-92.248	-0.537	-0.200
-719.806	-98.436	-0.421	0.142
-718.791	-102.498	0.348	-0.110
-717.777	-5.690	-0.181	-0.165
-716.762	-200.000	0.016	0.175
-715.748	-103.523	-0.113	-0.035
-714.733	800.000	0.112	-0.470
-713.718	413.896	0.160	-0.454
-712.704	800.000	0.008	-0.044
-711.689	13.162	0.147	-0.151
-710.675	-47.780	0.310	-0.199
-709.660	800.000	0.090	0.365
-708.645	-38.437	0.367	0.257
-707.631	-200.000	-0.011	0.068
-706.616	19.094	-0.147	0.156
-705.602	-4.678	-0.254	0.232
-704.587	105.606	0.039	-0.061
-703.572	-7.222	-0.447	-0.402
-702.558	-74.333	-0.325	-0.155
-701.543	-34.540	0.139	-0.101
-700.529	26.017	-0.314	-0.348
-699.514	-200.000	0.002	-0.071
-698.499	800.000	-0.083	0.482
-697.485	-61.511	-0.099	0.055
-696.470	-200.000	-0.031	-0.232
-695.456	-200.000	-0.086	-0.000
-694.441	167.871	-0.148	-0.280
-693.426	-132.909	-0.247	0.041
-692.412	-145.408	0.691	-0.082
-691.397	-92.599	0.240	0.089
-690.383	33.187	0.188	0.216
-689.368	-200.000	0.006	-0.156
-688.354	800.000	-0.100	-0.422
-687.339	-50.617	0.129	-0.080
-686.324	-49.161	-0.233	0.147
-685.310	-152.498	0.389	-0.036
-684.295	6.694	0.047	-0.046
-683.281	-200.000	0.008	-0.092
-682.266	-200.000	-0.010	0.303
-681.251	84.744	0.153	-0.222
-680.237	258.051	0.089	-0.203
-679.222	50.517	0.211	0.265
-678.208	800.000	0.083	0.362
-677.193	110.468	0.188	0.301
-676.178	-200.000	-0.047	0.299
-675.164	-200.000	0.010	0.279
-674.149	60.562	-0.114	0.150
-673.135	38.931	0.370	0.438
-672.120	-173.832	0.419	-0.016
-671.105	503.896	-0.119	0.366
-670.091	-69.913	-0.411	0.207
-669.076	-42.457	0.352	0.237
-668.062	8.768	-0.337	0.336
-667.047	-152.550	0.555	0.052
-666.032	124.524	0.051	-0.085
-665.018	-82.532	-0.328	0.140
-664.003	-65.641	-0.505	-0.267
-662.989	-20.543	-0.100	-0.081
-661.974	-65.072	0.314	-0.167
-660.959	499.521	0.180	-0.552
-659.945	-10.993	-0.364	-0.318
-658.930	514.533	0.090	-0.281
-657.916	-200.000	-0.008	-0.099
-656.901	29.482	-0.151	-0.170
-655.886	155.953	-0.192	0.351
-654.872	-25.725	0.287	0.223
-653.857	-104.973	-0.237	-0.071
-652.843	53.658	-0.314	0.400
-651.828	225.604	0.209	0.450
-650.814	-200.000	0.011	0.199
-649.799	125.834	0.281	-0.472
-648.784	-38.779	0.384	-0.268
-647.770	4.123	0.328	0.317
-646.755	-130.059	-0.417	-0.075
-645.741	-80.259	0.212	0.093
-644.726	-18.603	-0.157	0.129
-643.711	494.461	0.074	-0.226
-642.697	102.771	-0.155	0.240
-641.682	-87.503	0.113	-0.045
-640.668	-200.000	-0.006	-0.666
-639.653	-13.016	-0.244	0.210
-638.638	-150.847	0.473	-0.047
-637.624	36.201	-0.593	-0.691
-636.609	63.641	-0.107	-0.142
-635.595	-132.759	0.156	-0.026
-634.580	-124.999	0.175	-0.035
-633.565	-145.639	-0.304	-0.036
-632.551	-71.437	-0.325	0.161
-631.536	-137.572	-0.564	-0.083
-630.522	-109.409	0.275	-0.077
-629.507	110.930	0.091	0.146
-628.492	-125.514	-0.723	-0.144
-627.478	62.546	-0.099	-0.131
-626.463	800.000	0.049	0.255
-625.449	800.000	0.035	-0.191
-624.434	-200.000	-0.025	-0.504
-623.419	64.931	0.074	-0.099
-622.405	-81.428	-0.170	0.074
-621.390	6.716	-0.128	0.126
-620.376	-55.504	0.434	0.257
-619.361	180.720	0.055	0.107
-618.346	76.795	0.073	0.102
-617.332	-174.235	-0.197	-0.007
-616.317	-51.249	0.454	-0.280
-615.303	313.816	-0.105	-0.263
-614.288	303.019	-0.127	0.312
-613.273	-200.000	-0.466	0.001
-612.259	800.000	0.027	0.152
-611.244	91.518	-0.163	-0.242
-610.230	-23.610	-0.451	0.357
-609.215	305.656	-0.220	0.542
-608.201	-59.257	-0.314	0.178
-607.186	513.495	-0.105	-0.326
-606.171	378.893	-0.125	-0.340
-605.157	69.806	0.062	0.084
-604.142	113.592	0.229	-0.368
-603.128	23.631	0.303	0.330
-602.113	307.359	0.055	-0.137
-601.098	615.438	0.159	-0.531
-600.084	-42.264	-0.116	-0.078
-599.069	-200.000	-0.029	0.190
-598.055	96.845	-0.270	-0.410
-597.040	142.486	0.254	0.447
-596.025	-15.232	-0.291	-0.246
-595.011	-7.689	-0.293	-0.262
-593.996	-187.496	0.300	-0.005
-592.982	-12.924	0.347	-0.298
-591.967	-200.000	-0.027	-0.237
-590.952	678.928	-0.113	0.389
-589.938	-5.104	0.420	0.381
-588.923	-177.116	-0.497	0.016
-587.909	142.266	0.131	-0.230
-586.894	36.165	0.051	0.059
-585.879	-114.833	0.267	0.067
-584.865	-127.476	0.422	0.080
-583.850	781.811	0.110	-0.399
-582.836	343.474	0.081	0.211
-581.821	-28.532	0.192	0.146
-580.806	780.963	0.170	0.619
-579.792	409.568	0.089	0.249
-578.777	216.615	-0.097	0.205
-577.763	-11.670	0.237	0.205
-576.748	-81.774	-0.148	-0.064
-575.733	-2.628	-0.422	-0.390
-574.719	-62.715	0.160	-0.087
-573.704	-33.277	-0.417	-0.304
-572.690	-14.124	-0.117	-0.100
-571.675	-200.000	-0.049	0.402
-570.661	-145.142	0.289	0.034
-569.646	123.657	0.186	0.309
-568.631	-22.104	-0.147	0.118
-567.617	-159.009	-0.280	-0.021
-566.602	94.698	-0.180	0.271
-565.588	-200.000	0.015	0.151
-564.573	-200.000	-0.089	0.671
-563.558	-24.476	-0.379	0.297
-562.544	66.640	0.155	0.208
-561.529	-200.000	-0.016	0.112
-560.515	-49.030	0.156	-0.098
-559.500	-200.000	-0.027	-0.512
-558.485	-75.177	0.397	-0.186
-557.471	54.495	-0.181	0.230
-556.456	-79.981	-0.430	0.190
-555.442	-113.565	-0.159	0.041
-554.427	37.328	0.143	0.167
-553.412	-17.661	-0.098	0.081
-552.398	-89.315	-0.310	0.120
-551.383	-127.656	-0.101	-0.019
-550.369	-83.004	-0.207	-0.087
-549.354	-200.000	0.065	-0.574
-548.339	281.340	-0.030	-0.070
-547.325	263.512	-0.205	0.471
-546.310	-10.914	-0.092	-0.080
-545.296	800.000	-0.041	-0.240
-544.281	-200.000	-0.025	0.156
-543.266	-200.000	0.054	0.615
-542.252	-37.509	-0.060	0.042
-541.237	52.377	-0.348	0.438
-540.223	800.000	-0.143	0.551
-539.208	17.254	0.296	-0.310
-538.193	-110.319	-0.379	-0.103
-537.179	-43.927	0.049	0.032
-536.164	-200.000	0.062	-0.582
-535.150	204.378	-0.116	0.238
-534.135	-8.177	-0.389	-0.345
-533.121	-132.087	-0.184	0.031
-532.106	60.433	-0.222	0.290
-531.091	-106.838	-0.041	0.012
-530.077	-95.196	-0.205	0.072
-529.062	-200.000	0.023	-0.343
-528.048	27.984	-0.086	-0.096
-527.033	-129.849	-0.336	0.060
-526.018	-200.000	0.069	0.458
-525.004	18.370	0.219	0.231
-523.989	0.979	-0.233	-0.220
-522.975	-200.000	-0.047	-0.524
-521.960	-134.928	0.470	0.074
-520.945	108.046	-0.104	0.164
-519.931	-6.696	0.252	-0.226
-518.916	3.845	-0.138	-0.133
-517.902	-90.658	-0.123	0.046
-516.887	800.000	0.053	-0.255
-515.872	-112.382	0.232	0.061
-514.858	800.000	-0.054	-0.217
-513.843	699.149	-0.022	-0.076
-512.829	-155.176	0.572	-0.049
-511.814	-67.687	-0.720	-0.370
-510.799	-27.600	0.218	-0.167
-509.785	-27.292	-0.420	0.321
-508.770	174.451	-0.124	0.236
-507.756	-99.461	-0.168	0.055
-506.741	362.617	0.053	-0.140
-505.726	-200.000	-0.036	0.529
-504.712	-142.190	0.147	-0.019
-503.697	-104.604	-0.110	0.033
-502.683	775.877	0.080	-0.289
-501.668	800.000	0.082	-0.394
-500.653	377.188	-0.226	-0.609
-499.639	156.331	0.201	-0.366
-498.624	149.159	0.034	0.062
-497.610	-6.292	0.182	0.163
-496.595	-30.851	0.154	-0.114
-495.581	800.000	-0.017	-0.065
-494.566	-200.000	-0.033	0.410
-493.551	79.894	0.289	0.410
-492.537	-200.000	0.039	-0.265
-491.522	800.000	0.010	-0.056
-490.508	30.855	0.215	0.243
-489.493	-42.019	0.370	0.248
-488.478	-73.115	-0.331	0.159
-487.464	-200.000	-0.045	-0.508
-486.449	-139.427	0.159	0.022
-485.435	-200.000	0.017	0.278
-484.420	516.001	0.119	0.368
-483.405	-157.200	0.263	0.021
-482.391	-120.088	-0.347	-0.077
-481.376	-80.381	0.453	-0.198
-480.362	-144.674	-0.211	0.025
-479.347	215.553	-0.113	-0.236
-478.332	-96.286	0.452	0.157
-477.318	-48.464	-0.034	-0.022
-476.303	-200.000	-0.000	0.077
-475.289	-3.705	0.253	-0.231
-474.274	-25.719	-0.295	0.229
-473.259	-191.248	0.273	0.004
-472.245	645.197	0.166	0.561
-471.230	-10.548	-0.518	-0.451
-470.216	-35.016	-0.495	0.354
-469.201	-141.208	0.477	-0.063
-468.186	-134.450	0.196	-0.031
-467.172	105.094	-0.292	0.454
-466.157	800.000	0.139	-0.578
-465.143	-136.659	0.293	-0.044
-464.128	-125.570	0.131	-0.026
-463.113	182.572	0.166	-0.323
-462.099	-75.981	-0.400	0.185
-461.084	-104.913	0.316	-0.095
-460.070	-173.007	0.237	0.009
-459.055	67.753	-0.263	-0.353
-458.040	117.232	-0.054	0.087
-457.026	-84.690	0.250	-0.103
-456.011	31.870	-0.167	-0.189
-454.997	8.632	0.090	-0.089
-453.982	-29.769	-0.365	-0.273
-452.968	-23.062	-0.426	-0.337
-451.953	-121.602	-0.106	-0.023
-450.938	-92.006	0.420	-0.155
-449.924	-94.315	0.201	0.072
-448.909	-57.374	0.304	-0.175
-447.895	207.298	0.238	-0.488
-446.880	-152.727	0.201	0.019
-445.865	800.000	0.105	0.393
-444.851	421.962	-0.071	0.201
-443.836	779.522	-0.080	0.289
-442.822	-75.166	0.633	0.296
-441.807	18.918	0.257	0.271
-440.792	-82.288	-0.393	-0.167
-439.778	-84.136	-0.415	0.172
-438.763	800.000	-0.068	-0.252
-437.749	-183.134	-0.459	0.010
-436.734	-39.876	-0.500	0.342
-435.719	-28.263	-0.052	-0.039
-434.705	800.000	0.027	0.125
-433.690	-15.443	0.309	-0.259
-432.676	282.653	0.089	-0.210
-431.661	37.761	-0.373	-0.435
-430.646	-200.000	0.009	0.271
-429.632	-200.000	-0.008	-0.309
-428.617	58.727	0.152	0.196
-427.603	-200.000	0.095	0.603
-426.588	-114.753	-0.281	-0.070
-425.573	-34.277	0.276	0.199
-424.559	-200.000	-0.002	0.025
-423.544	-200.000	-0.026	-0.153
-422.530	420.845	0.070	0.198
-421.515	12.950	-0.237	0.240
-420.500	-64.377	0.094	0.050
-419.486	-136.607	-0.263	0.039
-418.471	-40.214	-0.266	-0.181
-417.457	-98.617	-0.124	-0.041
-416.442	-127.795	0.159	-0.030
-415.428	156.044	0.303	-0.549
-414.413	-61.227	0.579	-0.319
-413.398	-30.900	-0.129	0.095
-412.384	299.138	0.149	0.362
-411.369	-137.627	-0.112	0.016
-410.355	-43.877	0.245	0.162
-409.340	14.831	-0.211	0.217
-408.325	-200.000	0.024	0.251
-407.311	-52.789	-0.284	-0.171
-406.296	-116.458	0.075	0.018
-405.282	205.246	0.104	-0.212
-404.267	550.291	-0.005	-0.016
-403.252	-200.000	0.031	0.321
-402.238	-200.000	-0.039	0.254
-401.223	-113.892	0.259	0.065
-400.209	-111.490	-0.265	0.070
-399.194	-26.225	0.395	0.303
-398.179	471.132	0.122	-0.361
-397.165	21.029	-0.075	-0.080
-396.150	-77.945	0.226	-0.101
-395.136	-82.767	-0.107	0.045
-394.121	-109.181	0.284	0.079
-393.106	-87.318	0.243	-0.096
-392.092	395.451	-0.067	-0.184
-391.077	-90.726	0.361	-0.136
-390.063	275.746	0.267	0.623
-389.048	-139.526	-0.524	-0.073
-388.033	-63.855	0.510	0.273
-387.019	302.300	0.095	0.231
-386.004	-6.855	-0.207	-0.184
-384.990	-156.553	-0.333	0.027
-383.975	73.265	0.155	0.213
-382.960	-200.000	0.034	0.317
-381.946	1.950	0.230	0.217
-380.931	51.692	-0.039	0.049
-379.917	-57.245	0.301	0.173
-378.902	39.995	0.191	0.225
-377.888	-200.000	-0.015	0.228
-376.873	-29.753	0.269	-0.200
-375.858	-153.430	-0.266	-0.024
-374.844	-200.000	-0.021	0.172
-373.829	800.000	-0.066	0.278
-372.815	15.338	0.093	-0.095
-371.800	-88.983	-0.103	-0.040
-370.785	95.897	-0.099	-0.148
-369.771	-174.655	-0.238	0.009
-368.756	154.680	0.053	-0.095
-367.742	-115.886	-0.124	-0.030
-366.727	96.710	-0.097	-0.145
-365.712	800.000	0.015	-0.087
-364.698	224.401	0.126	-0.267
-363.683	-8.002	-0.082	0.072
-362.669	-177.849	-0.248	0.008
-361.654	5.243	-0.372	-0.359
-360.639	71.922	-0.083	-0.114
-359.625	-2.841	0.420	0.384
-358.610	-119.766	0.388	-0.087
-357.596	-200.000	0.113	-0.735
-356.581	-128.975	0.290	0.053
-355.566	-127.917	-0.393	-0.073
-354.552	-200.000	-0.016	0.136
-353.537	2.807	0.216	-0.205
-352.523	-105.514	0.318	0.094
-351.508	193.543	-0.151	0.299
-350.493	-106.262	-0.482	0.140
-349.479	666.691	0.117	0.400
-348.464	135.957	0.121	-0.207
-347.450	-109.861	0.092	-0.025
-346.435	427.817	0.076	0.217
-345.420	-200.000	-0.019	0.197
-344.406	43.098	-0.024	0.029
-343.391	-200.000	-0.034	-0.366
-342.377	356.977	-0.086	-0.226
-341.362	-165.492	-0.387	-0.022
-340.348	-6.355	0.360	-0.321
-339.333	-25.649	0.341	-0.263
-338.318	742.111	0.164	0.580
-337.304	-141.593	0.430	-0.056
-336.289	-110.349	-0.446	0.120
-335.275	363.323	0.029	-0.077
-334.260	-86.508	0.172	-0.069
-333.245	-31.733	0.248	-0.182
-332.231	-151.442	0.147	-0.014
-331.216	-89.373	-0.417	0.160
-330.202	479.902	-0.055	0.165
-329.187	-44.785	0.189	-0.123
-328.172	-180.393	0.275	-0.007
-327.158	282.845	-0.203	-0.478
-326.143	367.117	0.091	-0.242
-325.129	-66.100	0.312	0.162
-324.114	73.861	0.101	0.139
-323.099	800.000	-0.042	0.183
-322.085	-110.137	-0.377	0.102
-321.070	-143.013	-0.194	-0.024
-320.056	-134.295	-0.133	0.021
-319.041	-200.000	-0.002	-0.015
-318.026	-59.226	0.209	-0.117
-317.012	6.853	0.199	-0.193
-315.997	100.169	-0.048	0.073
-314.983	-166.411	0.181	-0.010
-313.968	-120.081	-0.085	-0.019
-312.953	800.000	-0.135	0.495
-311.939	303.102	-0.208	-0.505
-310.924	14.885	-0.402	-0.410
-309.910	33.094	-0.051	-0.057
-308.895	36.125	-0.147	-0.169
-307.880	800.000	-0.157	0.757
-306.866	-200.000	0.034	0.460
-305.851	-200.000	-0.001	0.020
-304.837	-200.000	0.032	0.449
-303.822	-186.586	0.250	-0.005
-302.807	-110.604	0.360	-0.097
-301.793	80.907	0.115	0.162
-300.778	26.328	-0.210	-0.229
-299.764	-200.000	-0.003	0.193
-298.749	339.526	0.139	0.354
-297.735	-113.925	0.371	-0.093
-296.720	80.648	-0.309	0.435
-295.705	291.813	0.177	-0.423
-294.691	334.371	-0.125	0.317
-293.676	-102.084	-0.402	-0.126
-292.662	-151.238	-0.563	0.054
-291.647	-133.959	-0.321	-0.051
-290.632	-200.000	0.048	0.504
-289.618	766.177	0.135	-0.481
-288.603	322.834	-0.054	0.135
-287.589	-43.775	-0.485	0.318
-286.574	-200.000	-0.068	0.441
-285.559	-37.404	-0.107	0.075
-284.545	-200.000	-0.055	0.397
-283.530	-100.723	-0.242	0.077
-282.516	349.319	0.011	-0.030
-281.501	800.000	0.035	-0.190
-280.486	358.490	0.024	0.063
-279.472	-122.496	0.248	-0.052
-278.457	-47.219	0.151	0.096
-277.443	79.797	0.100	0.141
-276.428	-2.073	0.426	-0.390
-275.413	-66.717	0.465	-0.239
-274.399	125.308	0.166	0.274
-273.384	-65.706	0.524	0.273
-272.370	-78.999	-0.307	-0.136
-271.355	-32.827	0.103	0.075
-270.340	-200.000	0.023	-0.194
-269.326	-149.030	0.330	-0.034
-268.311	-101.605	-0.430	0.135
-267.297	-88.697	0.451	0.174
-266.282	-15.760	0.319	0.265
-265.267	273.414	-0.114	0.263
-264.253	173.292	-0.258	-0.487
-263.238	-113.677	-0.052	0.013
-262.224	413.733	-0.136	-0.379
-261.209	800.000	-0.019	0.103
-260.195	-33.195	-0.265	-0.191
-259.180	248.573	0.116	-0.258
-258.165	340.785	0.104	-0.267
-257.151	-26.162	0.300	-0.230
-256.136	800.000	-0.037	0.135
-255.122	-95.926	0.413	0.143
-254.107	800.000	-0.065	-0.290
-253.092	246.676	0.194	-0.429
-252.078	21.961	0.065	-0.070
-251.063	-127.201	-0.093	-0.018
-250.049	250.216	-0.113	0.250
-249.034	-58.147	-0.105	0.059
-248.019	-200.000	-0.057	0.565
-247.005	-200.000	0.010	0.545
-245.990	-41.959	-0.213	-0.142
-244.976	-200.000	0.037	0.479
-243.961	-200.000	0.037	0.356
-242.946	-57.909	-0.503	-0.286
-241.932	-138.787	0.163	0.023
-240.917	-200.000	-0.067	-0.543
-239.903	57.029	-0.157	0.199
-238.888	79.290	-0.141	0.198
-237.873	-200.000	-0.017	-0.244
-236.859	157.329	-0.291	-0.525
-235.844	-45.580	0.334	-0.215
-234.830	-200.000	-0.011	0.160
-233.815	-52.602	0.245	-0.147
-232.800	83.135	-0.251	0.357
-231.786	-112.513	-0.370	-0.095
-230.771	-28.306	0.404	-0.303
-229.757	-105.694	0.273	-0.080
-228.742	-45.736	-0.196	0.126
-227.727	-70.443	-0.540	-0.265
-226.713	-49.736	0.747	-0.461
-225.698	-125.902	-0.278	0.054
-224.684	16.621	-0.219	0.226
-223.669	-81.484	-0.045	-0.019
-222.655	612.797	0.131	-0.429
-221.640	-44.464	-0.259	0.168
-220.625	47.198	-0.283	0.343
-219.611	800.000	-0.025	-0.128
-218.596	-166.286	-0.175	-0.009
-217.582	-200.000	0.001	0.261
-216.567	-89.590	0.568	0.216
-215.552	73.252	-0.282	0.384
-214.538	-115.445	-0.371	0.090
-213.523	-185.530	-0.290	-0.006
-212.509	239.201	-0.044	0.095
-211.494	-167.175	-0.193	0.010
-210.479	-200.000	0.033	0.379
-209.465	-172.267	-0.184	0.008
-208.450	-41.899	0.193	0.129
-207.436	325.316	0.108	0.269
-206.421	-57.624	0.217	-0.123
-205.406	21.000	0.347	-0.366
-204.392	-48.013	0.452	0.284
-203.377	-92.759	0.088	-0.032
-202.363	-200.000	-0.059	0.366
-201.348	27.096	0.262	-0.286
-200.333	-109.465	0.404	-0.110
-199.319	91.146	0.186	0.272
-198.304	800.000	0.094	0.391
-197.290	154.739	-0.111	0.199
-196.275	591.001	0.077	-0.250
-195.260	34.043	0.127	-0.144
-194.246	800.000	-0.042	-0.235
-193.231	-200.000	0.027	-0.364
-192.217	157.301	0.048	0.086
-191.202	-87.368	-0.507	-0.199
-190.187	60.499	0.114	-0.147
-189.173	-75.121	-0.129	0.060
-188.158	153.101	-0.054	-0.096
-187.144	634.242	0.117	-0.390
-186.129	260.139	0.108	0.243
-185.114	800.000	0.036	-0.170
-184.100	-108.384	-0.301	-0.084
-183.085	-200.000	0.005	-0.325
-182.071	7.850	-0.233	-0.227
-181.056	-200.000	-0.061	0.377
-180.042	-17.922	0.035	-0.029
-179.027	-200.000	0.477	-0.001
-178.012	-47.734	0.128	-0.080
-176.998	-162.769	0.363	-0.023
-175.983	52.991	-0.156	-0.194
-174.969	-200.000	0.009	-0.342
-173.954	63.931	-0.164	-0.215
-172.939	-48.046	0.492	-0.308
-171.925	249.406	0.122	-0.270
-170.910	800.000	0.055	-0.228
-169.896	6.491	0.087	-0.084
-168.881	3.759	0.200	0.190
-167.866	-69.951	-0.479	0.236
-166.852	-82.222	-0.354	-0.149
-165.837	-114.198	-0.238	-0.059
-164.823	71.558	-0.137	-0.185
-163.808	-45.934	-0.150	0.096
-162.793	53.153	0.374	-0.466
-161.779	33.251	0.398	0.449
-160.764	-60.128	0.381	-0.210
-159.750	-200.000	0.134	0.001
-158.735	-42.562	-0.065	0.043
-157.720	800.000	-0.067	-0.363
-156.706	-128.586	0.471	-0.086
-155.691	-152.307	0.058	0.005
-154.677	21.236	-0.486	-0.513
-153.662	3.651	-0.038	0.036
-152.647	-2.223	-0.224	0.204
-151.633	-104.653	-0.372	0.111
-150.618	23.343	0.208	0.222
-149.604	-200.000	-0.007	-0.845
-148.589	136.742	0.084	0.142
-147.574	-20.121	0.437	-0.349
-146.560	21.633	0.343	0.363
-145.545	330.769	0.106	-0.265
-144.531	-122.045	-0.140	0.030
-143.516	800.000	0.159	-0.666
-142.502	-198.819	0.357	-0.002
-141.487	-74.233	0.401	0.187
-140.472	12.563	0.110	0.110
-139.458	4.661	0.207	0.197
-138.443	800.000	-0.161	0.630
-137.429	-100.851	-0.269	-0.085
-136.414	-200.000	0.002	-0.077
-135.399	-200.000	-0.012	0.435
-134.385	-200.000	0.024	0.398
-133.370	24.624	0.116	-0.125
-132.356	-61.175	0.457	0.249
-131.341	800.000	0.093	0.426
-130.326	800.000	-0.034	0.129
-129.312	29.099	0.148	0.162
-128.297	-200.000	0.073	0.457
-127.283	29.066	0.204	0.224
-126.268	-200.000	-0.018	0.499
-125.253	-9.266	0.142	-0.123
-124.239	-183.907	0.716	-0.015
-123.224	-119.552	0.452	0.101
-122.210	168.810	-0.191	-0.354
-121.195	-200.000	-0.071	0.624
-120.180	-44.646	-0.229	-0.148
-119.166	-128.841	0.385	-0.070
-118.151	-39.479	-0.264	0.179
-117.137	73.209	0.090	0.122
-116.122	-135.644	-0.628	0.096
-115.107	-75.190	0.463	0.214
-114.093	800.000	-0.109	-0.547
-113.078	-42.032	-0.281	-0.186
-112.064	359.927	-0.179	-0.466
-111.049	-128.390	0.302	-0.055
-110.034	-200.000	-0.020	-0.186
-109.020	-107.034	0.409	-0.116
-108.005	-93.067	0.477	0.171
-106.991	-99.965	0.645	0.207
-105.976	-94.178	-0.238	0.084
-104.962	-77.234	-0.089	0.040
-103.947	-145.389	-0.277	0.032
-102.932	687.474	-0.132	-0.451
-101.918	-56.873	0.199	0.113
-100.903	-44.425	-0.289	0.187
-99.889	-90.207	-0.006	-0.002
-98.874	-89.650	0.493	-0.186
-97.859	-38.113	-0.275	0.189
-96.845	-76.961	-0.475	0.214
-95.830	259.262	-0.133	0.298
-94.816	220.638	0.049	0.101
-93.801	-67.670	-0.457	-0.231
-92.786	-200.000	-0.001	-0.118
-91.772	-26.102	-0.239	0.182
-90.757	129.137	-0.030	-0.050
-89.743	384.423	0.064	-0.172
-88.728	-116.477	-0.491	-0.116
-87.713	311.000	0.096	0.234
-86.699	-86.081	0.377	0.150
-85.684	95.977	0.310	-0.459
-84.670	547.511	0.102	0.317
-83.655	-5.836	-0.233	0.207
-82.640	800.000	-0.127	0.492
-81.626	139.732	0.034	-0.058
-80.611	-200.000	0.011	-0.380
-79.597	-41.915	-0.182	0.120
-78.582	41.689	0.247	0.290
-77.567	565.486	-0.112	0.354
-76.553	-128.820	0.249	-0.045
-75.538	-182.530	-0.418	-0.010
-74.524	-200.000	0.012	-0.200
-73.509	83.649	-0.076	-0.108
-72.494	321.469	0.146	0.361
-71.480	-200.000	-0.033	0.229
-70.465	-200.000	0.006	0.131
-69.451	76.754	-0.228	0.313
-68.436	-200.000	-0.010	0.072
-67.422	45.804	-0.212	-0.253
-66.407	-200.000	-0.016	-0.191
-65.392	-87.020	-0.191	0.075
-64.378	-139.779	0.204	0.028
-63.363	-110.020	0.385	-0.103
-62.349	-72.646	-0.175	-0.083
-61.334	62.639	-2.019	-2.614
-60.319	194.784	0.859	1.692
-59.305	293.905	-3.277	-7.775
-58.290	75.887	3.910	5.355
-57.276	388.022	3.958	10.641
-56.261	-200.000	25.040	321.306
-55.246	351.620	1308.137	3365.540
-54.232	52.490	2850.418	3522.100
-53.217	51.097	2660.471	3265.691
-52.203	31.147	2391.432	2653.739
-51.188	27.316	2057.526	2235.907
-50.173	24.164	1943.698	2075.273
-49.159	23.028	1932.759	2050.285
-48.144	22.591	1927.764	2039.819
-47.130	22.571	1924.988	2036.572
-46.115	22.599	1922.987	2034.689
-45.100	22.508	1921.854	2032.358
-44.086	22.484	1920.244	2030.298
-43.071	22.450	1918.845	2028.340
-42.057	22.383	1917.345	2025.906
-41.042	22.537	1915.615	2025.776
-40.027	22.431	1914.599	2023.397
-39.013	22.466	1912.905	2021.929
-37.998	22.479	1911.650	2020.676
-36.984	22.433	1910.748	2019.112
-35.969	22.546	1909.273	2018.770
-34.954	22.447	1908.258	2016.476
-33.940	22.408	1906.596	2014.192
-32.925	22.367	1904.887	2011.840
-31.911	22.454	1903.600	2011.396
-30.896	22.414	1902.106	2009.283
-29.881	22.287	1901.505	2007.104
-28.867	22.317	1900.204	2005.998
-27.852	22.251	1898.171	2003.015
-26.838	22.155	1898.222	2001.893
-25.823	22.152	1896.871	2000.349
-24.809	22.265	1894.993	1999.585
-23.794	22.157	1894.827	1998.094
-22.779	22.315	1891.512	1996.320
-21.765	22.194	1891.263	1994.597
-20.750	22.204	1889.626	1992.908
-19.736	22.146	1889.099	1991.613
-18.721	22.233	1887.963	1991.332
-17.706	22.194	1886.194	1988.943
-16.692	22.187	1884.880	1987.400
-15.677	22.127	1884.749	1986.500
-14.663	22.149	1883.199	1985.033
-13.648	22.211	1880.540	1982.861
-12.633	22.197	1880.409	1982.476
-11.619	22.202	1879.237	1981.227
-10.604	22.148	1877.333	1978.525
-9.590	22.129	1877.174	1978.068
-8.575	22.045	1876.028	1975.824
-7.560	22.039	1874.582	1974.159
-6.546	22.176	1872.788	1973.736
-5.531	22.224	1871.690	1973.041
-4.517	22.281	1869.755	1971.569
-3.502	22.198	1869.618	1970.416
-2.487	22.194	1867.930	1968.512
-1.473	22.256	1864.938	1965.979
-0.458	21.999	1847.203	1944.338
0.556	18.640	1993.674	2046.054
1.571	17.285	2196.138	2235.669
2.586	17.870	2236.833	2284.698
3.600	17.961	2238.972	2287.833
4.615	17.924	2238.809	2286.884
5.629	17.940	2236.507	2284.479
6.644	17.970	2233.764	2281.814
7.659	18.089	2230.947	2280.248
8.673	17.926	2229.912	2276.734
9.688	17.737	2238.918	2283.118
10.702	16.854	2319.648	2352.833
11.717	15.329	2383.109	2395.048
12.731	7.119	2364.035	2258.268
13.746	0.856	2348.127	2153.399
14.761	0.182	2344.761	2140.420
15.775	0.140	2341.977	2137.026
16.790	-0.011	2341.209	2133.913
17.804	-0.018	2340.188	2132.634
18.819	0.051	2339.332	2132.582
19.834	-0.084	2337.014	2128.297
20.848	-0.006	2336.189	2128.399
21.863	0.011	2333.619	2126.042
22.877	0.030	2331.862	2124.447
23.892	-0.009	2329.863	2121.831
24.907	-0.032	2327.554	2119.145
25.921	0.040	2325.454	2117.992
26.936	0.039	2322.910	2115.413
27.950	-0.006	2319.858	2111.748
28.965	-0.007	2319.042	2110.740
29.980	-0.014	2318.196	2109.619
30.994	0.063	2314.836	2107.394
32.009	3.858	2325.922	2170.850
33.023	12.794	2353.673	2323.619
34.038	16.768	2359.275	2385.236
35.053	16.901	2357.612	2385.141
36.067	16.949	2354.308	2382.191
37.082	16.858	2352.962	2379.259
38.096	17.051	2350.471	2379.182
39.111	17.117	2348.144	2377.473
40.126	17.175	2345.925	2375.759
41.140	17.231	2344.056	2374.368
42.155	17.222	2342.829	2372.716
43.169	17.245	2340.514	2370.398
44.184	17.129	2336.818	2364.749
45.199	17.068	2335.589	2362.379
46.213	17.160	2334.121	2361.891
47.228	17.214	2334.370	2362.618
48.242	17.163	2332.224	2359.455
49.257	17.323	2329.525	2358.674
50.271	17.376	2327.217	2356.793
51.286	17.250	2324.549	2352.045
52.301	17.168	2322.812	2348.878
53.315	17.616	2325.216	2357.249
54.330	19.688	2331.365	2392.066
55.344	21.249	2330.591	2412.669
56.359	21.381	2327.768	2411.291
57.374	21.508	2327.318	2412.297
58.388	21.653	2324.268	2410.854
59.403	21.416	2320.186	2403.058
60.417	21.220	2316.498	2396.246
61.432	21.352	2315.561	2396.816
62.447	21.418	2315.074	2396.930
63.461	21.660	2312.946	2397.771
64.476	21.836	2311.265	2398.157
65.490	21.504	2308.907	2390.870
66.505	20.881	2305.057	2378.044
67.520	19.169	2299.366	2348.447
68.534	17.527	2292.630	2318.832
69.549	17.135	2288.527	2309.041
70.563	17.050	2286.100	2305.156
71.578	17.156	2283.537	2303.745
72.593	17.236	2281.896	2302.907
73.607	17.178	2280.397	2300.325
74.622	17.282	2278.498	2299.542
75.636	17.205	2274.913	2294.605
76.651	17.161	2273.617	2292.435
77.666	17.169	2272.247	2290.880
78.680	17.011	2269.963	2286.169
79.695	17.004	2267.446	2283.265
80.709	17.074	2265.544	2282.023
81.724	16.948	2264.646	2279.143
82.739	16.960	2261.720	2276.086
83.753	16.924	2259.696	2273.289
84.768	16.862	2258.231	2270.713
85.782	16.900	2256.830	2269.544
86.797	16.999	2254.576	2268.338
87.812	17.033	2252.871	2266.804
88.826	16.949	2251.937	2264.456
89.841	16.992	2249.599	2262.416
90.855	17.019	2246.755	2259.652
91.870	16.964	2245.368	2257.251
92.884	16.964	2243.651	2255.255
93.899	17.117	2241.216	2254.576
94.914	17.491	2244.596	2262.709
95.928	19.430	2249.459	2293.274
96.943	20.077	2247.813	2299.950
97.957	18.164	2238.484	2264.689
98.972	17.152	2232.978	2245.404
99.987	17.033	2230.106	2240.674
101.001	16.931	2228.099	2237.038
102.016	17.050	2225.738	2235.972
103.030	16.938	2223.244	2231.725
104.045	17.043	2221.480	2231.067
105.060	17.005	2219.037	2227.843
106.074	16.859	2218.741	2225.353
107.089	16.989	2215.601	2223.658
108.103	17.010	2215.687	2223.743
109.118	17.114	2212.971	2222.131
110.133	17.101	2212.477	2221.198
111.147	17.122	2209.795	2218.513
112.162	17.141	2207.551	2216.240
113.176	17.139	2205.465	2213.854
114.191	17.188	2203.799	2212.560
115.206	17.129	2201.981	2209.700
116.220	17.090	2200.943	2207.878
117.235	17.133	2198.434	2205.656
118.249	17.062	2197.169	2203.207
119.264	17.147	2195.776	2202.651
120.279	17.206	2194.504	2201.885
121.293	17.156	2191.761	2198.211
122.308	17.139	2190.508	2196.472
123.322	17.166	2189.357	2195.407
124.337	17.405	2190.720	2199.610
125.352	19.608	2195.383	2232.692
126.366	20.028	2193.688	2236.153
127.381	18.008	2184.895	2200.787
128.395	17.117	2181.094	2185.174
129.410	17.003	2178.702	2181.050
130.424	17.015	2177.546	2179.787
131.439	17.150	2173.945	2177.654
132.454	17.061	2173.503	2175.813
133.468	17.234	2170.979	2175.242
134.483	17.179	2169.503	2172.795
135.497	17.141	2168.446	2170.991
136.512	17.110	2166.668	2168.558
137.527	17.118	2164.196	2165.927
138.541	17.055	2162.599	2163.260
139.556	17.037	2162.390	2162.566
140.570	17.082	2160.535	2161.016
141.585	17.040	2157.978	2157.667
142.600	17.070	2156.855	2156.668
143.614	17.002	2155.191	2153.883
144.629	17.009	2153.759	2152.284
145.643	16.810	2152.570	2148.305
146.658	16.901	2150.256	2146.889
147.673	16.911	2147.879	2144.384
148.687	16.956	2146.940	2143.766
149.702	17.079	2145.540	2143.676
150.716	17.083	2145.089	2143.018
151.731	16.930	2144.126	2139.854
152.746	16.951	2142.955	2138.703
153.760	17.510	2145.297	2147.865
154.775	19.651	2149.955	2179.447
155.789	20.178	2148.501	2184.394
156.804	18.279	2139.558	2151.078
157.819	17.148	2133.718	2130.688
158.833	16.998	2130.889	2125.726
159.848	17.101	2128.616	2124.494
160.862	16.991	2127.597	2121.842
161.877	17.030	2126.399	2120.885
162.892	17.024	2125.851	2120.002
163.906	17.189	2123.387	2119.359
164.921	17.201	2121.884	2117.763
165.935	17.146	2119.525	2114.459
166.950	17.254	2117.285	2113.324
167.964	17.083	2116.364	2110.023
168.979	17.088	2113.335	2106.804
169.994	17.017	2112.344	2104.682
171.008	17.038	2110.420	2102.773
172.023	17.009	2109.341	2101.091
173.037	16.981	2108.514	2099.663
174.052	17.052	2106.442	2098.232
175.067	17.021	2104.649	2095.806
176.081	17.067	2103.010	2094.503
177.096	17.110	2101.418	2093.191
178.110	17.053	2100.524	2091.347
179.125	17.006	2100.082	2090.075
180.140	17.135	2097.376	2088.722
181.154	17.122	2096.483	2087.426
182.169	17.219	2095.952	2087.840
183.183	17.779	2097.022	2095.579
184.198	19.993	2102.700	2128.388
185.213	20.346	2100.581	2130.336
186.227	18.036	2093.035	2094.007
187.242	17.264	2088.730	2079.964
188.256	17.039	2087.520	2075.738
189.271	17.014	2085.792	2073.463
190.286	17.117	2083.565	2072.263
191.300	16.997	2080.777	2067.777
192.315	17.024	2079.641	2066.736
193.329	17.085	2078.521	2066.119
194.344	17.357	2077.603	2068.280
195.359	17.383	2075.848	2066.600
196.373	17.186	2073.904	2062.014
197.388	17.022	2071.164	2057.054
198.402	17.057	2069.345	2055.416
199.417	16.946	2066.877	2051.376
200.432	16.970	2065.840	2050.398
201.446	17.038	2064.592	2049.736
202.461	16.912	2063.138	2046.521
203.475	16.906	2061.354	2044.431
204.490	17.042	2058.694	2043.189
205.504	16.952	2056.706	2039.887
206.519	16.969	2055.124	2038.274
207.534	16.926	2054.064	2036.468
208.548	16.956	2052.535	2035.069
209.563	17.087	2050.765	2034.642
210.577	17.052	2049.325	2032.556
211.592	17.139	2049.462	2033.487
212.607	18.264	2052.719	2050.031
213.621	20.715	2058.740	2085.362
214.636	20.095	2053.176	2072.020
215.650	17.752	2045.145	2035.599
216.665	17.155	2041.778	2024.850
217.680	17.118	2040.308	2022.700
218.694	17.145	2038.564	2021.050
219.709	16.992	2037.462	2017.888
220.723	17.094	2035.636	2017.057
221.738	17.113	2033.857	2015.279
222.753	17.189	2031.532	2013.638
223.767	17.104	2030.448	2011.319
224.782	17.156	2029.353	2010.613
225.796	17.120	2027.117	2007.731
226.811	17.163	2026.052	2006.943
227.826	17.090	2024.720	2004.514
228.840	17.178	2022.364	2002.979
229.855	17.158	2021.610	2001.766
230.869	17.188	2019.699	1999.990
231.884	17.135	2017.846	1997.282
232.899	17.064	2016.523	1994.900
233.913	17.092	2014.836	1993.322
234.928	17.037	2014.738	1992.335
235.942	17.090	2012.808	1990.811
236.957	16.991	2011.745	1988.360
237.972	17.145	2009.884	1988.090
238.986	17.084	2008.425	1985.690
240.001	17.158	2005.829	1983.760
241.015	17.164	2005.727	1983.484
242.030	17.664	2006.544	1989.925
243.045	19.677	2010.603	2017.360
244.059	19.830	2008.640	2016.947
245.074	18.024	2000.367	1987.295
246.088	17.224	1997.927	1975.291
247.103	17.211	1995.851	1972.848
248.117	17.287	1994.316	1971.986
249.132	17.153	1992.478	1968.372
250.147	17.109	1991.001	1966.171
251.161	17.172	1989.624	1965.301
252.176	17.224	1987.737	1963.810
253.190	17.331	1986.609	1963.703
254.205	17.344	1984.465	1961.500
255.220	17.353	1983.320	1960.231
256.234	17.277	1982.661	1958.464
257.249	17.212	1980.481	1955.331
258.263	17.212	1979.925	1954.551
259.278	17.242	1978.928	1953.674
260.293	17.085	1976.899	1949.624
261.307	17.123	1973.903	1946.880
262.322	17.074	1972.106	1944.302
263.336	16.923	1971.235	1941.481
264.351	16.888	1969.615	1939.249
265.366	17.022	1967.793	1938.762
266.380	17.065	1967.572	1938.804
267.395	17.017	1965.520	1935.993
268.409	17.074	1963.659	1934.590
269.424	16.921	1963.355	1932.307
270.439	17.087	1962.406	1933.033
271.453	17.976	1963.331	1943.889
272.468	20.009	1967.251	1970.816
273.482	20.120	1964.397	1968.984
274.497	18.015	1955.607	1935.989
275.512	17.080	1952.248	1921.802
276.526	17.036	1950.534	1919.387
277.541	16.994	1948.183	1916.363
278.555	16.867	1948.387	1914.888
279.570	16.926	1945.488	1912.481
280.585	17.015	1944.489	1912.284
281.599	16.988	1943.434	1910.712
282.614	17.185	1942.036	1911.335
283.628	17.246	1941.421	1911.190
284.643	17.243	1940.432	1909.950
285.657	17.340	1938.944	1909.355
286.672	17.377	1937.726	1908.343
287.687	17.395	1935.530	1906.157
288.701	17.305	1935.105	1904.496
289.716	17.301	1933.177	1902.323
290.730	17.295	1931.585	1900.461
291.745	17.328	1929.707	1898.753
292.760	17.321	1930.002	1898.736
293.774	17.134	1929.778	1896.190
294.789	17.285	1926.473	1894.407
295.803	17.218	1924.242	1891.242
296.818	17.067	1923.504	1888.603
297.833	17.174	1921.691	1887.796
298.847	17.219	1920.913	1887.300
299.862	17.166	1919.160	1884.759
300.876	17.614	1920.474	1890.823
301.891	19.982	1925.323	1921.824
302.906	20.362	1922.542	1923.050
303.920	17.930	1915.891	1889.156
304.935	17.329	1912.088	1878.500
305.949	17.292	1909.526	1875.349
306.964	17.254	1907.450	1872.664
307.979	17.188	1906.903	1871.174
308.993	17.247	1906.372	1871.084
310.008	17.498	1903.657	1870.969
311.022	17.512	1902.502	1869.768
312.037	17.394	1901.047	1866.811
313.052	17.384	1899.290	1864.745
314.066	17.408	1898.138	1863.660
315.081	17.460	1897.242	1863.129
316.095	17.397	1896.260	1861.247
317.110	17.356	1894.276	1858.630
318.125	17.224	1892.452	1855.166
319.139	17.343	1891.014	1854.840
320.154	17.280	1890.067	1853.002
321.168	17.263	1887.684	1850.258
322.183	17.301	1886.193	1848.991
323.197	17.104	1885.164	1845.611
324.212	16.939	1883.804	1842.255
325.227	16.895	1882.189	1839.975
326.241	16.985	1880.221	1838.813
327.256	17.047	1878.754	1837.832
328.270	16.990	1877.715	1835.967
329.285	16.961	1878.025	1835.741
330.300	17.765	1881.218	1847.401
331.314	20.296	1884.924	1878.393
332.329	20.253	1879.550	1872.344
333.343	17.936	1871.706	1839.252
334.358	17.092	1869.445	1827.679
335.373	16.915	1868.444	1824.564
336.387	17.010	1865.918	1822.907
337.402	17.112	1863.670	1821.587
338.416	17.086	1862.206	1819.659
339.431	17.094	1862.022	1819.350
340.446	17.060	1860.911	1817.682
341.460	17.218	1859.736	1818.020
342.475	17.278	1857.916	1816.660
343.489	17.312	1856.572	1815.494
344.504	17.279	1855.807	1814.177
345.519	17.323	1854.136	1812.800
346.533	17.510	1852.326	1812.814
347.548	17.547	1851.126	1811.812
348.562	17.426	1850.430	1809.630
349.577	17.400	1849.542	1808.263
350.592	17.621	1848.107	1809.006
351.606	17.474	1846.787	1805.930
352.621	17.463	1844.750	1803.597
353.635	17.248	1843.760	1800.125
354.650	17.284	1841.465	1798.060
355.665	17.235	1839.759	1795.654
356.679	17.060	1839.285	1793.120
357.694	17.224	1837.392	1792.798
358.708	17.137	1836.923	1791.205
359.723	18.203	1839.120	1804.439
360.738	20.381	1843.011	1831.153
361.752	19.712	1837.702	1818.590
362.767	17.677	1831.948	1791.198
363.781	17.160	1829.755	1783.386
364.796	17.182	1827.536	1781.247
365.810	17.153	1826.429	1779.645
366.825	17.127	1826.147	1778.886
367.840	17.160	1825.134	1778.028
368.854	17.142	1823.975	1776.500
369.869	17.063	1821.923	1773.454
370.883	17.024	1819.913	1770.878
371.898	17.081	1818.636	1770.025
372.913	17.065	1818.250	1769.264
373.927	17.136	1816.690	1768.287
374.942	17.118	1816.155	1767.366
375.956	17.406	1813.582	1767.649
376.971	17.227	1811.788	1763.831
377.986	17.196	1809.661	1761.221
379.000	17.074	1808.002	1758.129
380.015	17.212	1807.298	1758.672
381.029	17.248	1805.016	1756.610
382.044	17.120	1803.941	1754.028
383.059	17.164	1802.223	1752.596
384.073	17.075	1801.245	1750.513
385.088	17.070	1800.333	1749.367
386.102	17.003	1799.237	1747.399
387.117	16.952	1797.584	1745.056
388.132	17.025	1796.434	1744.488
389.146	17.691	1800.332	1754.956
390.161	20.199	1803.724	1784.025
391.175	20.091	1796.925	1775.969
392.190	17.664	1790.013	1744.000
393.205	17.003	1787.826	1734.868
394.219	17.113	1785.381	1733.410
395.234	17.019	1785.217	1732.079
396.248	17.227	1782.182	1731.063
397.263	17.084	1780.430	1727.689
398.278	16.946	1779.119	1724.803
399.292	17.009	1777.895	1724.052
400.307	17.020	1777.815	1723.875
401.321	17.117	1776.781	1723.659
402.336	17.204	1774.993	1722.600
403.350	17.215	1773.731	1721.287
404.365	17.311	1772.700	1721.057
405.380	17.607	1771.390	1722.586
406.394	17.666	1770.311	1721.927
407.409	17.582	1768.395	1719.004
408.423	17.493	1767.202	1716.738
409.438	17.397	1765.648	1714.056
410.453	17.371	1765.975	1713.901
411.467	17.410	1764.835	1712.984
412.482	17.447	1762.285	1710.683
413.496	17.256	1760.897	1707.199
414.511	17.293	1759.341	1705.856
415.526	17.294	1756.733	1703.138
416.540	17.116	1755.328	1699.784
417.555	17.210	1754.839	1700.047
418.569	17.321	1754.624	1700.756
419.584	17.187	1755.122	1699.686
420.599	17.335	1754.208	1700.079
421.613	17.206	1752.873	1697.293
422.628	17.114	1751.420	1694.752
423.642	17.194	1749.746	1693.736
424.657	17.175	1748.577	1692.214
425.672	17.285	1746.337	1690.944
426.686	17.291	1745.532	1690.021
427.701	17.283	1743.992	1688.249
428.715	17.296	1742.707	1686.927
429.730	17.355	1741.957	1686.592
430.745	17.244	1740.613	1683.977
431.759	17.220	1739.934	1682.883
432.774	17.418	1739.822	1684.543
433.788	17.613	1738.923	1685.415
434.803	17.834	1737.585	1686.112
435.818	17.854	1736.946	1685.482
436.832	17.603	1736.628	1682.481
437.847	16.706	1729.824	1666.816
438.861	9.251	1709.893	1574.254
439.876	1.606	1695.859	1486.277
440.890	0.326	1692.245	1470.386
441.905	0.187	1690.754	1467.551
442.920	0.035	1690.014	1465.247
443.934	0.139	1688.463	1464.741
444.949	0.051	1687.586	1462.952
445.963	0.098	1686.643	1462.414
446.978	0.047	1686.941	1461.999
447.993	0.089	1684.224	1459.884
449.007	0.203	1681.972	1458.859
450.022	0.195	1680.006	1456.900
451.036	0.243	1678.473	1455.864
452.051	1.164	1682.871	1468.476
453.066	8.445	1699.272	1553.980
454.080	15.825	1710.228	1636.175
455.095	17.271	1712.085	1651.893
456.109	17.637	1711.680	1654.871
457.124	17.701	1710.531	1654.186
458.139	17.645	1710.220	1653.140
459.153	17.678	1709.581	1652.654
460.168	17.732	1707.204	1650.680
461.182	17.629	1706.508	1648.811
462.197	17.534	1703.935	1645.199
463.212	17.537	1702.781	1643.921
464.226	17.667	1701.126	1643.388
465.241	17.677	1700.286	1642.473
466.255	17.695	1699.660	1641.847
467.270	17.670	1698.443	1640.237
468.285	17.498	1696.744	1636.732
469.299	17.534	1695.909	1636.077
470.314	17.645	1693.969	1635.083
471.328	17.515	1692.818	1632.524
472.343	17.582	1692.042	1632.223
473.358	17.532	1691.194	1630.735
474.372	17.714	1688.904	1630.072
475.387	17.740	1687.114	1628.400
476.401	17.604	1685.616	1625.458
477.416	17.539	1685.599	1624.624
478.430	17.572	1684.669	1623.854
479.445	17.405	1683.431	1620.863
480.460	17.483	1681.475	1619.535
481.474	17.549	1680.751	1619.272
482.489	17.647	1679.967	1619.259
483.503	17.695	1677.794	1617.433
484.518	17.689	1676.094	1615.537
485.533	17.602	1675.177	1613.631
486.547	17.776	1673.590	1613.561
487.562	17.895	1672.818	1613.761
488.576	17.900	1671.231	1612.084
489.591	17.922	1669.745	1610.661
490.606	17.763	1668.729	1607.987
491.620	17.930	1666.732	1607.446
492.635	17.903	1665.578	1605.886
493.649	17.788	1664.581	1603.647
494.664	17.769	1663.136	1601.887
495.679	17.589	1661.414	1598.338
496.693	17.600	1660.276	1597.156
497.708	17.718	1659.488	1597.316
498.722	17.783	1658.436	1596.728
499.737	17.797	1656.735	1595.028
500.752	17.788	1654.984	1593.062
501.766	17.551	1654.192	1589.887
502.781	17.625	1652.207	1588.485
503.795	17.795	1650.844	1588.579
504.810	17.836	1649.525	1587.498
505.825	17.712	1649.368	1585.996
506.839	17.787	1648.285	1585.473
507.854	17.829	1646.995	1584.427
508.868	17.844	1645.446	1582.887
509.883	17.752	1644.819	1581.243
510.898	17.862	1643.795	1581.095
511.912	17.916	1641.202	1578.907
512.927	17.818	1639.499	1576.171
513.941	17.770	1638.085	1574.181
514.956	17.644	1637.281	1572.053
515.971	17.619	1635.836	1570.245
516.985	17.651	1635.701	1570.224
518.000	17.748	1634.739	1570.011
519.014	17.944	1633.666	1570.604
520.029	17.882	1632.586	1568.804
521.043	17.812	1631.043	1566.488
522.058	17.873	1629.760	1565.628
523.073	17.905	1628.841	1564.851
524.087	17.952	1628.085	1564.373
525.102	17.980	1626.671	1563.085
526.116	17.867	1624.770	1560.034
527.131	17.645	1623.856	1556.924
528.146	17.865	1623.204	1558.139
529.160	17.880	1621.793	1556.728
530.175	17.889	1621.464	1556.310
531.189	17.983	1620.159	1555.730
532.204	18.183	1617.225	1554.557
533.219	17.929	1616.578	1551.433
534.233	17.861	1615.599	1549.685
535.248	17.980	1614.820	1549.841
536.262	18.180	1613.526	1550.231
537.277	18.102	1612.405	1548.262
538.292	17.913	1610.324	1544.362
539.306	17.906	1608.727	1542.574
540.321	17.928	1608.677	1542.543
541.335	17.963	1606.790	1540.872
542.350	17.894	1605.280	1538.616
543.365	18.175	1603.695	1539.452
544.379	17.958	1602.789	1536.437
545.394	18.036	1601.560	1535.778
546.408	17.867	1600.080	1532.646
547.423	17.695	1599.277	1530.140
548.438	17.728	1598.389	1529.413
549.452	17.921	1597.252	1529.880
550.467	17.993	1595.110	1528.288
551.481	17.871	1594.681	1526.601
552.496	17.885	1594.580	1526.443
553.511	18.130	1593.114	1527.062
554.525	18.008	1591.696	1524.425
555.540	18.062	1591.561	1524.595
556.554	18.057	1590.770	1523.607
557.569	18.123	1587.673	1521.050
558.583	18.201	1585.900	1519.871
559.598	18.012	1585.337	1517.457
560.613	17.933	1585.001	1516.246
561.627	17.967	1583.747	1515.175
562.642	18.067	1581.749	1513.965
563.656	18.182	1581.539	1514.614
564.671	18.207	1579.822	1513.012
565.686	18.099	1578.719	1510.813
566.700	18.001	1576.677	1507.808
567.715	17.947	1574.919	1505.470
568.729	17.960	1573.390	1503.940
569.744	17.856	1572.069	1501.582
570.759	17.846	1571.374	1500.649
571.773	18.123	1570.023	1501.624
572.788	17.971	1569.457	1499.559
573.802	18.044	1567.530	1498.180
574.817	18.161	1565.656	1497.246
575.832	18.246	1565.411	1497.572
576.846	18.244	1564.258	1496.278
577.861	18.130	1562.811	1493.708
578.875	18.143	1562.699	1493.537
579.890	18.276	1561.554	1493.436
580.905	18.154	1560.753	1491.415
581.919	18.191	1559.981	1490.825
582.934	18.285	1559.106	1490.633
583.948	18.217	1557.935	1488.740
584.963	18.246	1555.666	1486.644
585.978	18.142	1554.733	1484.673
586.992	18.061	1554.450	1483.515
588.007	18.306	1554.033	1485.075
589.021	18.159	1552.027	1481.706
590.036	18.176	1549.826	1479.571
591.051	18.136	1549.203	1478.452
592.065	18.194	1547.397	1477.052
593.080	18.385	1546.194	1477.390
594.094	18.354	1544.435	1475.264
595.109	18.115	1543.114	1471.753
596.123	18.021	1541.235	1468.971
597.138	18.227	1540.488	1469.864
598.153	18.196	1539.664	1468.637
599.167	18.230	1538.182	1467.339
600.182	18.280	1537.879	1467.301
601.196	18.363	1536.715	1466.730
602.211	18.189	1535.879	1464.265
603.226	18.401	1534.840	1464.924
604.240	18.239	1533.203	1461.789
605.255	18.318	1531.556	1460.723
606.269	18.345	1530.729	1459.990
607.284	18.348	1529.497	1458.666
608.299	18.274	1528.602	1457.009
609.313	18.243	1527.642	1455.651
610.328	18.433	1525.643	1455.193
611.342	18.305	1524.626	1452.961
612.357	18.344	1524.239	1452.747
613.372	18.330	1523.295	1451.552
614.386	18.289	1521.771	1449.583
615.401	18.381	1521.034	1449.484
616.415	18.365	1520.415	1448.590
617.430	18.463	1519.477	1448.355
618.445	18.543	1517.957	1447.407
619.459	18.383	1516.955	1444.928
620.474	18.134	1516.067	1441.792
621.488	18.110	1513.933	1439.393
622.503	17.940	1513.128	1437.016
623.518	17.937	1512.538	1436.262
624.532	18.330	1511.335	1438.263
625.547	18.370	1510.421	1437.559
626.561	18.548	1509.475	1437.988
627.576	18.567	1508.521	1437.062
628.591	18.246	1507.139	1432.872
629.605	18.044	1505.139	1429.103
630.620	17.897	1503.921	1426.545
631.634	17.977	1503.565	1426.701
632.649	18.056	1502.042	1425.753
633.663	18.266	1500.767	1426.130
634.678	18.331	1499.907	1425.683
635.693	18.422	1498.425	1424.869
636.707	18.460	1497.074	1423.727
637.722	18.592	1496.668	1424.279
638.736	18.581	1495.572	1422.972
639.751	18.604	1493.957	1421.453
640.766	18.701	1492.534	1420.741
641.780	18.610	1490.891	1418.251
642.795	18.453	1490.528	1416.427
643.809	18.616	1489.983	1417.091
644.824	18.721	1488.753	1416.626
645.839	18.514	1487.179	1413.241
646.853	18.543	1486.370	1412.542
647.868	18.458	1485.259	1410.615
648.882	18.530	1484.212	1410.049
649.897	18.577	1482.547	1408.683
650.912	18.445	1481.357	1406.301
651.926	18.371	1480.554	1404.756
652.941	18.446	1478.394	1403.154
653.955	18.350	1476.879	1400.765
654.970	18.152	1476.022	1398.156
655.985	18.269	1474.587	1397.591
656.999	18.284	1473.113	1396.143
658.014	18.382	1471.743	1395.484
659.028	18.417	1471.785	1395.646
660.043	18.488	1471.116	1395.419
661.058	18.572	1469.777	1394.671
662.072	18.551	1468.367	1392.994
663.087	18.508	1467.349	1391.516
664.101	18.511	1466.047	1390.138
665.116	18.548	1465.143	1389.416
666.131	18.564	1464.388	1388.665
667.145	18.623	1462.710	1387.385
668.160	18.776	1462.279	1388.050
669.174	18.715	1461.263	1386.423
670.189	18.647	1459.577	1384.107
671.204	18.704	1458.237	1383.133
672.218	18.720	1457.309	1382.218
673.233	18.775	1456.798	1382.015
674.247	18.716	1455.592	1380.224
675.262	18.846	1454.113	1379.710
676.276	18.935	1453.045	1379.247
677.291	18.792	1452.351	1377.271
678.306	18.633	1451.147	1374.689
679.320	18.636	1450.328	1373.771
680.335	18.829	1449.734	1374.591
681.349	18.652	1449.243	1372.536
682.364	18.779	1447.353	1371.609
683.379	18.731	1446.055	1369.828
684.393	18.727	1444.615	1368.268
685.408	18.617	1444.277	1366.903
686.422	18.601	1443.346	1365.728
687.437	18.591	1443.309	1365.452
688.452	18.775	1442.192	1365.700
689.466	18.652	1440.376	1362.834
690.481	18.588	1439.112	1360.963
691.495	18.428	1438.280	1358.740
692.510	18.187	1436.799	1355.264
693.525	18.220	1434.975	1353.644
694.539	18.120	1434.550	1352.283
695.554	18.601	1433.428	1354.886
696.568	18.750	1433.063	1355.559
697.583	18.819	1431.979	1354.919
698.598	18.581	1431.677	1352.585
699.612	18.818	1429.631	1352.365
700.627	18.853	1429.104	1351.981
701.641	18.722	1427.920	1349.664
702.656	18.940	1425.995	1349.399
703.671	18.841	1426.138	1348.592
704.685	18.895	1425.337	1348.105
705.700	18.829	1423.830	1345.994
706.714	18.841	1422.145	1344.334
707.729	18.830	1420.473	1342.510
708.744	18.789	1419.245	1340.867
709.758	18.715	1418.467	1339.385
710.773	18.521	1417.223	1336.533
711.787	18.356	1416.496	1334.400
712.802	18.512	1414.932	1333.984
713.816	18.566	1414.342	1333.687
714.831	18.739	1413.847	1334.417
715.846	18.902	1412.186	1333.956
716.860	18.897	1411.292	1332.914
717.875	18.806	1410.087	1330.906
718.889	18.831	1409.094	1330.006
719.904	18.913	1407.670	1329.144
720.919	18.839	1406.803	1327.590
721.933	18.897	1406.353	1327.458
722.948	18.866	1405.303	1326.069
723.962	18.905	1403.744	1324.738
724.977	18.884	1402.966	1323.679
725.992	19.046	1401.751	1323.634
727.006	18.940	1400.305	1321.290
728.021	18.910	1399.085	1319.748
729.035	18.997	1397.963	1319.199
730.050	18.982	1397.305	1318.309
731.065	18.916	1395.865	1316.285
732.079	19.066	1394.861	1316.330
733.094	18.911	1394.016	1314.185
734.108	18.784	1392.578	1311.695
735.123	18.947	1391.096	1311.393
736.138	18.825	1390.045	1309.315
737.152	18.926	1388.963	1308.913
738.167	18.944	1388.947	1308.875
739.181	19.072	1387.538	1308.366
740.196	19.042	1386.652	1307.149
741.211	19.007	1385.835	1305.954
742.225	18.950	1384.953	1304.535
743.240	18.945	1383.387	1302.861
744.254	18.973	1381.597	1301.237
745.269	18.922	1381.190	1300.311
746.284	18.999	1379.953	1299.574
747.298	18.901	1378.939	1297.715
748.313	18.607	1377.870	1294.324
749.327	18.376	1377.158	1291.751
750.342	18.248	1376.140	1289.674
751.356	18.239	1374.493	1287.906
752.371	18.291	1373.318	1287.046
753.386	18.611	1372.925	1288.937
754.400	18.782	1372.871	1290.025
755.415	19.052	1372.102	1291.186
756.429	18.940	1370.708	1288.873
757.444	18.946	1368.574	1286.760
758.459	19.033	1368.131	1286.846
759.473	19.177	1367.751	1287.414
760.488	19.326	1365.877	1286.615
761.502	19.100	1365.431	1284.347
762.517	19.105	1363.583	1282.492
763.532	18.924	1362.592	1280.049
764.546	18.915	1361.700	1278.994
765.561	18.765	1360.408	1276.504
766.575	18.605	1359.282	1274.098
767.590	18.598	1358.129	1272.816
768.605	18.780	1357.060	1273.016
769.619	18.882	1355.439	1272.105
770.634	18.923	1354.690	1271.553
771.648	19.015	1354.322	1271.741
772.663	19.258	1353.710	1272.817
773.678	19.119	1353.092	1271.051
774.692	19.048	1352.009	1269.358
775.707	19.195	1351.724	1270.022
776.721	19.244	1350.380	1268.975
777.736	19.175	1349.117	1267.124
778.751	19.178	1348.540	1266.453
779.765	19.089	1347.236	1264.418
780.780	19.144	1346.985	1264.436
781.794	18.987	1346.072	1262.275
782.809	19.059	1344.125	1260.824
783.824	19.075	1342.238	1259.019
784.838	18.721	1341.139	1255.239
785.853	18.269	1340.582	1251.250
786.867	18.455	1340.355	1252.254
787.882	18.712	1339.381	1253.076
788.897	18.812	1338.877	1253.187
789.911	18.945	1337.840	1253.042
790.926	19.059	1336.498	1252.468
791.940	18.921	1335.631	1250.501
792.955	18.956	1334.323	1249.380
793.969	19.031	1333.208	1248.732
794.984	19.060	1332.278	1247.922
795.999	19.128	1331.360	1247.412
797.013	19.214	1329.525	1246.169
798.028	19.051	1328.893	1244.240
799.042	19.069	1327.707	1243.115
800.057	19.284	1327.057	1243.912
801.072	19.099	1325.342	1240.815
802.086	19.180	1324.078	1240.075
803.101	19.288	1323.313	1239.991
804.115	19.253	1322.530	1238.853
805.130	19.424	1320.771	1238.290
806.145	19.307	1319.996	1236.572
807.159	19.352	1317.683	1234.585
808.174	19.207	1317.031	1232.778
809.188	19.100	1316.147	1231.038
810.203	19.098	1314.258	1229.111
811.218	18.907	1313.194	1226.593
812.232	18.844	1311.770	1224.668
813.247	18.688	1311.396	1223.057
814.261	18.795	1310.779	1223.097
815.276	19.112	1309.170	1223.718
816.291	19.144	1309.007	1223.649
817.305	19.204	1308.301	1223.267
818.320	19.303	1306.536	1222.177
819.334	19.076	1305.415	1219.369
820.349	19.228	1304.298	1219.258
821.364	19.267	1303.055	1218.228
822.378	19.248	1301.278	1216.288
823.393	19.276	1299.729	1214.890
824.407	19.188	1299.069	1213.503
825.422	19.296	1298.602	1213.684
826.437	19.157	1297.095	1211.152
827.451	19.166	1294.936	1209.057
828.466	18.595	1293.947	1203.960
829.480	18.625	1292.254	1202.453
830.495	18.783	1290.235	1201.536
831.509	18.879	1289.751	1201.618
832.524	19.173	1288.836	1202.689
833.539	19.169	1287.869	1201.609
834.553	19.164	1287.352	1200.952
835.568	19.168	1286.267	1199.826
836.582	19.311	1285.364	1199.841
837.597	19.224	1284.099	1197.906
838.612	19.378	1282.244	1197.104
839.626	19.266	1281.098	1195.116
840.641	19.273	1280.436	1194.400
841.655	19.056	1279.804	1192.160
842.670	18.819	1278.460	1189.113
843.685	18.826	1276.474	1187.175
844.699	18.920	1275.884	1187.136
845.714	19.118	1275.343	1187.860
846.728	19.121	1274.904	1187.329
847.743	19.242	1273.194	1186.438
848.758	19.244	1272.029	1185.222
849.772	19.193	1271.242	1183.997
850.787	19.257	1270.029	1183.167
851.801	19.364	1268.359	1182.205
852.816	19.355	1266.803	1180.550
853.831	19.138	1265.497	1177.698
854.845	19.103	1264.229	1176.142
855.860	19.054	1262.880	1174.404
856.874	18.897	1261.688	1172.085
857.889	18.993	1260.153	1171.171
858.904	18.756	1258.140	1167.545
859.918	18.558	1256.629	1164.648
860.933	18.428	1255.807	1162.859
861.947	18.613	1255.435	1163.636
862.962	18.944	1254.466	1164.855
863.977	18.794	1253.352	1162.660
864.991	18.866	1252.765	1162.466
866.006	19.123	1252.222	1163.567
867.020	19.237	1250.923	1162.997
868.035	19.150	1250.114	1161.519
869.049	19.322	1248.749	1161.276
870.064	19.435	1247.589	1160.824
871.079	19.264	1247.580	1159.518
872.093	19.376	1246.969	1159.565
873.108	19.447	1245.634	1158.665
874.122	19.250	1243.993	1155.672
875.137	18.862	1243.666	1152.618
876.152	19.102	1242.948	1153.429
877.166	19.185	1240.797	1151.851
878.181	19.152	1240.031	1150.781
879.195	19.368	1239.250	1151.368
880.210	19.453	1238.090	1150.724
881.225	19.542	1237.300	1150.447
882.239	19.390	1236.673	1148.708
883.254	19.412	1235.638	1147.760
884.268	19.391	1235.018	1146.905
885.283	19.265	1233.565	1144.580
886.298	19.404	1231.724	1143.659
887.312	19.329	1230.795	1142.157
888.327	19.320	1230.480	1141.671
889.341	19.295	1228.988	1139.984
890.356	19.326	1228.473	1139.574
891.371	19.198	1228.311	1138.437
892.385	19.243	1227.159	1137.533
893.400	19.273	1225.733	1136.276
894.414	19.111	1224.414	1133.842
895.429	18.948	1223.152	1131.462
896.444	18.712	1220.768	1127.560
897.458	18.445	1219.696	1124.678
898.473	18.583	1219.177	1124.969
899.487	18.955	1219.150	1127.261
900.502	19.306	1218.134	1128.497
901.517	19.209	1217.043	1126.718
902.531	19.362	1216.062	1126.680
903.546	19.372	1215.329	1125.928
904.560	19.398	1214.866	1125.539
905.575	19.496	1213.661	1124.929
906.589	19.438	1212.593	1123.424
907.604	19.374	1212.131	1122.440
