DTS Sentinel unit serial number:	SN409020Multiplexer serial number:	ORYXHardware model number:	OX4-SRSoftware version number:	ORYX F/W v3.00 Oryx Data Collector v3.7.2.0data status	okinstallation	HaddamTimeLapsedifferential loss correction	single-endedforward channel	channel 3reverse channel	N/Adate	2011/06/22time	07:01:17forward acquisition time	30.00reverse acquisition time	0.00gamma	498.7831k internal	0.1752k external	0.1752temperature offset calibration	1.0074default loss term (dB/km)	0.3790temperature slope calibration	1.3530multiplexer offset coefficient	1.0000multiplexer slope coefficient	1.0000fibre end	0.00T internal ref (°C)	22.81T ext. ref 1 (°C)	19.23T ext. ref 2 (°C)	0.12length (m)	temperature (°C)	Stokes	anti-Stokes-747.200	-104.448	-0.391	-0.119
-746.185	371.702	0.206	0.559
-745.171	-200.000	0.027	-0.694
-744.156	321.379	-0.258	0.654
-743.142	-200.000	0.046	0.414
-742.127	28.541	-0.226	0.254
-741.112	220.872	0.079	0.168
-740.098	-43.323	-0.253	-0.170
-739.083	142.219	-0.204	-0.360
-738.069	-68.740	0.492	0.252
-737.054	153.266	-0.249	0.453
-736.039	-95.439	-0.289	0.102
-735.025	108.881	0.199	0.316
-734.010	292.840	-0.117	0.283
-732.996	-76.258	-0.334	0.156
-731.981	40.996	-0.130	-0.156
-730.966	-99.041	-0.555	-0.185
-729.952	-90.524	0.393	0.150
-728.937	-8.155	-0.287	-0.256
-727.923	521.194	0.027	-0.085
-726.908	-93.111	0.553	-0.203
-725.894	-162.308	0.397	0.026
-724.879	261.246	0.201	-0.463
-723.864	-146.400	0.150	0.017
-722.850	-55.798	0.233	-0.137
-721.835	800.000	0.105	-0.397
-720.821	-79.304	0.108	-0.048
-719.806	14.007	-0.342	-0.353
-718.791	477.732	0.134	-0.404
-717.777	668.916	0.107	0.371
-716.762	-135.592	-0.203	0.032
-715.748	-11.371	-0.180	0.157
-714.733	-106.047	-0.166	-0.049
-713.718	-21.562	-0.686	-0.554
-712.704	177.265	0.119	0.231
-711.689	-80.753	0.055	-0.024
-710.675	241.007	0.136	-0.301
-709.660	800.000	0.073	-0.393
-708.645	-117.824	-0.077	0.018
-707.631	477.120	0.077	-0.231
-706.616	-112.618	-0.452	0.118
-705.602	-126.743	-0.274	-0.053
-704.587	-200.000	-0.051	0.366
-703.572	237.248	-0.109	0.240
-702.558	31.115	0.368	-0.419
-701.543	197.933	-0.223	-0.453
-700.529	2.813	0.386	-0.371
-699.514	86.081	-0.465	-0.680
-698.499	5.287	-0.038	0.038
-697.485	73.734	0.204	0.284
-696.470	-200.000	-0.006	0.272
-695.456	-81.908	-0.191	0.082
-694.441	800.000	-0.167	0.715
-693.426	-200.000	0.012	0.329
-692.412	-161.398	-0.356	0.024
-691.397	160.781	0.126	0.233
-690.383	-86.644	-0.643	0.260
-689.368	-160.351	-0.119	-0.008
-688.354	-89.393	-0.520	-0.201
-687.339	-2.513	-0.291	0.270
-686.324	800.000	0.073	0.409
-685.310	69.863	-0.128	0.176
-684.295	-146.006	-0.195	0.023
-683.281	-200.000	-0.002	-0.259
-682.266	-200.000	-0.023	-0.263
-681.251	162.226	-0.137	-0.254
-680.237	-39.227	0.208	-0.144
-679.222	139.798	-0.152	0.266
-678.208	-200.000	-0.053	0.333
-677.193	-83.856	-0.214	0.090
-676.178	64.627	-0.190	-0.254
-675.164	455.841	-0.183	-0.540
-674.149	-117.543	-0.491	0.117
-673.135	400.025	0.138	0.385
-672.120	-14.928	0.048	0.041
-671.105	87.736	0.286	-0.420
-670.091	-121.959	0.422	-0.091
-669.076	-71.803	0.243	-0.119
-668.062	-45.802	-0.170	0.111
-667.047	329.633	-0.139	0.355
-666.032	-98.834	0.221	-0.074
-665.018	-200.000	-0.032	0.328
-664.003	-200.000	0.023	0.579
-662.989	800.000	0.107	0.468
-661.974	-23.029	0.242	-0.192
-660.959	-33.154	0.149	0.109
-659.945	-40.445	0.033	0.023
-658.930	10.565	0.316	-0.319
-657.916	-79.429	0.562	0.250
-656.901	-107.143	-0.229	0.066
-655.886	80.012	0.113	0.160
-654.872	88.815	0.069	-0.102
-653.857	184.372	-0.137	0.269
-652.843	1.779	-0.228	-0.218
-651.828	-53.000	-0.313	-0.190
-650.814	15.230	-0.151	0.157
-649.799	-122.023	-0.442	0.095
-648.784	-40.293	0.314	0.216
-647.770	205.733	-0.090	0.185
-646.755	-92.049	-0.217	0.081
-645.741	-142.542	-0.084	-0.011
-644.726	-51.945	-0.285	0.175
-643.711	-111.055	0.119	-0.032
-642.697	-20.872	0.180	0.145
-641.682	-127.505	0.126	-0.024
-640.668	-200.000	-0.007	-0.052
-639.653	-31.754	-0.310	-0.229
-638.638	247.062	0.167	-0.373
-637.624	-44.696	-0.160	-0.105
-636.609	800.000	0.079	0.316
-635.595	24.235	0.116	-0.126
-634.580	-66.974	0.464	0.241
-633.565	25.087	-0.154	0.169
-632.551	19.618	-0.137	0.146
-631.536	0.263	-0.166	-0.157
-630.522	-94.976	0.460	0.164
-629.507	-200.000	-0.008	0.221
-628.492	488.382	-0.119	-0.360
-627.478	211.981	0.155	0.324
-626.463	1.925	-0.120	-0.115
-625.449	800.000	-0.074	0.286
-624.434	-200.000	-0.011	0.402
-623.419	-117.612	0.457	-0.108
-622.405	45.061	-0.113	-0.137
-621.390	-109.890	-0.056	-0.015
-620.376	21.161	-0.229	-0.245
-619.361	-129.598	-0.532	0.096
-618.346	359.272	-0.198	0.525
-617.332	78.980	0.220	-0.312
-616.317	-45.266	-0.107	-0.070
-615.303	53.708	-0.284	-0.360
-614.288	-48.656	0.050	-0.031
-613.273	-103.037	-0.192	-0.060
-612.259	-123.363	0.172	-0.036
-611.244	-197.077	-0.316	0.003
-610.230	-200.000	0.197	-0.001
-609.215	-104.097	-0.350	0.107
-608.201	-38.449	0.212	-0.147
-607.186	5.631	-0.075	-0.073
-606.171	-200.000	-0.018	0.160
-605.157	-11.266	0.154	0.134
-604.142	-200.000	-0.020	-0.306
-603.128	-148.705	-0.355	0.038
-602.113	-1.597	0.053	-0.049
-601.098	-74.529	0.443	-0.210
-600.084	-31.614	0.306	0.226
-599.069	266.416	0.048	0.111
-598.055	172.927	0.242	0.461
-597.040	155.140	0.126	0.229
-596.025	-200.000	-0.053	0.410
-595.011	-65.108	-0.197	-0.104
-593.996	49.169	0.201	0.250
-592.982	-122.000	0.385	-0.083
-591.967	-154.035	0.189	-0.017
-590.952	-96.646	0.382	0.132
-589.938	-141.377	0.283	-0.037
-588.923	70.405	0.141	0.193
-587.909	-200.000	-0.045	-0.311
-586.894	244.019	-0.086	0.191
-585.879	313.914	0.179	0.446
-584.865	-18.771	-0.126	-0.103
-583.850	-177.539	0.147	0.005
-582.836	14.469	0.188	0.193
-581.821	800.000	-0.046	-0.195
-580.806	52.992	0.070	-0.089
-579.792	47.048	-0.219	0.269
-578.777	800.000	0.161	-0.808
-577.763	768.011	0.074	-0.267
-576.748	-200.000	-0.019	-0.335
-575.733	16.517	0.090	0.093
-574.719	-12.144	0.207	-0.179
-573.704	-200.000	-0.071	-0.473
-572.690	-46.111	0.383	0.248
-571.675	2.476	0.156	-0.149
-570.661	-95.370	-0.230	-0.081
-569.646	68.416	0.137	0.185
-568.631	-78.253	0.250	0.113
-567.617	-200.000	-0.009	0.379
-566.602	-138.041	-0.443	0.064
-565.588	670.351	0.113	-0.389
-564.573	-200.000	0.036	-0.365
-563.558	109.595	-0.459	0.727
-562.544	45.298	-0.143	0.173
-561.529	-100.971	-0.460	-0.148
-560.515	-200.000	0.029	0.220
-559.500	-147.525	-0.138	-0.015
-558.485	313.852	0.023	-0.058
-557.471	-119.825	0.417	-0.094
-556.456	-26.446	-0.102	0.078
-555.442	-73.519	0.132	0.063
-554.427	-122.095	0.314	0.067
-553.412	-143.506	-0.165	-0.021
-552.398	-133.547	0.448	-0.073
-551.383	-140.063	-0.661	-0.091
-550.369	-200.000	0.002	0.185
-549.354	-72.030	-0.125	-0.061
-548.339	-161.523	0.451	-0.030
-547.325	-118.490	0.226	0.052
-546.310	119.085	-0.266	0.435
-545.296	-104.252	0.139	-0.042
-544.281	800.000	-0.052	0.205
-543.266	-200.000	-0.028	0.371
-542.252	800.000	-0.082	-0.412
-541.237	399.243	-0.176	-0.487
-540.223	-52.403	-0.264	-0.161
-539.208	207.954	0.110	-0.228
-538.193	-30.162	-0.376	-0.281
-537.179	-92.181	-0.207	0.076
-536.164	-27.955	-0.277	0.211
-535.150	-62.649	-0.147	-0.080
-534.135	-111.603	0.384	0.102
-533.121	-6.512	-0.291	-0.261
-532.106	-200.000	-0.003	-0.141
-531.091	172.030	0.314	-0.595
-530.077	32.412	-0.140	-0.159
-529.062	-108.148	0.158	0.045
-528.048	91.293	0.204	0.303
-527.033	152.670	0.178	0.321
-526.018	-19.105	0.355	0.290
-525.004	-123.249	0.473	-0.099
-523.989	-37.201	0.088	-0.062
-522.975	-133.678	0.443	0.072
-521.960	-129.495	-0.193	-0.035
-520.945	30.268	0.035	0.040
-519.931	605.208	0.034	0.112
-518.916	800.000	0.075	0.366
-517.902	-184.719	-0.567	-0.012
-516.887	-123.476	-0.045	0.009
-515.872	-200.000	-0.001	0.259
-514.858	-200.000	0.022	-0.271
-513.843	70.284	0.209	-0.284
-512.829	-84.698	0.394	0.162
-511.814	232.405	0.358	-0.777
-510.799	67.118	-0.083	-0.112
-509.785	-53.007	0.447	0.270
-508.770	489.222	-0.162	-0.488
-507.756	-124.233	-0.634	0.129
-506.741	40.571	0.084	0.100
-505.726	-121.453	0.262	-0.057
-504.712	-196.626	-0.188	-0.002
-503.697	8.337	0.092	0.091
-502.683	-200.000	0.029	0.353
-501.668	-200.000	0.009	-0.167
-500.653	34.096	0.061	-0.070
-499.639	8.309	0.223	0.220
-498.624	123.744	-0.206	0.340
-497.610	178.491	-0.115	0.221
-496.595	-83.307	-0.318	0.133
-495.581	92.533	0.302	0.448
-494.566	-111.124	0.298	0.080
-493.551	33.250	-0.243	-0.277
-492.537	-27.827	0.215	0.164
-491.522	800.000	0.189	0.694
-490.508	-1.402	-0.407	0.377
-489.493	400.154	0.176	-0.487
-488.478	-200.000	-0.086	-0.507
-487.464	-135.842	0.269	-0.041
-486.449	-0.610	-0.127	-0.118
-485.435	439.342	-0.165	0.475
-484.420	93.641	-0.159	-0.237
-483.405	142.117	0.224	0.392
-482.391	-79.298	0.011	-0.005
-481.376	-8.416	0.206	-0.182
-480.362	-126.481	-0.479	0.093
-479.347	-53.883	-0.239	-0.143
-478.332	-92.112	0.481	0.178
-477.318	-30.080	-0.089	-0.066
-476.303	14.633	0.205	-0.210
-475.289	21.495	-0.218	0.233
-474.274	-200.000	0.032	0.297
-473.259	800.000	0.033	0.142
-472.245	120.131	0.218	-0.357
-471.230	234.425	0.178	-0.387
-470.216	-200.000	-0.016	-0.396
-469.201	-200.000	0.017	0.191
-468.186	800.000	-0.047	0.237
-467.172	-103.285	-0.274	0.084
-466.157	-104.451	-0.500	0.151
-465.143	-82.812	-0.365	0.154
-464.128	64.295	-0.246	0.325
-463.113	120.434	0.073	-0.120
-462.099	40.382	0.249	-0.294
-461.084	-48.714	0.162	-0.102
-460.070	334.941	-0.083	-0.212
-459.055	6.453	-0.157	-0.153
-458.040	13.257	-0.220	-0.223
-457.026	800.000	-0.093	0.461
-456.011	800.000	-0.065	-0.241
-454.997	-200.000	-0.043	0.311
-453.982	70.788	-0.229	-0.311
-452.968	-108.153	-0.272	0.077
-451.953	590.774	-0.122	-0.396
-450.938	-112.522	0.224	0.058
-449.924	167.808	0.041	0.076
-448.909	450.960	-0.019	-0.055
-447.895	-200.000	-0.050	-0.592
-446.880	-11.421	0.205	0.177
-445.865	23.144	0.216	-0.233
-444.851	-73.310	0.154	-0.074
-443.836	256.297	0.097	0.219
-442.822	-200.000	0.024	-0.232
-441.807	-58.342	-0.063	0.036
-440.792	-50.582	-0.668	-0.412
-439.778	-91.908	0.568	0.210
-438.763	-149.044	0.171	-0.018
-437.749	-56.487	0.280	-0.162
-436.734	-81.915	-0.269	0.115
-435.719	460.665	-0.040	0.118
-434.705	-200.000	0.010	-0.113
-433.690	-74.891	-0.226	0.106
-432.676	-200.000	0.028	0.170
-431.661	-32.772	0.344	0.250
-430.646	-30.338	0.158	0.117
-429.632	-60.144	0.367	0.205
-428.617	361.194	0.017	-0.045
-427.603	-160.533	-0.259	-0.018
-426.588	236.631	-0.092	0.199
-425.573	647.006	-0.039	0.132
-424.559	-120.407	-0.350	0.077
-423.544	111.909	0.246	0.390
-422.530	-88.447	0.236	0.092
-421.515	-31.260	-0.344	0.253
-420.500	-79.433	-0.392	-0.173
-419.486	-7.486	0.089	0.079
-418.471	-166.076	0.150	0.008
-417.457	-29.820	0.121	-0.090
-416.442	161.658	0.289	-0.531
-415.428	-84.619	0.249	-0.102
-414.413	-200.000	0.079	0.655
-413.398	212.648	0.066	-0.137
-412.384	57.159	0.119	-0.152
-411.369	-200.000	-0.029	0.202
-410.355	-110.923	0.354	0.095
-409.340	-200.000	-0.040	-0.249
-408.325	42.990	0.234	-0.279
-407.311	-74.371	0.331	-0.156
-406.296	221.059	-0.132	-0.278
-405.282	117.256	-0.081	-0.130
-404.267	-44.690	-0.092	0.060
-403.252	37.826	-0.069	0.080
-402.238	159.308	-0.122	0.222
-401.223	-160.365	-0.317	-0.022
-400.209	65.709	0.262	-0.349
-399.194	-85.558	-0.111	0.045
-398.179	-200.000	0.106	-0.671
-397.165	-61.781	0.325	-0.178
-396.150	65.273	0.227	-0.301
-395.136	-12.030	-0.406	0.348
-394.121	128.155	-0.110	-0.183
-393.106	337.703	0.106	-0.271
-392.092	-83.412	-0.451	-0.188
-391.077	800.000	0.103	0.411
-390.063	-200.000	-0.010	0.404
-389.048	800.000	0.050	0.269
-388.033	2.219	0.246	-0.233
-387.019	3.742	-0.123	-0.118
-386.004	83.053	0.362	0.517
-384.990	-166.425	0.502	-0.027
-383.975	-191.930	0.382	0.005
-382.960	-125.490	-0.454	-0.090
-381.946	-200.000	0.008	0.311
-380.931	237.330	0.046	0.099
-379.917	-200.000	0.002	-0.035
-378.902	15.741	-0.076	-0.078
-377.888	315.564	-0.163	0.404
-376.873	-97.055	-0.186	0.063
-375.858	-151.349	-0.337	-0.032
-374.844	32.464	-0.245	0.277
-373.829	800.000	0.134	-0.530
-372.815	-200.000	-0.044	0.381
-371.800	27.300	-0.184	-0.202
-370.785	-138.658	-0.393	0.056
-369.771	-200.000	0.010	0.098
-368.756	-125.635	0.237	-0.047
-367.742	-84.752	-0.232	-0.095
-366.727	800.000	0.054	-0.299
-365.712	-78.851	0.473	0.210
-364.698	-126.537	-0.411	-0.079
-363.683	-85.762	0.497	-0.201
-362.669	195.108	-0.099	0.198
-361.654	-200.000	-0.019	0.261
-360.639	70.863	0.143	0.194
-359.625	-91.322	-0.088	0.033
-358.610	-60.035	-0.386	0.215
-357.596	-200.000	-0.039	0.267
-356.581	-9.230	0.306	0.267
-355.566	231.453	-0.133	0.285
-354.552	34.729	-0.201	0.229
-353.537	-200.000	0.011	-0.229
-352.523	800.000	0.103	-0.423
-351.508	-200.000	0.021	-0.455
-350.493	410.817	0.176	-0.490
-349.479	800.000	0.073	0.406
-348.464	-136.414	-0.133	-0.020
-347.450	0.400	-0.236	0.220
-346.435	-115.112	0.055	-0.013
-345.420	-60.821	-0.174	-0.096
-344.406	-200.000	-0.004	0.259
-343.391	83.343	-0.071	-0.101
-342.377	-32.659	0.311	0.226
-341.362	-122.917	-0.256	-0.053
-340.348	-158.825	-0.337	-0.025
-339.333	-69.122	0.307	-0.154
-338.318	150.308	-0.181	0.321
-337.304	41.609	-0.179	0.211
-336.289	-132.218	-0.655	0.110
-335.275	800.000	-0.060	-0.304
-334.260	115.952	0.043	-0.068
-333.245	800.000	0.088	-0.465
-332.231	-57.914	-0.302	0.172
-331.216	-121.606	-0.441	-0.095
-330.202	800.000	0.057	0.287
-329.187	189.514	0.046	-0.091
-328.172	377.075	-0.043	-0.114
-327.158	14.051	0.125	-0.127
-326.143	453.564	-0.019	-0.054
-325.129	137.726	-0.174	0.298
-324.114	492.343	-0.139	0.417
-323.099	141.545	0.135	0.234
-322.085	-76.933	-0.316	0.144
-321.070	-33.678	-0.136	0.097
-320.056	-71.489	-0.436	-0.212
-319.041	-60.874	-0.208	-0.115
-318.026	-115.274	-0.055	0.013
-317.012	273.409	-0.118	-0.274
-315.997	334.359	-0.046	-0.116
-314.983	226.693	-0.264	0.561
-313.968	-60.506	0.604	-0.334
-312.953	-57.217	0.095	0.055
-311.939	59.452	0.263	0.339
-310.924	-110.840	-0.340	0.091
-309.910	-149.183	0.281	0.029
-308.895	800.000	0.121	0.500
-307.880	-71.578	-0.511	0.248
-306.866	-118.335	0.363	-0.083
-305.851	-110.495	-0.316	0.085
-304.837	382.682	-0.044	-0.118
-303.822	-200.000	0.013	-0.401
-302.807	800.000	0.100	0.490
-301.793	800.000	0.042	-0.203
-300.778	-15.081	0.747	-0.623
-299.764	-74.506	0.139	-0.065
-298.749	-103.159	-0.220	-0.067
-297.735	800.000	0.036	-0.143
-296.720	-200.000	-0.053	0.375
-295.705	-109.888	0.221	0.060
-294.691	-102.896	0.219	-0.067
-293.676	-200.000	-0.001	-0.066
-292.662	164.483	-0.160	0.295
-291.647	-17.203	0.189	-0.155
-290.632	-200.000	0.042	-0.302
-289.618	190.376	-0.140	0.274
-288.603	31.792	-0.143	0.160
-287.589	-10.761	0.278	0.239
-286.574	-147.137	-0.183	-0.020
-285.559	800.000	-0.208	-0.760
-284.545	350.470	0.061	-0.158
-283.530	-166.729	-0.405	-0.022
-282.516	-105.162	0.621	-0.184
-281.501	339.705	0.150	-0.383
-280.486	794.263	-0.032	-0.114
-279.472	-87.731	0.232	0.091
-278.457	101.591	0.203	-0.309
-277.443	-145.814	0.432	0.050
-276.428	-66.835	-0.687	0.353
-275.413	415.594	-0.106	0.297
-274.399	121.592	-0.233	0.380
-273.384	-120.920	-0.159	0.035
-272.370	800.000	-0.064	0.297
-271.355	-30.683	0.347	0.255
-270.340	42.706	0.211	-0.251
-269.326	-161.303	0.098	-0.007
-268.311	-56.663	0.221	0.127
-267.297	-107.739	0.281	0.079
-266.282	-200.000	-0.032	0.369
-265.267	66.497	0.290	-0.384
-264.253	-191.879	0.594	0.007
-263.238	-99.221	-0.124	0.041
-262.224	-52.260	-0.345	-0.208
-261.209	27.154	-0.019	0.021
-260.195	800.000	0.052	-0.191
-259.180	339.141	-0.187	-0.476
-258.165	295.121	0.126	-0.302
-257.151	47.572	-0.167	0.203
-256.136	-200.000	-0.014	-0.354
-255.122	800.000	0.092	-0.350
-254.107	413.829	-0.090	0.250
-253.092	-67.877	-0.478	-0.242
-252.078	28.737	-0.098	0.109
-251.063	-87.672	-0.138	-0.054
-250.049	-153.821	-0.185	0.016
-249.034	800.000	0.077	0.403
-248.019	38.383	0.184	-0.214
-247.005	149.940	-0.206	-0.365
-245.990	-18.363	-0.621	-0.505
-244.976	-163.805	-0.328	-0.020
-243.961	379.401	-0.074	0.199
-242.946	94.946	0.107	-0.159
-241.932	-85.300	0.071	-0.029
-240.917	-150.179	-0.186	-0.019
-239.903	-139.845	-0.281	0.038
-238.888	-114.218	0.375	0.094
-237.873	-57.551	0.413	-0.235
-236.859	183.533	0.129	-0.249
-235.844	-200.000	-0.012	-0.314
-234.830	-134.301	-0.080	0.013
-233.815	35.618	0.236	0.270
-232.800	-121.531	0.349	0.075
-231.786	33.046	-0.180	0.203
-230.771	38.824	-0.102	0.119
-229.757	-123.555	0.446	-0.091
-228.742	115.770	0.136	0.217
-227.727	634.709	0.097	0.322
-226.713	-7.752	0.131	0.115
-225.698	211.329	0.070	0.144
-224.684	-88.680	0.211	0.081
-223.669	118.353	0.262	0.422
-222.655	-123.373	-0.366	0.075
-221.640	800.000	0.037	-0.174
-220.625	800.000	0.080	-0.373
-219.611	-102.513	-0.453	0.140
-218.596	179.935	0.257	-0.491
-217.582	286.212	0.141	0.333
-216.567	-102.171	0.314	0.098
-215.552	-87.720	-0.285	-0.111
-214.538	-154.903	0.424	0.036
-213.523	-37.156	0.298	0.207
-212.509	192.886	-0.132	0.260
-211.494	-200.000	-0.029	0.239
-210.479	279.034	0.141	0.329
-209.465	107.932	-0.106	-0.165
-208.450	-55.465	-0.117	-0.068
-207.436	-26.309	0.486	-0.370
-206.421	47.508	-0.332	-0.403
-205.406	127.874	-0.126	0.208
-204.392	-15.285	0.388	0.322
-203.377	19.153	-0.250	-0.260
-202.363	79.021	0.149	-0.208
-201.348	-156.024	-0.067	-0.005
-200.333	41.454	0.150	-0.177
-199.319	-68.037	-0.164	0.083
-198.304	-128.468	-0.389	-0.071
-197.290	-200.000	-0.067	-0.445
-196.275	15.822	-0.361	-0.369
-195.260	-74.652	0.573	-0.267
-194.246	-128.265	-0.214	-0.039
-193.231	-71.643	-0.313	-0.151
-192.217	41.235	-0.166	0.195
-191.202	-200.000	0.039	0.532
-190.187	-131.114	0.683	0.117
-189.173	-22.090	0.189	-0.149
-188.158	-200.000	-0.016	-0.324
-187.144	-200.000	0.014	-0.336
-186.129	-200.000	-0.049	0.332
-185.114	-88.423	0.119	-0.046
-184.100	-117.679	-0.576	-0.134
-183.085	-87.792	-0.074	-0.029
-182.071	-46.049	0.256	0.163
-181.056	-58.341	-0.337	-0.190
-180.042	369.656	0.157	0.415
-179.027	112.058	0.254	-0.400
-178.012	64.883	-0.117	0.153
-176.998	-175.235	-0.234	-0.008
-175.983	335.690	-0.082	0.208
-174.969	-36.362	-0.349	0.244
-173.954	-4.470	-0.195	-0.175
-172.939	-163.451	0.496	-0.030
-171.925	-200.000	-0.019	0.480
-170.910	-92.002	-0.772	0.282
-169.896	28.846	-0.325	-0.358
-168.881	-93.859	0.458	0.163
-167.866	-100.876	-0.111	0.035
-166.852	-3.158	-0.169	-0.153
-165.837	-200.000	0.055	-0.363
-164.823	-66.828	-0.156	0.080
-163.808	-18.437	-0.253	-0.204
-162.793	-200.000	0.059	-0.369
-161.779	73.822	0.280	-0.381
-160.764	136.347	0.230	-0.391
-159.750	-121.857	-0.526	0.112
-158.735	15.002	-0.217	0.221
-157.720	800.000	0.083	-0.364
-156.706	-86.750	-0.196	-0.077
-155.691	-43.785	0.173	0.112
-154.677	-200.000	0.002	-0.131
-153.662	44.990	-0.306	-0.366
-152.647	310.393	-0.055	0.135
-151.633	-115.657	0.347	0.084
-150.618	-76.291	0.080	0.036
-149.604	-90.637	-0.356	0.133
-148.589	-16.890	-0.093	-0.076
-147.574	-197.040	-0.681	-0.006
-146.560	215.117	-0.099	0.204
-145.545	-56.157	-0.213	-0.123
-144.531	800.000	0.023	-0.094
-143.516	86.590	0.135	-0.193
-142.502	-26.008	0.131	-0.100
-141.487	-9.764	-0.305	0.263
-140.472	-25.758	0.189	-0.144
-139.458	353.796	-0.089	0.230
-138.443	696.557	0.050	-0.170
-137.429	-55.743	0.481	-0.278
-136.414	-5.041	0.204	-0.182
-135.399	-93.179	0.245	0.088
-134.385	-113.666	-0.279	0.070
-133.370	47.271	-0.179	-0.217
-132.356	375.053	0.042	0.111
-131.341	251.636	-0.099	0.220
-130.326	-93.834	-0.170	0.060
-129.312	-170.981	0.416	-0.018
-128.297	-140.461	0.326	-0.043
-127.283	-133.025	0.079	-0.013
-126.268	-122.711	0.153	0.032
-125.253	-20.169	-0.181	-0.144
-124.239	122.267	-0.122	0.198
-123.224	-200.000	0.018	-0.591
-122.210	800.000	0.039	-0.173
-121.195	101.926	0.300	-0.455
-120.180	-146.301	-0.290	0.033
-119.166	-133.896	-0.094	0.015
-118.151	-200.000	0.080	-0.517
-117.137	-28.814	-0.415	-0.308
-116.122	-200.000	-0.017	-0.132
-115.107	-164.415	0.372	-0.022
-114.093	73.059	-0.030	0.041
-113.078	414.329	0.106	0.293
-112.064	25.365	-0.402	-0.433
-111.049	-104.049	0.373	0.112
-110.034	28.071	-0.377	0.412
-109.020	166.001	0.161	-0.295
-108.005	180.955	-0.123	0.235
-106.991	-68.847	-0.727	0.362
-105.976	-200.000	-0.053	-0.378
-104.962	145.785	0.063	0.110
-103.947	-165.089	-0.657	0.037
-102.932	-17.664	0.111	-0.090
-101.918	-200.000	-0.059	-0.359
-100.903	-83.204	-0.265	-0.110
-99.889	-154.513	0.247	-0.021
-98.874	-97.513	0.414	0.138
-97.859	-75.938	0.310	-0.141
-96.845	49.224	-0.155	0.189
-95.830	-77.992	0.112	-0.050
-94.816	4.784	0.322	-0.306
-93.801	-200.000	0.001	0.272
-92.786	171.640	0.097	-0.180
-91.772	278.131	-0.215	-0.498
-90.757	-105.936	0.399	0.116
-89.743	-46.699	0.126	-0.080
-88.728	-200.000	0.053	0.563
-87.713	-189.248	-0.439	0.007
-86.699	274.005	0.107	-0.246
-85.684	-2.645	0.320	0.289
-84.670	-186.535	-0.427	-0.008
-83.655	-132.191	0.208	0.035
-82.640	800.000	0.107	-0.450
-81.626	258.876	-0.149	-0.334
-80.611	-200.000	-0.076	-0.606
-79.597	-57.770	-0.147	-0.083
-78.582	-175.861	0.438	0.015
-77.567	800.000	-0.189	0.687
-76.553	138.575	0.160	-0.273
-75.538	-200.000	-0.044	-0.529
-74.524	-90.911	0.144	-0.053
-73.509	-20.031	-0.087	-0.069
-72.494	-59.717	-0.470	0.260
-71.480	189.704	-0.114	0.221
-70.465	-128.436	-0.484	-0.088
-69.451	443.244	-0.031	0.087
-68.436	-48.466	-0.509	-0.316
-67.422	-81.825	0.276	-0.116
-66.407	-1.764	0.061	-0.056
-65.392	-56.484	-0.154	-0.088
-64.378	-200.000	0.001	0.264
-63.363	-200.000	0.014	0.427
-62.349	73.736	-0.138	0.187
-61.334	51.318	-2.196	-2.696
-60.319	-11.707	1.264	1.072
-59.305	323.763	-3.319	-8.220
-58.290	74.754	3.816	5.197
-57.276	459.510	3.745	10.827
-56.261	-200.000	22.435	313.059
-55.246	363.843	1287.635	3360.604
-54.232	53.847	2834.595	3521.383
-53.217	52.065	2658.870	3275.459
-52.203	32.426	2389.585	2667.302
-51.188	28.139	2055.370	2241.495
-50.173	24.569	1942.926	2077.136
-49.159	23.550	1930.670	2052.112
-48.144	23.204	1925.590	2042.616
-47.130	23.140	1923.699	2039.785
-46.115	23.027	1922.238	2036.848
-45.100	23.005	1921.052	2035.254
-44.086	23.110	1918.714	2033.915
-43.071	23.047	1917.561	2031.879
-42.057	23.011	1917.018	2030.806
-41.042	22.978	1915.393	2028.621
-40.027	22.972	1913.704	2026.684
-39.013	23.051	1911.914	2025.621
-37.998	23.059	1910.567	2024.202
-36.984	22.964	1910.312	2022.759
-35.969	23.037	1908.284	2021.373
-34.954	22.829	1908.238	2018.851
-33.940	22.927	1905.900	2017.421
-32.925	22.930	1904.189	2015.563
-31.911	22.952	1902.523	2013.973
-30.896	22.964	1901.550	2013.002
-29.881	22.889	1900.778	2011.243
-28.867	22.958	1898.506	2009.548
-27.852	22.861	1898.182	2008.016
-26.838	22.778	1896.571	2005.289
-25.823	22.787	1895.246	2003.912
-24.809	22.939	1893.260	2003.460
-23.794	22.741	1893.622	2001.508
-22.779	22.897	1891.291	2000.747
-21.765	22.865	1889.679	1998.601
-20.750	22.838	1889.091	1997.591
-19.736	22.593	1888.574	1994.178
-18.721	22.853	1885.978	1994.303
-17.706	22.800	1885.323	1992.929
-16.692	22.718	1884.102	1990.632
-15.677	22.704	1882.958	1989.187
-14.663	22.657	1882.046	1987.610
-13.648	22.718	1879.782	1985.830
-12.633	22.607	1879.400	1984.090
-11.619	22.768	1877.535	1983.871
-10.604	22.802	1876.092	1982.647
-9.590	22.686	1875.424	1980.556
-8.575	22.656	1874.441	1979.102
-7.560	22.706	1872.437	1977.462
-6.546	22.647	1871.987	1976.252
-5.531	22.648	1870.136	1974.229
-4.517	22.583	1868.740	1971.945
-3.502	22.716	1868.390	1972.996
-2.487	22.772	1867.479	1972.577
-1.473	22.820	1863.824	1969.183
-0.458	22.619	1845.867	1947.902
0.556	19.631	1992.127	2054.287
1.571	18.508	2197.514	2251.008
2.586	19.443	2235.181	2301.856
3.600	19.377	2239.102	2304.735
4.615	19.493	2237.482	2304.348
5.629	19.431	2236.409	2302.133
6.644	19.339	2234.833	2299.002
7.659	19.427	2232.273	2297.275
8.673	19.374	2230.571	2294.531
9.688	19.302	2237.501	2300.428
10.702	18.190	2318.310	2367.756
11.717	16.518	2382.885	2409.484
12.731	8.074	2361.721	2267.479
13.746	1.282	2343.076	2152.714
14.761	0.290	2339.299	2134.869
15.775	0.183	2337.474	2131.424
16.790	0.098	2335.466	2128.125
17.804	0.082	2334.848	2127.084
18.819	0.058	2334.003	2125.718
19.834	0.052	2331.885	2123.452
20.848	0.056	2330.907	2122.352
21.863	0.035	2330.052	2121.023
22.877	0.010	2327.933	2118.494
23.892	0.101	2324.775	2116.646
24.907	0.089	2322.638	2114.277
25.921	-0.044	2321.663	2111.263
26.936	-0.019	2318.795	2108.761
27.950	0.056	2315.693	2106.733
28.965	0.090	2314.496	2105.878
29.980	0.027	2312.952	2103.328
30.994	0.149	2310.375	2102.451
32.009	4.119	2322.575	2169.257
33.023	14.064	2353.204	2338.838
34.038	18.724	2360.570	2411.830
35.053	19.153	2358.322	2415.289
36.067	19.479	2357.034	2418.273
37.082	19.374	2355.187	2414.613
38.096	19.196	2353.494	2410.090
39.111	19.381	2351.202	2410.050
40.126	19.533	2349.160	2409.799
41.140	19.707	2347.732	2410.489
42.155	19.394	2346.176	2404.213
43.169	19.331	2343.801	2400.607
44.184	19.435	2340.941	2398.846
45.199	19.375	2339.169	2395.910
46.213	19.347	2338.852	2394.903
47.228	19.249	2338.123	2392.501
48.242	19.395	2335.720	2391.795
49.257	19.585	2333.183	2391.551
50.271	19.519	2330.389	2387.490
51.286	19.378	2328.796	2383.614
52.301	19.278	2326.476	2379.566
53.315	19.252	2327.560	2380.029
54.330	20.389	2329.322	2397.336
55.344	21.174	2327.238	2405.773
56.359	21.131	2324.025	2401.573
57.374	21.220	2323.322	2401.789
58.388	21.280	2320.661	2399.575
59.403	21.336	2317.802	2397.105
60.417	21.226	2315.461	2392.882
61.432	21.385	2312.971	2392.207
62.447	21.497	2312.686	2393.170
63.461	21.646	2310.829	2393.014
64.476	21.753	2307.395	2390.639
65.490	21.495	2307.217	2386.630
66.505	21.316	2304.842	2381.429
67.520	20.396	2301.201	2364.795
68.534	19.543	2295.475	2346.989
69.549	19.482	2291.022	2341.315
70.563	19.519	2290.353	2340.851
71.578	19.577	2288.438	2339.404
72.593	19.561	2286.674	2337.102
73.607	19.591	2285.993	2336.539
74.622	19.516	2283.565	2332.766
75.636	19.485	2280.070	2328.496
76.651	19.467	2279.602	2327.496
77.666	19.645	2277.929	2327.912
78.680	19.704	2275.972	2326.437
79.695	19.840	2273.128	2325.080
80.709	19.744	2272.463	2322.835
81.724	19.732	2270.586	2320.478
82.739	19.683	2267.505	2316.381
83.753	19.567	2265.695	2312.693
84.768	19.527	2263.354	2309.487
85.782	19.409	2262.558	2306.816
86.797	19.400	2260.372	2304.193
87.812	19.532	2257.781	2303.045
88.826	19.596	2255.293	2301.085
89.841	19.713	2252.408	2299.440
90.855	19.640	2251.443	2297.199
91.870	19.507	2249.679	2293.355
92.884	19.491	2248.360	2291.514
93.899	19.464	2245.825	2288.294
94.914	19.601	2247.846	2291.909
95.928	20.434	2250.178	2305.129
96.943	20.897	2247.359	2308.138
97.957	20.063	2241.693	2290.952
98.972	19.526	2238.357	2280.152
99.987	19.384	2235.538	2275.125
101.001	19.424	2233.070	2272.868
102.016	19.439	2231.582	2271.278
103.030	19.395	2229.686	2268.488
104.045	19.575	2227.725	2268.607
105.060	19.690	2226.023	2268.110
106.074	19.595	2223.642	2264.172
107.089	19.554	2221.768	2261.448
108.103	19.592	2221.798	2261.708
109.118	19.613	2219.637	2259.520
110.133	19.695	2219.053	2259.724
111.147	19.749	2216.069	2257.123
112.162	19.696	2214.991	2255.070
113.176	19.650	2212.158	2251.307
114.191	19.550	2209.979	2247.517
115.206	19.571	2207.764	2245.258
116.220	19.529	2206.434	2243.098
117.235	19.495	2204.128	2240.043
118.249	19.343	2201.877	2235.496
119.264	19.532	2201.104	2236.913
120.279	19.644	2200.047	2237.022
121.293	19.518	2198.154	2233.198
122.308	19.469	2196.054	2230.162
123.322	19.424	2195.293	2228.540
124.337	19.743	2194.217	2231.314
125.352	20.767	2196.354	2246.514
126.366	20.921	2194.866	2246.713
127.381	19.848	2189.174	2226.742
128.395	19.349	2185.876	2216.676
129.410	19.454	2183.376	2215.236
130.424	19.446	2182.507	2213.987
131.439	19.395	2180.499	2211.025
132.454	19.354	2178.173	2207.872
133.468	19.358	2176.115	2205.579
134.483	19.390	2174.324	2203.908
135.497	19.443	2173.840	2203.833
136.512	19.451	2171.239	2201.035
137.527	19.616	2168.430	2200.028
138.541	19.496	2168.387	2198.188
139.556	19.446	2166.866	2195.750
140.570	19.468	2166.319	2195.205
141.585	19.440	2163.917	2192.152
142.600	19.524	2161.901	2190.923
143.614	19.491	2160.223	2188.538
144.629	19.330	2159.884	2185.881
145.643	19.385	2157.865	2184.282
146.658	19.490	2155.940	2183.400
147.673	19.572	2154.121	2182.340
148.687	19.596	2153.287	2181.534
149.702	19.712	2151.933	2181.373
150.716	19.428	2151.051	2176.623
151.731	19.439	2150.110	2175.551
152.746	19.624	2148.058	2175.557
153.760	19.672	2148.785	2176.637
154.775	20.643	2150.056	2189.952
155.789	20.745	2148.040	2188.934
156.804	19.831	2142.495	2171.492
157.819	19.366	2139.187	2162.024
158.833	19.548	2136.065	2160.899
159.848	19.572	2135.108	2159.966
160.862	19.635	2132.531	2157.891
161.877	19.582	2131.397	2155.831
162.892	19.600	2131.000	2155.389
163.906	19.683	2129.336	2154.495
164.921	19.658	2127.718	2152.285
165.935	19.659	2125.040	2149.328
166.950	19.659	2122.996	2147.010
167.964	19.431	2121.444	2142.327
168.979	19.452	2119.025	2139.895
169.994	19.540	2117.264	2138.957
171.008	19.587	2116.258	2138.272
172.023	19.585	2114.824	2136.534
173.037	19.607	2113.728	2135.448
174.052	19.399	2112.290	2131.156
175.067	19.411	2110.205	2128.944
176.081	19.539	2108.861	2128.920
177.096	19.493	2107.693	2126.924
178.110	19.461	2105.937	2124.502
179.125	19.466	2105.257	2123.617
180.140	19.534	2103.562	2122.502
181.154	19.691	2101.738	2122.339
182.169	19.453	2099.734	2117.128
183.183	19.495	2100.113	2117.779
184.198	20.510	2101.673	2131.609
185.213	20.835	2100.705	2134.381
186.227	19.858	2096.867	2118.209
187.242	19.580	2093.300	2110.935
188.256	19.487	2092.402	2108.638
189.271	19.712	2090.593	2109.325
190.286	19.694	2089.230	2107.468
191.300	19.621	2086.750	2103.823
192.315	19.524	2084.577	2100.198
193.329	19.565	2082.983	2098.842
194.344	19.773	2081.927	2100.062
195.359	19.662	2081.381	2097.912
196.373	19.646	2077.990	2094.044
197.388	19.503	2076.157	2090.201
198.402	19.426	2074.042	2086.895
199.417	19.422	2072.317	2084.854
200.432	19.506	2071.197	2084.495
201.446	19.650	2070.174	2084.967
202.461	19.573	2068.012	2081.602
203.475	19.578	2065.855	2079.249
204.490	19.598	2065.045	2078.427
205.504	19.543	2061.911	2074.357
206.519	19.468	2060.450	2071.734
207.534	19.427	2057.798	2068.327
208.548	19.460	2057.256	2067.926
209.563	19.427	2056.191	2066.210
210.577	19.567	2054.453	2065.912
211.592	19.565	2054.348	2065.527
212.607	20.062	2055.452	2072.363
213.621	21.022	2058.061	2086.301
214.636	20.730	2052.789	2077.202
215.650	19.612	2048.449	2059.171
216.665	19.583	2046.814	2056.934
217.680	19.631	2045.975	2056.427
218.694	19.641	2044.054	2054.365
219.709	19.661	2043.177	2053.473
220.723	19.764	2041.051	2052.321
221.738	19.711	2039.134	2049.515
222.753	19.406	2037.381	2043.876
223.767	19.479	2035.903	2043.018
224.782	19.483	2033.611	2040.523
225.796	19.522	2032.371	2039.497
226.811	19.636	2030.845	2039.073
227.826	19.661	2030.264	2038.543
228.840	19.686	2028.521	2036.847
229.855	19.657	2027.153	2034.881
230.869	19.827	2025.823	2035.321
231.884	19.653	2023.767	2030.956
232.899	19.679	2021.705	2028.950
233.913	19.512	2020.919	2025.945
234.928	19.530	2019.781	2024.775
235.942	19.613	2018.015	2023.741
236.957	19.605	2015.810	2021.188
237.972	19.608	2014.952	2020.126
238.986	19.716	2014.265	2020.459
240.001	19.766	2012.788	2019.323
241.015	19.595	2010.820	2015.104
242.030	19.723	2010.476	2016.019
243.045	20.535	2011.914	2026.743
244.059	20.614	2009.306	2024.797
245.074	19.812	2005.079	2010.924
246.088	19.648	2001.643	2005.325
247.103	19.549	2000.016	2002.307
248.117	19.643	1999.057	2002.199
249.132	19.654	1997.290	2000.314
250.147	19.531	1996.016	1997.365
251.161	19.490	1994.652	1995.294
252.176	19.549	1992.880	1993.960
253.190	19.807	1991.361	1995.194
254.205	19.843	1989.215	1993.219
255.220	19.802	1988.368	1991.666
256.234	19.839	1987.665	1991.141
257.249	19.715	1986.534	1988.337
258.263	19.806	1984.792	1987.411
259.278	19.743	1983.277	1984.930
260.293	19.680	1981.871	1982.556
261.307	19.588	1980.165	1979.550
262.322	19.611	1978.284	1977.697
263.336	19.566	1976.416	1975.076
264.351	19.557	1974.689	1973.015
265.366	19.617	1973.009	1971.785
266.380	19.499	1972.964	1970.148
267.395	19.503	1971.404	1968.403
268.409	19.580	1968.942	1966.590
269.424	19.580	1968.532	1965.943
270.439	19.588	1968.176	1965.454
271.453	19.811	1967.319	1966.901
272.468	20.612	1967.760	1976.267
273.482	20.716	1964.902	1974.339
274.497	19.821	1960.113	1959.108
275.512	19.541	1957.664	1953.246
276.526	19.755	1955.592	1953.377
277.541	19.633	1953.590	1949.755
278.555	19.541	1952.836	1947.728
279.570	19.516	1950.722	1945.105
280.585	19.392	1949.597	1942.347
281.599	19.519	1948.369	1942.327
282.614	19.810	1946.864	1943.877
283.628	19.793	1946.006	1942.605
284.643	19.820	1944.819	1941.488
285.657	19.875	1944.443	1941.504
286.672	19.869	1942.643	1939.399
287.687	19.729	1941.512	1936.460
288.701	19.836	1939.296	1935.222
289.716	19.643	1938.232	1931.767
290.730	19.600	1936.033	1928.853
291.745	19.668	1934.666	1928.033
292.760	19.672	1932.990	1926.172
293.774	19.510	1932.510	1923.647
294.789	19.662	1932.145	1924.752
295.803	19.560	1929.593	1920.844
296.818	19.599	1928.061	1919.525
297.833	19.634	1926.441	1918.070
298.847	19.568	1925.589	1916.258
299.862	19.553	1923.709	1913.989
300.876	19.681	1923.405	1914.884
301.891	20.602	1924.797	1926.299
302.906	20.953	1924.224	1929.406
303.920	20.050	1919.712	1914.621
304.935	19.592	1917.103	1906.710
305.949	19.451	1914.665	1902.490
306.964	19.552	1912.860	1901.590
307.979	19.708	1911.670	1901.911
308.993	19.662	1910.278	1899.786
310.008	19.579	1909.038	1897.411
311.022	19.839	1907.497	1898.519
312.037	19.842	1906.430	1897.259
313.052	19.840	1903.523	1894.116
314.066	19.665	1902.326	1890.773
315.081	19.675	1901.632	1889.972
316.095	19.672	1900.524	1888.613
317.110	19.687	1899.394	1887.429
318.125	19.700	1897.498	1885.456
319.139	19.797	1896.249	1885.054
320.154	19.970	1893.850	1884.341
321.168	19.834	1892.948	1881.729
322.183	19.915	1892.718	1882.158
323.197	19.769	1890.351	1877.984
324.212	19.652	1887.542	1873.693
325.227	19.511	1885.804	1870.211
326.241	19.578	1884.373	1869.292
327.256	19.776	1883.243	1870.109
328.270	19.720	1882.827	1868.863
329.285	19.761	1882.705	1868.958
330.300	19.960	1884.168	1872.348
331.314	20.962	1884.671	1883.517
332.329	20.893	1880.865	1878.740
333.343	19.832	1876.974	1863.149
334.358	19.772	1875.106	1860.417
335.373	19.659	1873.564	1857.448
336.387	19.666	1871.643	1855.396
337.402	19.623	1870.797	1853.874
338.416	19.704	1867.597	1851.345
339.431	19.582	1867.316	1849.541
340.446	19.817	1865.426	1849.970
341.460	19.858	1863.784	1848.557
342.475	19.948	1862.546	1848.076
343.489	19.915	1861.364	1846.326
344.504	19.775	1860.963	1844.208
345.519	19.878	1858.995	1843.146
346.533	19.924	1856.318	1840.754
347.548	19.921	1855.550	1839.743
348.562	19.781	1855.769	1838.248
349.577	19.760	1854.229	1836.280
350.592	19.748	1852.423	1834.144
351.606	19.649	1851.570	1832.019
352.621	19.642	1848.604	1828.796
353.635	19.573	1847.716	1826.957
354.650	19.550	1846.276	1825.077
355.665	19.595	1844.187	1823.269
356.679	19.559	1842.563	1821.060
357.694	19.544	1841.732	1819.859
358.708	19.672	1840.474	1819.761
359.723	20.102	1841.294	1824.898
360.738	21.031	1842.582	1835.798
361.752	20.602	1840.494	1828.959
362.767	19.757	1835.537	1814.901
363.781	19.544	1833.455	1810.382
364.796	19.628	1831.701	1809.322
365.810	19.362	1831.390	1805.993
366.825	19.350	1830.787	1805.062
367.840	19.536	1828.475	1804.512
368.854	19.679	1826.501	1803.858
369.869	19.443	1825.722	1800.390
370.883	19.402	1824.152	1798.197
371.898	19.468	1823.066	1797.603
372.913	19.569	1822.363	1797.749
373.927	19.654	1822.156	1798.221
374.942	19.733	1821.128	1797.825
375.956	19.764	1819.121	1795.949
376.971	19.578	1816.670	1791.369
377.986	19.449	1813.925	1787.105
379.000	19.535	1812.878	1786.758
380.015	19.848	1811.634	1788.574
381.029	19.680	1811.429	1786.410
382.044	19.806	1809.395	1785.501
383.059	19.750	1807.752	1783.080
384.073	19.629	1807.132	1780.999
385.088	19.704	1805.347	1779.811
386.102	19.560	1803.680	1776.456
387.117	19.510	1801.144	1773.239
388.132	19.386	1801.692	1772.281
389.146	19.831	1803.675	1778.613
390.161	20.843	1803.495	1788.682
391.175	20.778	1798.187	1782.528
392.190	19.677	1793.602	1766.465
393.205	19.333	1791.890	1761.041
394.219	19.512	1790.485	1761.283
395.234	19.539	1789.187	1760.071
396.248	19.614	1786.774	1758.260
397.263	19.543	1784.446	1755.031
398.278	19.343	1783.547	1751.893
399.292	19.506	1782.376	1752.194
400.307	19.864	1781.754	1755.022
401.321	19.760	1781.171	1753.182
402.336	19.744	1779.688	1751.347
403.350	19.612	1778.511	1748.635
404.365	19.986	1776.756	1750.501
405.380	20.087	1776.259	1750.825
406.394	20.085	1775.979	1750.324
407.409	20.128	1773.453	1748.059
408.423	20.015	1771.559	1744.835
409.438	19.871	1769.819	1741.465
410.453	19.751	1769.922	1740.140
411.467	19.727	1768.252	1738.048
412.482	19.682	1766.854	1736.008
413.496	19.670	1765.902	1734.748
414.511	19.769	1763.137	1732.820
415.526	19.719	1760.585	1729.598
416.540	19.638	1759.326	1727.345
417.555	19.524	1758.924	1725.596
418.569	19.464	1758.450	1724.326
419.584	19.591	1758.105	1725.053
420.599	19.629	1759.103	1726.202
421.613	19.719	1757.962	1725.781
422.628	19.842	1756.237	1725.114
423.642	19.909	1754.574	1723.946
424.657	19.813	1753.387	1721.612
425.672	19.732	1751.672	1718.911
426.686	19.638	1749.223	1715.364
427.701	19.450	1748.874	1712.947
428.715	19.457	1746.898	1710.870
429.730	19.487	1745.336	1709.435
430.745	19.544	1744.193	1708.681
431.759	19.514	1742.962	1706.975
432.774	19.244	1742.178	1703.315
433.788	19.121	1740.867	1700.615
434.803	19.259	1739.521	1700.464
435.818	19.191	1739.636	1699.692
436.832	19.018	1738.948	1697.107
437.847	17.806	1730.772	1676.956
438.861	9.643	1708.498	1575.267
439.876	1.598	1693.938	1483.044
440.890	0.306	1690.900	1467.569
441.905	0.289	1689.088	1465.654
442.920	0.124	1688.679	1463.514
443.934	0.143	1687.782	1462.745
444.949	0.130	1686.394	1461.241
445.963	0.165	1685.297	1460.451
446.978	0.134	1684.705	1459.463
447.993	0.266	1682.164	1458.369
449.007	0.186	1680.526	1456.001
450.022	0.128	1678.879	1453.840
451.036	0.147	1678.048	1453.126
452.051	0.621	1679.832	1459.103
453.066	7.562	1697.388	1542.105
454.080	16.354	1711.337	1640.786
455.095	18.494	1713.786	1663.830
456.109	18.684	1714.288	1665.972
457.124	18.803	1712.880	1665.571
458.139	18.863	1712.289	1665.383
459.153	18.604	1711.269	1661.666
460.168	18.762	1709.236	1661.033
461.182	18.867	1706.572	1659.263
462.197	18.886	1705.684	1658.384
463.212	19.009	1703.903	1657.649
464.226	18.849	1703.308	1655.313
465.241	18.830	1702.054	1653.712
466.255	18.878	1700.742	1652.707
467.270	18.956	1699.559	1652.111
468.285	18.973	1698.719	1651.266
469.299	18.896	1697.442	1649.087
470.314	18.926	1695.352	1647.144
471.328	18.787	1694.140	1644.429
472.343	18.784	1693.837	1643.912
473.358	18.822	1692.187	1642.477
474.372	18.913	1690.685	1641.702
475.387	18.928	1689.409	1640.403
476.401	18.862	1688.299	1638.498
477.416	18.755	1687.068	1636.080
478.430	18.792	1684.751	1633.990
479.445	18.831	1683.913	1633.357
480.460	18.966	1682.921	1633.486
481.474	18.876	1682.607	1632.135
482.489	18.830	1680.531	1629.488
483.503	18.831	1678.184	1627.019
484.518	18.751	1677.768	1625.663
485.533	18.795	1676.546	1624.704
486.547	18.739	1674.514	1622.009
487.562	18.691	1674.151	1621.003
488.576	18.776	1672.937	1620.440
489.591	18.759	1671.902	1619.085
490.606	18.914	1670.365	1618.872
491.620	18.942	1667.476	1616.144
492.635	18.740	1666.307	1612.908
493.649	18.796	1665.063	1612.041
494.664	18.773	1664.229	1610.825
495.679	18.775	1663.159	1609.615
496.693	18.862	1661.347	1608.483
497.708	18.896	1660.245	1607.549
498.722	18.717	1659.736	1605.176
499.737	18.774	1658.404	1604.232
500.752	18.862	1657.207	1603.710
501.766	18.928	1655.129	1602.119
502.781	18.855	1653.346	1599.523
503.795	18.997	1651.543	1598.913
504.810	18.823	1651.067	1596.631
505.825	18.749	1650.634	1595.337
506.839	18.842	1649.550	1594.962
507.854	18.837	1648.142	1593.362
508.868	18.810	1647.106	1591.922
509.883	18.780	1645.884	1590.275
510.898	18.748	1644.768	1588.707
511.912	18.717	1642.790	1586.311
512.927	18.679	1641.077	1584.119
513.941	18.700	1639.389	1582.494
514.956	18.761	1638.430	1581.948
515.971	18.775	1637.855	1581.333
516.985	18.747	1636.589	1579.656
518.000	18.753	1635.317	1578.300
519.014	18.821	1634.146	1577.608
520.029	18.790	1631.941	1575.000
521.043	18.747	1631.256	1573.753
522.058	18.790	1629.642	1572.406
523.073	18.743	1628.961	1571.127
524.087	18.639	1628.525	1569.565
525.102	18.705	1627.022	1568.532
526.116	18.943	1625.834	1569.385
527.131	19.017	1624.822	1568.903
528.146	18.899	1623.363	1566.221
529.160	18.721	1622.816	1563.881
530.175	18.809	1621.580	1563.302
531.189	18.746	1620.131	1561.141
532.204	18.686	1618.886	1559.213
533.219	18.767	1617.467	1558.397
534.233	18.869	1616.723	1558.417
535.248	18.902	1615.193	1557.057
536.262	18.705	1614.149	1554.071
537.277	18.777	1613.084	1553.518
538.292	18.734	1612.074	1551.967
539.306	18.761	1610.258	1550.278
540.321	18.798	1608.657	1548.884
541.335	18.839	1607.370	1547.834
542.350	18.829	1605.846	1546.089
543.365	18.723	1604.290	1543.450
544.379	18.747	1602.695	1541.949
545.394	18.830	1601.548	1541.408
546.408	18.795	1600.592	1539.992
547.423	18.798	1600.056	1539.312
548.438	18.832	1599.269	1538.683
549.452	18.803	1597.504	1536.535
550.467	18.876	1596.235	1535.791
551.481	18.763	1595.118	1533.515
552.496	18.714	1594.578	1532.377
553.511	18.646	1593.081	1530.142
554.525	18.682	1592.278	1529.512
555.540	18.810	1591.044	1529.286
556.554	18.747	1589.675	1527.227
557.569	18.647	1588.626	1525.145
558.583	18.670	1587.481	1524.065
559.598	18.848	1585.715	1523.771
560.613	18.689	1585.199	1521.677
561.627	18.632	1583.504	1519.365
562.642	18.611	1582.274	1517.808
563.656	18.668	1579.945	1515.905
564.671	18.656	1579.121	1514.825
565.686	18.523	1578.446	1512.817
566.700	18.739	1576.534	1512.719
567.715	18.576	1575.124	1509.741
568.729	18.686	1573.666	1509.133
569.744	18.803	1571.656	1508.062
570.759	18.758	1570.987	1506.835
571.773	18.665	1570.388	1505.266
572.788	18.546	1569.670	1503.348
573.802	18.466	1568.001	1500.864
574.817	18.716	1565.849	1500.823
575.832	18.803	1564.360	1499.982
576.846	18.605	1564.145	1497.851
577.861	18.821	1562.700	1498.188
578.875	18.751	1562.885	1497.573
579.890	18.734	1560.891	1495.328
580.905	18.635	1560.240	1493.659
581.919	18.675	1559.186	1492.823
582.934	18.701	1559.006	1492.697
583.948	18.757	1557.121	1491.210
584.963	18.676	1555.710	1488.966
585.978	18.759	1554.306	1488.171
586.992	18.759	1553.574	1487.290
588.007	18.742	1553.001	1486.420
589.021	18.846	1551.625	1485.828
590.036	18.698	1551.077	1483.836
591.051	18.776	1549.001	1482.354
592.065	18.640	1547.351	1479.416
593.080	18.566	1546.246	1477.546
594.094	18.737	1544.294	1476.975
595.109	18.793	1542.978	1476.030
596.123	18.706	1542.235	1474.386
597.138	18.702	1541.067	1473.056
598.153	18.738	1538.947	1471.172
599.167	18.842	1537.771	1470.765
600.182	18.673	1536.523	1467.942
601.196	18.622	1536.605	1467.404
602.211	18.861	1534.650	1467.413
603.226	18.674	1532.886	1463.948
604.240	18.663	1532.610	1463.413
605.255	18.651	1531.027	1461.623
606.269	18.718	1530.389	1461.416
607.284	18.688	1529.464	1460.100
608.299	18.704	1528.412	1459.062
609.313	18.589	1527.385	1456.921
610.328	18.674	1525.474	1455.649
611.342	18.595	1524.284	1453.667
612.357	18.623	1523.332	1452.824
613.372	18.856	1521.339	1452.726
614.386	18.758	1520.700	1451.114
615.401	18.592	1519.945	1448.804
616.415	18.568	1519.413	1447.924
617.430	18.556	1518.338	1446.623
618.445	18.727	1516.711	1446.351
619.459	18.567	1515.422	1443.596
620.474	18.494	1515.192	1442.587
621.488	18.692	1514.332	1443.262
622.503	18.723	1512.634	1441.738
623.518	18.601	1510.904	1438.883
624.532	18.546	1510.904	1438.249
625.547	18.597	1508.955	1436.653
626.561	18.606	1508.354	1435.979
627.576	18.527	1507.417	1434.259
628.591	18.562	1506.070	1433.099
629.605	18.609	1504.602	1431.923
630.620	18.615	1503.647	1430.895
631.634	18.687	1502.745	1430.464
632.649	18.649	1501.675	1428.954
633.663	18.499	1500.668	1426.572
634.678	18.622	1498.710	1425.573
635.693	18.571	1496.907	1423.262
636.707	18.637	1495.552	1422.348
637.722	18.597	1494.700	1421.037
638.736	18.647	1493.718	1420.344
639.751	18.687	1493.310	1420.121
640.766	18.733	1491.542	1418.651
641.780	18.579	1490.526	1416.241
642.795	18.648	1489.638	1415.795
643.809	18.798	1488.276	1415.579
644.824	18.700	1487.599	1413.956
645.839	18.686	1486.996	1413.098
646.853	18.719	1485.639	1411.912
647.868	18.620	1484.496	1409.832
648.882	18.800	1482.556	1409.307
649.897	18.840	1481.480	1408.447
650.912	18.621	1480.378	1405.427
651.926	18.630	1479.904	1404.882
652.941	18.654	1478.536	1403.612
653.955	18.799	1476.135	1402.357
654.970	18.753	1475.939	1401.624
655.985	18.602	1474.715	1399.059
656.999	18.837	1472.859	1399.055
658.014	18.713	1471.848	1396.913
659.028	18.648	1471.191	1395.591
660.043	18.852	1469.850	1395.817
661.058	18.914	1467.575	1393.991
662.072	18.665	1467.665	1391.886
663.087	18.744	1466.496	1391.248
664.101	18.781	1465.106	1390.067
665.116	18.490	1464.867	1387.309
666.131	18.663	1463.372	1387.129
667.145	18.560	1462.593	1385.390
668.160	18.746	1460.772	1385.007
669.174	18.754	1458.651	1382.891
670.189	18.524	1458.541	1380.761
671.204	18.650	1457.719	1380.839
672.218	18.550	1456.379	1378.596
673.233	18.645	1455.669	1378.525
674.247	18.693	1454.114	1377.275
675.262	18.800	1453.052	1376.964
676.276	18.649	1452.092	1374.680
677.291	18.636	1451.275	1373.636
678.306	18.728	1449.937	1372.940
679.320	18.670	1448.994	1371.417
680.335	18.542	1448.574	1369.826
681.349	18.562	1448.101	1369.382
682.364	18.597	1446.560	1368.037
683.379	18.698	1444.852	1367.069
684.393	18.639	1443.499	1365.156
685.408	18.630	1442.690	1364.155
686.422	18.688	1441.023	1362.874
687.437	18.563	1441.459	1362.124
688.452	18.601	1440.514	1361.377
689.466	18.495	1439.105	1359.038
690.481	18.461	1437.597	1357.176
691.495	18.653	1436.515	1357.518
692.510	18.641	1435.181	1356.004
693.525	18.824	1433.651	1355.847
694.539	18.492	1433.138	1352.568
695.554	18.468	1433.429	1352.491
696.568	18.450	1431.473	1350.341
697.583	18.675	1429.976	1350.540
698.598	18.572	1429.677	1349.290
699.612	18.536	1428.576	1347.803
700.627	18.600	1427.134	1346.787
701.641	18.605	1425.882	1345.478
702.656	18.585	1424.499	1343.860
703.671	18.701	1423.431	1343.601
704.685	18.595	1423.801	1342.956
705.700	18.645	1422.706	1342.158
706.714	18.640	1420.474	1339.849
707.729	18.640	1419.685	1338.949
708.744	18.625	1418.757	1337.794
709.758	18.695	1417.320	1336.825
710.773	18.628	1416.783	1335.634
711.787	18.796	1414.639	1334.765
712.802	18.714	1413.494	1332.885
713.816	18.736	1412.756	1332.201
714.831	18.692	1411.990	1330.973
715.846	18.569	1410.977	1328.901
716.860	18.732	1409.645	1328.757
717.875	18.794	1408.364	1327.876
718.889	18.719	1407.461	1326.279
719.904	18.699	1406.247	1324.820
720.919	18.703	1405.402	1323.898
721.933	18.658	1404.154	1322.216
722.948	18.704	1403.464	1321.764
723.962	18.630	1402.095	1319.744
724.977	18.694	1401.143	1319.190
725.992	18.609	1400.442	1317.711
727.006	18.593	1399.014	1316.091
728.021	18.712	1397.192	1315.134
729.035	18.733	1395.698	1313.732
730.050	18.662	1395.394	1312.742
731.065	18.632	1394.132	1311.168
732.079	18.682	1392.866	1310.202
733.094	18.600	1392.376	1308.955
734.108	18.642	1391.255	1308.067
735.123	18.638	1388.998	1305.758
736.138	18.609	1388.424	1304.843
737.152	18.620	1387.978	1304.351
738.167	18.491	1386.593	1301.909
739.181	18.595	1385.544	1301.557
740.196	18.627	1385.012	1301.145
741.211	18.520	1384.165	1299.377
742.225	18.545	1383.413	1298.705
743.240	18.636	1381.796	1297.731
744.254	18.583	1380.170	1295.642
745.269	18.540	1379.298	1294.340
746.284	18.426	1379.103	1293.140
747.298	18.532	1377.552	1292.331
748.313	18.506	1376.752	1291.232
749.327	18.514	1375.880	1290.322
750.342	18.651	1375.143	1290.513
751.356	18.707	1374.412	1290.090
752.371	18.754	1372.448	1288.450
753.386	18.540	1371.770	1286.044
754.400	18.510	1371.106	1285.043
755.415	18.700	1368.969	1284.315
756.429	18.684	1368.036	1283.169
757.444	18.565	1367.411	1281.530
758.459	18.622	1366.342	1280.805
759.473	18.759	1365.381	1280.778
760.488	18.718	1363.692	1278.736
761.502	18.731	1363.386	1278.388
762.517	18.489	1362.285	1275.399
763.532	18.613	1361.364	1275.310
764.546	18.770	1360.084	1275.131
765.561	18.762	1359.242	1274.125
766.575	18.676	1358.604	1272.732
767.590	18.770	1357.356	1272.114
768.605	18.748	1355.603	1270.150
769.619	18.837	1354.418	1269.551
770.634	18.679	1353.558	1267.420
771.648	18.728	1352.603	1266.740
772.663	18.637	1351.692	1265.057
773.678	18.727	1350.997	1264.924
774.692	18.715	1350.083	1263.828
775.707	18.788	1349.554	1263.724
776.721	18.673	1348.473	1261.709
777.736	18.524	1347.397	1259.451
778.751	18.663	1346.660	1259.638
779.765	18.846	1344.665	1258.970
780.780	18.702	1344.290	1257.409
781.794	18.737	1343.210	1256.504
782.809	18.481	1342.510	1253.814
783.824	18.484	1342.068	1253.274
784.838	18.471	1339.920	1251.024
785.853	18.485	1339.600	1250.675
786.867	18.435	1338.609	1249.233
787.882	18.433	1338.014	1248.515
788.897	18.496	1337.243	1248.109
789.911	18.643	1335.737	1247.625
790.926	18.489	1334.675	1245.363
791.940	18.611	1333.168	1244.701
792.955	18.667	1331.346	1243.254
793.969	18.653	1330.869	1242.560
794.984	18.529	1330.776	1241.423
795.999	18.548	1329.344	1240.072
797.013	18.668	1327.572	1239.143
798.028	18.450	1326.384	1236.304
799.042	18.601	1325.943	1236.843
800.057	18.608	1324.678	1235.568
801.072	18.668	1323.338	1234.597
802.086	18.574	1322.086	1232.605
803.101	18.575	1321.713	1232.120
804.115	18.676	1320.200	1231.285
805.130	18.757	1318.799	1230.414
806.145	18.708	1317.979	1229.150
807.159	18.882	1316.267	1228.658
808.174	18.730	1315.722	1226.914
809.188	18.758	1314.691	1226.003
810.203	18.664	1313.168	1223.765
811.218	18.645	1312.134	1222.517
812.232	18.810	1310.028	1221.587
813.247	18.813	1309.427	1220.904
814.261	18.767	1309.214	1220.233
815.276	18.775	1308.227	1219.222
816.291	18.891	1306.729	1218.503
817.305	18.719	1305.572	1216.054
818.320	18.888	1303.629	1215.303
819.334	18.678	1302.486	1212.597
820.349	18.545	1301.691	1210.771
821.364	18.607	1300.384	1209.849
822.378	18.766	1298.653	1209.220
823.393	18.775	1297.173	1207.759
824.407	18.600	1296.718	1205.953
825.422	18.683	1296.307	1206.016
826.437	18.695	1294.620	1204.386
827.451	18.517	1293.457	1201.905
828.466	18.532	1292.956	1201.404
829.480	18.502	1290.398	1198.669
830.495	18.451	1288.589	1196.492
831.509	18.660	1288.106	1197.364
832.524	18.440	1287.872	1195.463
833.539	18.596	1286.183	1194.843
834.553	18.710	1284.558	1193.986
835.568	18.669	1283.622	1192.687
836.582	18.673	1283.208	1192.191
837.597	18.637	1282.030	1190.701
838.612	18.707	1280.476	1189.601
839.626	18.860	1278.732	1188.900
840.641	18.886	1278.383	1188.618
841.655	18.644	1278.244	1186.660
842.670	18.652	1277.052	1185.468
843.685	18.830	1275.375	1185.007
844.699	18.809	1274.450	1183.856
845.714	18.869	1272.852	1182.647
846.728	18.780	1272.052	1181.145
847.743	18.713	1271.182	1179.733
848.758	18.706	1269.646	1178.118
849.772	18.644	1268.152	1176.167
850.787	18.813	1266.777	1175.912
851.801	18.535	1266.456	1173.565
852.816	18.625	1265.073	1172.760
853.831	18.535	1263.782	1170.805
854.845	18.550	1261.925	1169.046
855.860	18.460	1260.350	1166.831
856.874	18.501	1259.679	1166.347
857.889	18.488	1258.167	1164.719
858.904	18.659	1256.695	1164.386
859.918	18.669	1254.983	1162.727
860.933	18.622	1253.953	1161.315
861.947	18.478	1253.502	1159.781
862.962	18.572	1251.751	1158.660
863.977	18.525	1251.187	1157.676
864.991	18.403	1250.762	1156.318
866.006	18.595	1250.062	1156.833
867.020	18.549	1248.851	1155.266
868.035	18.596	1247.546	1154.238
869.049	18.800	1246.364	1154.383
870.064	18.808	1244.847	1152.893
871.079	18.823	1244.164	1152.227
872.093	18.769	1244.242	1151.798
873.108	18.874	1243.249	1151.447
874.122	18.835	1241.801	1149.706
875.137	18.905	1242.016	1150.237
876.152	18.959	1240.879	1149.411
877.166	18.920	1238.739	1147.030
878.181	18.873	1237.101	1145.061
879.195	18.988	1236.374	1145.020
880.210	19.017	1235.344	1144.119
881.225	18.780	1235.416	1142.466
882.239	18.785	1234.099	1141.147
883.254	18.840	1233.190	1140.535
884.268	18.757	1232.275	1139.000
885.283	18.960	1230.153	1138.251
886.298	19.068	1228.814	1137.595
887.312	18.956	1228.526	1136.446
888.327	18.951	1227.803	1135.608
889.341	18.800	1226.139	1132.932
890.356	18.811	1225.943	1132.690
891.371	18.861	1225.352	1132.339
892.385	18.763	1224.740	1130.988
893.400	18.774	1223.517	1129.799
894.414	18.825	1221.586	1128.219
895.429	18.965	1219.894	1127.440
896.444	18.830	1219.107	1125.692
897.458	18.752	1218.975	1124.921
898.473	18.937	1217.865	1124.975
899.487	18.811	1216.404	1122.665
900.502	18.878	1215.028	1121.704
901.517	18.874	1214.385	1120.945
902.531	18.928	1213.157	1120.033
903.546	18.885	1212.451	1118.964
904.560	18.945	1212.271	1119.058
905.575	18.993	1210.989	1118.053
906.589	18.901	1210.631	1116.988
907.604	18.939	1210.192	1116.699
