DTS Sentinel unit serial number:	SN409020Multiplexer serial number:	ORYXHardware model number:	OX4-SRSoftware version number:	ORYX F/W v3.00 Oryx Data Collector v3.7.2.0data status	okinstallation	HaddamTimeLapsedifferential loss correction	single-endedforward channel	channel 3reverse channel	N/Adate	2011/06/21time	22:21:16forward acquisition time	30.00reverse acquisition time	0.00gamma	498.7831k internal	0.1757k external	0.1757temperature offset calibration	1.0074default loss term (dB/km)	0.3790temperature slope calibration	1.3530multiplexer offset coefficient	1.0000multiplexer slope coefficient	1.0000fibre end	0.00T internal ref (°C)	24.31T ext. ref 1 (°C)	18.83T ext. ref 2 (°C)	0.04length (m)	temperature (°C)	Stokes	anti-Stokes-747.200	-24.155	0.321	-0.253
-746.185	240.166	-0.091	0.201
-745.171	-200.000	0.022	0.158
-744.156	122.220	0.360	0.597
-743.142	-103.755	-0.307	-0.094
-742.127	-103.063	0.584	0.182
-741.112	116.060	-0.181	0.293
-740.098	186.055	-0.122	0.241
-739.083	-150.326	0.349	0.035
-738.069	42.352	0.396	0.476
-737.054	327.826	0.136	0.346
-736.039	-200.000	0.024	0.481
-735.025	39.639	-0.648	-0.770
-734.010	112.279	0.182	-0.292
-732.996	85.933	0.357	-0.521
-731.981	-70.205	0.221	0.110
-730.966	-0.849	0.230	0.215
-729.952	-137.199	-0.165	0.025
-728.937	74.254	-0.349	-0.485
-727.923	38.815	0.206	-0.244
-726.908	31.918	0.138	-0.158
-725.894	181.680	0.196	0.383
-724.879	-149.220	0.608	-0.064
-723.864	-200.000	-0.040	-0.457
-722.850	-25.126	-0.150	0.117
-721.835	-200.000	-0.031	0.325
-720.821	-12.428	0.115	0.099
-719.806	-98.834	0.173	-0.058
-718.791	-18.613	-0.324	0.267
-717.777	-200.000	-0.020	0.206
-716.762	198.935	-0.102	-0.208
-715.748	-73.813	-0.459	-0.220
-714.733	369.638	-0.193	0.519
-713.718	187.855	0.199	0.394
-712.704	800.000	-0.067	-0.333
-711.689	-198.047	-0.371	-0.003
-710.675	-76.345	-0.243	0.113
-709.660	231.993	0.076	-0.164
-708.645	-200.000	0.083	-0.596
-707.631	-136.391	-0.237	-0.036
-706.616	199.802	-0.122	-0.247
-705.602	-51.911	0.473	0.290
-704.587	-27.267	-0.438	0.336
-703.572	-115.513	0.263	0.065
-702.558	800.000	-0.040	0.228
-701.543	137.485	0.092	-0.159
-700.529	-5.639	0.353	-0.320
-699.514	30.412	0.141	-0.159
-698.499	-105.137	-0.506	-0.152
-697.485	-180.360	0.139	0.004
-696.470	-30.830	0.190	0.142
-695.456	146.110	-0.158	-0.281
-694.441	-25.019	-0.148	0.116
-693.426	8.151	-0.244	0.242
-692.412	127.994	0.082	0.138
-691.397	101.620	0.280	-0.432
-690.383	-99.366	-0.273	0.090
-689.368	-92.947	-0.289	0.106
-688.354	-157.261	0.433	-0.034
-687.339	-58.174	0.112	0.064
-686.324	-79.931	0.191	0.084
-685.310	-200.000	0.023	-0.156
-684.295	-93.706	0.283	0.103
-683.281	-200.000	0.006	-0.054
-682.266	-76.705	-0.492	-0.227
-681.251	162.346	0.290	0.538
-680.237	-52.644	0.164	-0.099
-679.222	-200.000	0.009	0.060
-678.208	-113.520	0.238	0.061
-677.193	800.000	0.059	-0.305
-676.178	53.477	-0.449	-0.569
-675.164	64.974	-0.157	-0.209
-674.149	29.702	-0.167	-0.188
-673.135	-64.827	0.326	-0.173
-672.120	-18.917	0.180	-0.148
-671.105	-49.923	-0.122	0.076
-670.091	23.452	0.313	0.340
-669.076	-176.395	0.635	0.021
-668.062	558.391	0.125	-0.400
-667.047	-200.000	-0.075	-0.551
-666.032	-200.000	-0.081	-0.497
-665.018	54.539	0.239	0.304
-664.003	-55.708	0.187	-0.110
-662.989	105.634	0.094	0.147
-661.974	-200.000	-0.058	-0.556
-660.959	330.898	-0.126	0.323
-659.945	-58.631	0.115	-0.066
-658.930	13.114	0.338	0.345
-657.916	146.869	-0.079	0.141
-656.901	35.661	0.179	-0.208
-655.886	-7.464	-0.516	-0.460
-654.872	319.258	0.112	-0.282
-653.857	-110.437	-0.552	-0.150
-652.843	800.000	0.078	0.321
-651.828	-64.425	0.297	0.159
-650.814	-164.190	-0.344	-0.021
-649.799	-8.949	0.106	0.094
-648.784	33.067	-0.200	0.229
-647.770	-59.108	-0.154	-0.087
-646.755	28.851	0.307	0.343
-645.741	579.086	-0.129	-0.419
-644.726	284.138	0.213	-0.508
-643.711	-108.760	-0.771	0.216
-642.697	7.715	-0.195	0.192
-641.682	-125.384	0.144	0.029
-640.668	53.906	0.296	0.375
-639.653	-200.000	-0.005	0.182
-638.638	-102.078	-0.254	-0.080
-637.624	-97.939	0.139	0.047
-636.609	-33.521	0.078	-0.057
-635.595	1.910	-0.348	-0.331
-634.580	172.276	-0.208	0.396
-633.565	74.248	-0.220	0.305
-632.551	386.279	-0.099	0.272
-631.536	-99.575	0.146	-0.048
-630.522	42.202	0.387	0.464
-629.507	-67.839	-0.052	-0.027
-628.492	-46.159	-0.331	-0.214
-627.478	-200.000	0.119	0.000
-626.463	-200.000	0.057	-0.455
-625.449	767.261	-0.080	-0.289
-624.434	-10.361	0.050	-0.043
-623.419	-3.474	0.068	0.062
-622.405	800.000	-0.137	0.593
-621.390	-59.266	0.339	-0.192
-620.376	-43.620	-0.495	-0.328
-619.361	-38.943	0.114	0.079
-618.346	140.458	-0.097	-0.170
-617.332	25.537	0.133	-0.146
-616.317	119.372	-0.223	0.364
-615.303	16.082	0.185	0.192
-614.288	-200.000	-0.002	-0.542
-613.273	182.562	-0.074	0.145
-612.259	-95.498	0.373	0.131
-611.244	88.510	-0.093	0.136
-610.230	-26.655	0.330	0.254
-609.215	-124.124	0.520	0.106
-608.201	149.571	-0.201	-0.359
-607.186	-35.677	0.272	-0.194
-606.171	-155.699	-0.513	-0.043
-605.157	211.181	0.132	0.274
-604.142	-123.356	-0.133	-0.028
-603.128	-31.383	-0.474	0.351
-602.113	-132.295	-0.301	0.051
-601.098	278.869	0.109	-0.257
-600.084	385.382	-0.038	0.103
-599.069	15.275	-0.316	0.326
-598.055	800.000	-0.081	0.342
-597.040	234.341	-0.201	0.437
-596.025	-200.000	-0.005	-0.474
-595.011	-108.304	-0.209	0.059
-593.996	-60.305	-0.416	0.233
-592.982	202.567	-0.170	0.346
-591.967	175.388	0.246	0.471
-590.952	800.000	0.041	-0.226
-589.938	-105.538	-0.562	-0.167
-588.923	100.009	-0.129	-0.197
-587.909	-131.633	-0.231	0.040
-586.894	114.040	0.143	0.229
-585.879	-60.633	-0.224	-0.125
-584.865	-53.974	-0.430	-0.257
-583.850	-68.148	0.072	0.037
-582.836	432.027	0.061	-0.175
-581.821	-184.746	0.065	-0.001
-580.806	-89.717	0.383	0.147
-579.792	22.206	-0.195	-0.210
-578.777	74.769	0.252	-0.350
-577.763	-118.570	0.038	-0.009
-576.748	226.729	-0.120	-0.256
-575.733	-38.143	0.160	-0.111
-574.719	-116.713	-0.257	-0.062
-573.704	-34.982	0.194	-0.139
-572.690	-94.118	-0.163	0.058
-571.675	-44.724	-0.556	-0.364
-570.661	139.362	-0.113	-0.196
-569.646	-107.707	-0.183	0.052
-568.631	232.485	0.260	0.563
-567.617	-20.329	0.168	0.136
-566.602	-53.016	-0.288	0.174
-565.588	-77.589	-0.157	-0.071
-564.573	-60.203	-0.175	-0.098
-563.558	70.646	0.162	-0.220
-562.544	-190.595	0.675	-0.009
-561.529	610.014	-0.106	0.350
-560.515	-92.181	0.409	0.151
-559.500	-87.624	0.278	0.110
-558.485	253.833	0.141	-0.317
-557.471	39.765	-0.103	0.122
-556.456	87.257	0.265	0.385
-555.442	104.753	-0.117	-0.181
-554.427	-200.000	-0.009	-0.283
-553.412	800.000	0.053	0.214
-552.398	-12.256	-0.412	-0.354
-551.383	256.220	-0.093	-0.212
-550.369	-71.014	-0.470	-0.231
-549.354	-79.499	-0.259	0.114
-548.339	320.968	-0.025	0.062
-547.325	37.313	0.075	-0.087
-546.310	-53.006	-0.256	0.154
-545.296	-38.706	-0.204	0.141
-544.281	445.616	-0.134	0.389
-543.266	-156.104	-0.482	0.039
-542.252	-114.506	-0.266	-0.066
-541.237	-135.915	0.174	-0.027
-540.223	-11.984	0.286	0.246
-539.208	40.602	-0.150	-0.178
-538.193	-164.828	-0.307	0.018
-537.179	-27.640	-0.124	0.094
-536.164	69.557	0.236	-0.319
-535.150	-27.079	-0.248	0.190
-534.135	516.463	-0.073	0.225
-533.121	-54.479	-0.351	-0.208
-532.106	36.911	-0.325	-0.378
-531.091	-200.000	-0.025	0.205
-530.077	111.886	-0.081	-0.128
-529.062	-50.652	-0.206	0.127
-528.048	22.938	-0.288	0.310
-527.033	383.925	0.103	-0.281
-526.018	-108.307	0.426	-0.120
-525.004	-136.814	0.258	-0.039
-523.989	-77.316	-0.174	-0.079
-522.975	42.642	-0.259	-0.309
-521.960	301.082	-0.166	0.405
-520.945	-121.727	-0.409	0.088
-519.931	-59.695	-0.281	-0.157
-518.916	-168.274	-0.367	-0.018
-517.902	-94.461	-0.223	-0.079
-516.887	24.521	0.139	0.151
-515.872	-36.360	-0.485	-0.342
-514.858	-120.472	0.331	0.073
-513.843	509.318	-0.083	-0.255
-512.829	55.219	0.108	-0.137
-511.814	18.371	-0.456	-0.477
-510.799	800.000	0.055	-0.229
-509.785	-31.064	-0.312	0.230
-508.770	-200.000	0.000	0.145
-507.756	-100.163	0.066	0.021
-506.741	-34.183	0.129	-0.092
-505.726	88.675	0.074	0.108
-504.712	-97.712	-0.066	-0.022
-503.697	22.701	-0.073	-0.078
-502.683	586.307	-0.111	-0.361
-501.668	-200.000	-0.004	0.056
-500.653	-37.488	-0.117	-0.082
-499.639	-177.058	0.166	-0.005
-498.624	141.283	0.011	0.019
-497.610	-200.000	-0.006	-0.127
-496.595	-71.678	-0.403	-0.196
-495.581	800.000	-0.137	-0.726
-494.566	-35.084	-0.078	0.055
-493.551	-136.146	0.164	0.025
-492.537	-200.000	-0.029	-0.222
-491.522	-34.538	0.428	0.307
-490.508	-42.995	0.257	0.171
-489.493	800.000	-0.051	-0.239
-488.478	460.638	0.172	-0.505
-487.464	-65.211	-0.211	0.111
-486.449	-103.683	-0.506	0.154
-485.435	800.000	0.117	0.444
-484.420	322.559	0.055	0.137
-483.405	125.035	-0.131	0.217
-482.391	29.366	-0.205	0.228
-481.376	-120.792	0.443	0.097
-480.362	-23.216	-0.127	0.100
-479.347	601.176	0.041	-0.135
-478.332	34.552	0.173	-0.198
-477.318	-200.000	0.047	0.321
-476.303	-87.107	0.068	0.027
-475.289	-104.261	-0.052	0.016
-474.274	-156.000	-0.199	-0.016
-473.259	-32.758	-0.386	-0.281
-472.245	627.350	0.097	0.322
-471.230	112.061	-0.199	0.315
-470.216	-200.000	-0.014	-0.445
-469.201	-43.666	-0.305	-0.201
-468.186	-200.000	0.015	-0.345
-467.172	144.117	0.241	-0.422
-466.157	-116.333	-0.227	0.054
-465.143	-161.310	0.380	0.025
-464.128	221.110	-0.155	0.327
-463.113	-106.474	0.139	-0.040
-462.099	800.000	-0.061	0.257
-461.084	0.578	0.228	-0.214
-460.070	-30.900	0.199	-0.147
-459.055	-101.813	-0.503	0.159
-458.040	-2.777	-0.482	0.441
-457.026	-116.050	0.068	0.016
-456.011	314.604	-0.084	0.208
-454.997	172.980	0.193	-0.365
-453.982	570.109	0.086	0.275
-452.968	-44.482	0.460	0.300
-451.953	51.658	0.318	-0.397
-450.938	-99.824	-0.049	-0.016
-449.924	-26.592	-0.194	-0.149
-448.909	59.066	-0.080	-0.103
-447.895	-27.769	0.373	-0.283
-446.880	-130.440	0.113	0.020
-445.865	69.898	-0.164	-0.221
-444.851	800.000	0.099	-0.363
-443.836	122.949	-0.230	-0.377
-442.822	-47.339	-0.088	0.056
-441.807	86.663	-0.251	-0.363
-440.792	800.000	-0.046	-0.203
-439.778	511.856	0.275	-0.842
-438.763	-19.276	-0.339	-0.275
-437.749	-115.650	-0.601	-0.146
-436.734	240.159	0.064	-0.141
-435.719	-155.857	0.266	0.022
-434.705	28.598	0.460	0.509
-433.690	-59.851	0.408	-0.228
-432.676	797.903	0.137	-0.496
-431.661	800.000	0.037	0.161
-430.646	-200.000	0.064	0.511
-429.632	-30.346	-0.211	0.156
-428.617	800.000	0.086	0.394
-427.603	-46.000	0.578	-0.372
-426.588	-198.870	-0.484	-0.003
-425.573	800.000	0.119	0.513
-424.559	-200.000	-0.023	0.205
-423.544	-124.525	-0.518	0.104
-422.530	-90.523	-0.256	-0.096
-421.515	32.808	-0.299	-0.338
-420.500	800.000	-0.107	-0.480
-419.486	-38.033	-0.215	-0.149
-418.471	57.339	0.062	-0.079
-417.457	-200.000	-0.052	-0.376
-416.442	446.912	-0.075	-0.216
-415.428	800.000	-0.098	-0.455
-414.413	360.026	-0.245	-0.644
-413.398	-116.624	0.953	-0.227
-412.384	48.723	-0.102	-0.126
-411.369	68.562	-0.185	-0.248
-410.355	-93.282	-0.723	-0.261
-409.340	-200.000	0.026	-0.397
-408.325	800.000	-0.042	0.154
-407.311	-164.093	-0.129	0.008
-406.296	800.000	0.104	-0.423
-405.282	48.021	0.338	-0.413
-404.267	-103.150	-0.045	0.014
-403.252	-47.283	0.542	0.344
-402.238	-9.738	0.240	0.208
-401.223	19.371	0.125	0.131
-400.209	-39.187	0.215	-0.147
-399.194	-200.000	-0.086	0.558
-398.179	800.000	-0.037	0.183
-397.165	2.502	0.452	0.427
-396.150	62.911	-0.225	0.294
-395.136	-106.399	-0.118	0.034
-394.121	250.438	-0.175	0.389
-393.106	-101.392	0.476	-0.151
-392.092	-116.174	0.330	0.079
-391.077	-159.074	0.186	-0.014
-390.063	-107.604	-0.309	0.088
-389.048	-111.366	-0.196	-0.052
-388.033	150.702	0.125	-0.222
-387.019	410.959	0.108	-0.301
-386.004	800.000	-0.081	-0.427
-384.990	96.340	-0.069	0.104
-383.975	127.662	0.251	0.418
-382.960	-61.052	-0.316	-0.174
-381.946	-26.855	-0.437	-0.333
-380.931	300.091	-0.135	-0.327
-379.917	-130.102	-0.136	0.024
-378.902	-118.534	0.490	-0.112
-377.888	106.858	-0.192	-0.298
-376.873	742.752	0.076	-0.267
-375.858	-177.881	0.614	0.019
-374.844	-200.000	0.006	0.292
-373.829	83.905	0.237	0.337
-372.815	578.326	-0.028	0.090
-371.800	786.570	0.124	-0.446
-370.785	-200.000	-0.009	-0.132
-369.771	265.034	0.197	0.449
-368.756	800.000	0.038	0.186
-367.742	169.049	-0.186	0.348
-366.727	-89.783	-0.286	-0.108
-365.712	-111.716	0.304	-0.080
-364.698	-200.000	0.094	0.691
-363.683	-200.000	-0.002	-0.090
-362.669	-200.000	-0.010	-0.579
-361.654	-69.995	-0.477	0.236
-360.639	682.543	0.048	0.164
-359.625	-139.367	-0.412	0.057
-358.610	429.968	-0.150	0.426
-357.596	-68.845	0.241	0.121
-356.581	-86.949	0.248	0.098
-355.566	800.000	-0.094	0.426
-354.552	282.084	0.121	0.284
-353.537	93.141	-0.205	0.302
-352.523	-53.619	-0.499	-0.296
-351.508	800.000	0.199	-0.723
-350.493	-63.990	0.321	-0.171
-349.479	-200.000	-0.040	-0.359
-348.464	-90.681	0.754	-0.282
-347.450	-200.000	-0.042	0.251
-346.435	-200.000	0.031	0.373
-345.420	134.377	0.148	-0.250
-344.406	-189.974	0.469	0.007
-343.391	-61.381	-0.132	-0.072
-342.377	-158.148	0.070	-0.005
-341.362	-78.304	0.273	0.121
-340.348	-200.000	-0.013	0.183
-339.333	-97.136	0.291	-0.098
-338.318	-21.890	0.206	0.163
-337.304	-120.803	-0.704	0.153
-336.289	256.347	0.075	-0.168
-335.275	633.663	-0.058	-0.194
-334.260	-19.192	0.271	-0.219
-333.245	-70.468	-0.231	0.114
-332.231	-90.689	-0.622	0.233
-331.216	651.489	-0.025	-0.085
-330.202	-100.557	0.235	0.075
-329.187	81.093	-0.023	-0.032
-328.172	249.953	0.078	0.173
-327.158	196.860	-0.028	0.055
-326.143	660.966	-0.025	-0.083
-325.129	-7.743	-0.147	-0.129
-324.114	-27.112	0.280	-0.212
-323.099	57.100	-0.228	-0.289
-322.085	-197.782	-0.411	-0.003
-321.070	250.451	-0.250	-0.555
-320.056	-30.819	0.288	-0.211
-319.041	53.381	-0.172	0.214
-318.026	-125.376	-0.347	-0.068
-317.012	-153.650	0.163	-0.014
-315.997	496.835	0.097	0.293
-314.983	38.665	0.243	0.283
-313.968	-200.000	-0.038	0.397
-312.953	20.188	0.060	0.063
-311.939	38.914	-0.440	0.512
-310.924	155.758	-0.185	0.332
-309.910	-156.657	-0.232	-0.018
-308.895	-200.000	-0.001	-0.012
-307.880	-106.494	0.299	-0.086
-306.866	-200.000	-0.202	0.001
-305.851	-33.979	0.135	0.097
-304.837	260.519	0.065	-0.146
-303.822	-195.011	-0.376	-0.004
-302.807	800.000	0.107	-0.438
-301.793	153.953	-0.129	-0.231
-300.778	800.000	-0.110	-0.426
-299.764	-1.927	0.302	-0.276
-298.749	758.470	0.055	-0.196
-297.735	-118.966	0.279	0.063
-296.720	117.377	0.125	-0.200
-295.705	-106.432	0.346	-0.100
-294.691	-33.758	0.179	0.128
-293.676	-132.811	0.342	0.056
-292.662	-43.506	0.351	-0.230
-291.647	-137.320	0.315	-0.046
-290.632	-42.172	0.208	0.138
-289.618	-25.283	-0.137	0.105
-288.603	-53.651	0.148	0.088
-287.589	-13.720	0.160	0.134
-286.574	-44.516	0.143	0.093
-285.559	14.732	-0.192	-0.195
-284.545	-85.868	0.198	0.079
-283.530	-44.530	-0.113	0.073
-282.516	118.249	-0.372	0.598
-281.501	74.575	0.102	0.139
-280.486	-177.040	0.419	0.013
-279.472	-200.000	-0.043	-0.331
-278.457	139.984	0.065	0.112
-277.443	-146.130	-0.234	0.026
-276.428	341.630	0.165	0.420
-275.413	67.121	0.178	0.236
-274.399	22.859	0.456	0.485
-273.384	-46.507	0.161	0.102
-272.370	-26.663	0.225	0.171
-271.355	-200.000	0.000	0.118
-270.340	-87.650	-0.295	-0.115
-269.326	89.285	0.083	0.121
-268.311	60.835	0.167	-0.216
-267.297	65.083	-0.098	0.129
-266.282	83.945	0.248	0.353
-265.267	-66.445	0.150	-0.077
-264.253	44.843	0.113	-0.135
-263.238	123.005	0.235	-0.383
-262.224	-200.000	0.046	-0.488
-261.209	-118.930	0.201	0.045
-260.195	48.158	0.205	-0.249
-259.180	-200.000	0.036	-0.211
-258.165	800.000	0.213	-0.843
-257.151	107.985	-0.284	0.440
-256.136	800.000	-0.076	0.277
-255.122	-183.990	-0.287	-0.006
-254.107	-135.578	-0.174	0.027
-253.092	68.567	0.145	0.193
-252.078	-94.586	-0.268	-0.094
-251.063	-178.986	-0.334	-0.010
-250.049	9.175	-0.482	0.473
-249.034	28.030	-0.339	0.372
-248.019	-19.442	0.110	-0.089
-247.005	-170.425	-0.432	-0.019
-245.990	800.000	-0.065	-0.250
-244.976	591.972	0.088	0.283
-243.961	-83.250	0.607	0.252
-242.946	216.298	0.258	0.534
-241.932	-64.758	-0.191	-0.100
-240.917	-66.017	-0.289	-0.149
-239.903	-115.014	0.289	0.071
-238.888	-82.307	-0.122	-0.051
-237.873	-59.017	-0.465	-0.260
-236.859	111.843	-0.070	0.109
-235.844	-68.352	0.521	0.262
-234.830	-200.000	0.017	0.129
-233.815	-114.714	0.559	0.138
-232.800	-200.000	-0.071	0.446
-231.786	32.634	-0.239	0.268
-230.771	-88.496	0.022	0.009
-229.757	-2.113	0.253	0.230
-228.742	800.000	0.135	0.526
-227.727	-38.099	0.315	-0.216
-226.713	-200.000	0.031	-0.181
-225.698	-98.718	0.283	0.093
-224.684	-200.000	-0.003	-0.425
-223.669	277.914	0.057	-0.131
-222.655	-89.429	-0.322	-0.122
-221.640	101.540	0.292	0.442
-220.625	-123.072	0.422	-0.087
-219.611	-60.397	0.324	0.178
-218.596	-31.324	-0.207	-0.151
-217.582	139.876	0.190	0.325
-216.567	-65.064	-0.203	-0.106
-215.552	-123.654	0.622	0.127
-214.538	-114.972	0.113	0.028
-213.523	-48.990	-0.200	0.124
-212.509	-26.056	-0.268	0.204
-211.494	-53.578	-0.219	0.129
-210.479	-125.010	0.246	-0.049
-209.465	-121.859	0.118	-0.025
-208.450	18.654	-0.064	0.067
-207.436	-103.683	0.467	-0.141
-206.421	-126.384	0.443	0.085
-205.406	384.047	0.007	-0.019
-204.392	800.000	0.015	-0.061
-203.377	-67.159	-0.218	0.111
-202.363	-186.176	0.331	-0.006
-201.348	-146.411	0.192	-0.022
-200.333	-149.750	0.265	0.027
-199.319	-72.734	0.206	0.098
-198.304	-200.000	0.005	0.274
-197.290	-97.013	0.323	-0.109
-196.275	704.684	0.084	-0.289
-195.260	-55.423	-0.335	0.194
-194.246	373.258	-0.103	0.272
-193.231	75.022	0.169	0.231
-192.217	314.286	0.150	0.369
-191.202	-158.129	-0.192	0.014
-190.187	-40.056	0.267	0.180
-189.173	-200.000	-0.021	-0.230
-188.158	179.389	0.067	-0.127
-187.144	-200.000	-0.050	0.362
-186.129	69.509	-0.202	-0.269
-185.114	-141.057	0.290	-0.038
-184.100	-59.310	0.474	-0.264
-183.085	-43.156	0.058	0.038
-182.071	-100.808	0.782	-0.248
-181.056	63.860	-0.299	0.389
-180.042	-36.059	0.335	0.234
-179.027	151.474	-0.242	0.428
-178.012	159.686	-0.194	0.351
-176.998	-151.078	-0.115	0.011
-175.983	45.862	0.333	0.400
-174.969	-200.000	-0.008	0.255
-173.954	167.514	-0.141	-0.260
-172.939	800.000	0.065	-0.264
-171.925	41.426	0.074	-0.087
-170.910	486.957	0.133	-0.394
-169.896	-40.278	0.430	0.289
-168.881	-93.260	0.075	0.027
-167.866	-92.180	0.109	0.040
-166.852	132.826	-0.248	-0.416
-165.837	-97.060	0.279	-0.094
-164.823	800.000	-0.081	0.416
-163.808	-200.000	0.001	-0.297
-162.793	-176.159	0.047	-0.002
-161.779	800.000	-0.034	-0.144
-160.764	686.851	-0.118	-0.400
-159.750	800.000	0.132	0.480
-158.735	43.920	0.156	0.185
-157.720	99.457	-0.096	-0.144
-156.706	-69.713	0.230	-0.113
-155.691	46.072	-0.202	-0.242
-154.677	111.154	-0.202	-0.315
-153.662	-2.683	0.129	0.116
-152.647	8.251	-0.382	0.371
-151.633	-82.697	-0.248	-0.103
-150.618	-93.222	-0.232	-0.083
-149.604	314.939	0.238	0.583
-148.589	129.412	0.137	0.226
-147.574	439.798	0.078	-0.220
-146.560	49.226	-0.077	0.094
-145.545	234.549	0.100	0.213
-144.531	10.571	-0.261	0.257
-143.516	-47.067	0.452	0.285
-142.502	-120.355	0.358	0.078
-141.487	-62.030	0.287	0.154
-140.472	-64.366	0.064	0.034
-139.458	-200.000	-0.007	0.071
-138.443	800.000	0.055	0.294
-137.429	-62.890	0.528	0.281
-136.414	15.267	0.260	0.264
-135.399	-87.656	-0.234	-0.091
-134.385	-17.880	0.133	0.108
-133.370	-33.505	0.495	0.353
-132.356	-109.972	0.089	0.024
-131.341	-157.191	0.157	0.012
-130.326	50.662	0.229	-0.280
-129.312	800.000	0.029	0.132
-128.297	-165.780	0.452	-0.025
-127.283	10.006	-0.240	0.236
-126.268	-3.616	-0.039	0.035
-125.253	205.497	0.046	-0.093
-124.239	-68.271	0.308	0.154
-123.224	-59.111	0.300	0.167
-122.210	19.487	-0.237	0.247
-121.195	-38.635	-0.187	-0.128
-120.180	149.330	-0.087	-0.152
-119.166	137.516	-0.263	0.445
-118.151	-200.000	0.005	-0.104
-117.137	44.759	0.055	0.066
-116.122	-11.467	-0.065	-0.055
-115.107	-200.000	-0.028	0.269
-114.093	-77.504	0.461	0.205
-113.078	800.000	0.051	0.191
-112.064	-129.458	-0.130	-0.023
-111.049	-60.993	-0.190	-0.103
-110.034	399.880	-0.020	0.053
-109.020	243.196	-0.208	0.451
-108.005	133.760	0.089	0.149
-106.991	800.000	0.092	0.429
-105.976	-25.550	0.259	0.197
-104.962	90.548	-0.110	0.159
-103.947	513.161	0.245	-0.740
-102.932	-129.355	-0.321	-0.057
-101.918	37.823	0.293	-0.337
-100.903	396.388	0.249	0.673
-99.889	-67.200	0.489	0.248
-98.874	-200.000	-0.039	0.462
-97.859	43.499	-0.428	-0.506
-96.845	355.691	0.038	0.099
-95.830	97.176	0.149	-0.221
-94.816	235.121	-0.140	0.299
-93.801	-53.514	0.313	0.184
-92.786	-102.911	0.389	-0.119
-91.772	-114.477	-0.221	-0.054
-90.757	-200.000	0.018	-0.139
-89.743	7.204	0.438	-0.421
-88.728	-126.223	-0.274	0.053
-87.713	-20.472	-0.430	0.340
-86.699	30.345	-0.141	-0.156
-85.684	104.988	0.052	0.079
-84.670	-24.835	-0.195	0.149
-83.655	2.717	0.403	-0.377
-82.640	-19.069	-0.472	-0.378
-81.626	133.748	-0.217	-0.363
-80.611	118.529	0.228	-0.364
-79.597	607.276	-0.105	-0.340
-78.582	-124.386	0.202	0.040
-77.567	92.683	-0.209	0.305
-76.553	-54.134	-0.320	0.187
-75.538	-16.092	0.119	-0.097
-74.524	149.301	-0.159	0.278
-73.509	48.030	-0.194	-0.234
-72.494	675.351	0.053	-0.178
-71.480	41.660	-0.157	-0.183
-70.465	-116.105	0.422	-0.100
-69.451	-10.388	0.321	0.274
-68.436	-139.903	0.314	0.042
-67.422	-53.733	0.217	0.127
-66.407	-186.627	0.653	0.012
-65.392	43.970	-0.411	-0.485
-64.378	800.000	0.060	-0.282
-63.363	-78.316	0.601	0.265
-62.349	800.000	-0.059	-0.244
-61.334	27.874	-2.027	-2.203
-60.319	42.809	1.356	1.594
-59.305	225.800	-3.591	-7.527
-58.290	56.112	3.779	4.732
-57.276	283.890	4.509	10.490
-56.261	-200.000	21.924	312.262
-55.246	365.891	1288.449	3361.936
-54.232	53.264	2849.744	3520.900
-53.217	52.650	2669.990	3289.201
-52.203	34.140	2399.948	2695.968
-51.188	29.700	2064.377	2264.378
-50.173	26.131	1950.573	2097.864
-49.159	25.027	1939.126	2072.630
-48.144	24.723	1934.154	2063.706
-47.130	24.535	1932.353	2059.529
-46.115	24.565	1930.326	2057.639
-45.100	24.531	1930.380	2057.221
-44.086	24.571	1928.460	2055.548
-43.071	24.570	1927.392	2054.320
-42.057	24.438	1925.237	2050.420
-41.042	24.477	1923.512	2048.951
-40.027	24.566	1922.191	2048.490
-39.013	24.564	1920.308	2046.379
-37.998	24.601	1918.239	2044.518
-36.984	24.489	1918.295	2043.203
-35.969	24.580	1916.010	2041.730
-34.954	24.378	1916.022	2039.346
-33.940	24.395	1914.927	2038.295
-32.925	24.530	1912.304	2036.965
-31.911	24.380	1911.766	2034.594
-30.896	24.468	1910.092	2033.743
-29.881	24.462	1908.718	2032.129
-28.867	24.318	1907.748	2029.373
-27.852	24.400	1905.961	2028.321
-26.838	24.349	1904.685	2026.306
-25.823	24.294	1903.306	2024.130
-24.809	24.342	1901.764	2022.956
-23.794	24.365	1900.128	2021.403
-22.779	24.308	1899.963	2020.489
-21.765	24.140	1898.627	2017.080
-20.750	24.178	1897.812	2016.571
-19.736	24.430	1895.740	2017.147
-18.721	24.120	1895.006	2012.760
-17.706	24.279	1893.025	2012.386
-16.692	24.130	1892.537	2010.099
-15.677	24.214	1891.099	2009.437
-14.663	24.159	1889.728	2007.281
-13.648	24.268	1888.345	2006.970
-12.633	24.186	1887.082	2004.615
-11.619	24.229	1885.152	2002.977
-10.604	24.277	1883.770	2001.970
-9.590	24.262	1883.338	2001.258
-8.575	24.166	1882.019	1998.702
-7.560	24.270	1880.785	1998.481
-6.546	24.179	1879.918	1996.453
-5.531	24.118	1878.304	1993.968
-4.517	24.098	1877.557	1992.878
-3.502	24.203	1876.447	1992.799
-2.487	24.244	1875.050	1991.692
-1.473	24.244	1872.179	1988.573
-0.458	23.931	1853.211	1964.873
0.556	20.001	1997.829	2058.948
1.571	18.337	2203.084	2248.266
2.586	19.127	2242.105	2298.421
3.600	19.066	2245.793	2301.111
4.615	19.178	2243.730	2300.222
5.629	19.132	2241.476	2297.024
6.644	19.103	2240.102	2294.951
7.659	19.073	2238.692	2292.818
8.673	19.133	2235.965	2290.564
9.688	18.878	2245.649	2296.774
10.702	18.049	2324.931	2366.052
11.717	16.196	2388.280	2403.714
12.731	7.473	2367.888	2258.579
13.746	0.986	2350.424	2149.328
14.761	0.092	2348.109	2134.215
15.775	0.106	2345.218	2131.531
16.790	0.087	2343.871	2129.782
17.804	-0.050	2342.958	2126.742
18.819	-0.025	2341.614	2125.628
19.834	0.001	2340.617	2124.839
20.848	-0.010	2338.518	2122.520
21.863	0.038	2336.251	2120.890
22.877	-0.098	2335.728	2118.231
23.892	-0.022	2332.614	2116.228
24.907	0.045	2329.761	2114.340
25.921	0.007	2327.997	2111.947
26.936	0.003	2326.006	2109.821
27.950	0.086	2322.742	2107.788
28.965	-0.054	2321.017	2103.994
29.980	0.064	2319.437	2103.978
30.994	-0.009	2317.581	2101.008
32.009	3.905	2328.373	2165.702
33.023	13.297	2356.628	2324.988
34.038	17.239	2363.828	2387.579
35.053	17.366	2361.141	2386.375
36.067	17.394	2357.697	2383.003
37.082	17.320	2355.660	2379.609
38.096	17.433	2354.259	2379.506
39.111	17.508	2352.557	2378.545
40.126	17.655	2350.941	2378.692
41.140	17.855	2349.677	2379.939
42.155	17.872	2348.787	2378.986
43.169	17.789	2346.053	2374.776
44.184	17.627	2341.721	2367.837
45.199	17.671	2340.375	2366.816
46.213	17.720	2340.344	2367.175
47.228	17.926	2338.816	2368.228
48.242	17.966	2336.279	2365.925
49.257	18.110	2334.515	2365.856
50.271	18.086	2332.195	2362.894
51.286	17.881	2329.088	2356.620
52.301	17.586	2328.037	2351.182
53.315	18.459	2331.063	2366.077
54.330	21.521	2339.369	2416.800
55.344	23.509	2340.880	2445.648
56.359	23.672	2338.405	2445.035
57.374	23.941	2337.007	2447.003
58.388	23.921	2334.955	2444.286
59.403	23.751	2329.888	2436.336
60.417	23.172	2327.274	2425.335
61.432	23.290	2325.020	2424.319
62.447	23.622	2323.801	2427.335
63.461	23.649	2323.748	2427.357
64.476	23.898	2320.600	2427.194
65.490	23.504	2319.098	2419.934
66.505	22.594	2314.587	2402.470
67.520	20.448	2305.807	2363.744
68.534	18.223	2296.767	2323.852
69.549	17.446	2292.127	2308.296
70.563	17.363	2289.389	2304.128
71.578	17.399	2287.749	2302.696
72.593	17.475	2286.331	2302.019
73.607	17.636	2285.866	2303.475
74.622	17.700	2283.311	2301.491
75.636	17.572	2280.253	2296.398
76.651	17.546	2277.174	2292.669
77.666	17.484	2275.638	2290.004
78.680	17.544	2273.187	2288.083
79.695	17.273	2271.209	2282.157
80.709	17.156	2269.522	2278.606
81.724	17.140	2267.090	2275.684
82.739	17.118	2265.406	2273.424
83.753	17.210	2263.302	2272.269
84.768	17.079	2261.586	2268.519
85.782	17.104	2259.756	2266.747
86.797	17.040	2258.226	2264.079
87.812	17.061	2255.815	2261.683
88.826	17.176	2255.266	2262.390
89.841	17.314	2252.033	2260.726
90.855	17.314	2249.043	2257.448
91.870	17.300	2249.085	2257.043
92.884	17.326	2246.820	2254.841
93.899	17.274	2246.311	2253.368
94.914	18.107	2247.965	2265.860
95.928	20.760	2255.966	2309.077
96.943	21.696	2254.707	2319.976
97.957	19.089	2243.409	2273.507
98.972	17.477	2237.427	2245.807
99.987	17.286	2234.202	2239.766
101.001	17.250	2232.069	2236.893
102.016	17.359	2229.730	2235.717
103.030	17.350	2227.295	2232.888
104.045	17.317	2224.438	2229.323
105.060	17.265	2223.313	2227.243
106.074	17.157	2221.478	2223.712
107.089	17.321	2218.560	2222.685
108.103	17.256	2218.411	2221.416
109.118	17.229	2217.445	2219.823
110.133	17.526	2215.460	2221.468
111.147	17.259	2213.483	2215.720
112.162	17.322	2212.114	2214.921
113.176	17.399	2210.414	2213.957
114.191	17.607	2208.330	2214.317
115.206	17.533	2206.674	2211.427
116.220	17.417	2205.470	2208.445
117.235	17.404	2203.398	2205.937
118.249	17.496	2201.008	2204.478
119.264	17.480	2199.386	2202.383
120.279	17.397	2198.712	2200.356
121.293	17.435	2196.545	2198.425
122.308	17.502	2193.840	2196.315
123.322	17.346	2193.257	2193.458
124.337	17.756	2194.495	2199.748
125.352	20.640	2202.813	2245.296
126.366	21.458	2200.426	2253.190
127.381	18.685	2189.044	2205.491
128.395	17.459	2184.878	2185.224
129.410	17.497	2182.260	2182.826
130.424	17.474	2180.104	2180.113
131.439	17.435	2179.752	2178.998
132.454	17.391	2178.135	2176.563
133.468	17.488	2176.204	2175.612
134.483	17.691	2174.192	2175.950
135.497	17.654	2173.286	2174.311
136.512	17.678	2170.685	2171.751
137.527	17.585	2168.527	2168.150
138.541	17.407	2166.920	2164.002
139.556	17.312	2166.243	2161.852
140.570	17.245	2165.396	2159.896
141.585	17.282	2162.097	2156.817
142.600	17.170	2160.295	2153.336
143.614	17.269	2158.813	2152.865
144.629	17.195	2156.702	2149.556
145.643	17.063	2155.481	2146.402
146.658	17.007	2154.118	2144.079
147.673	16.941	2151.487	2140.364
148.687	17.085	2151.212	2141.664
149.702	17.348	2150.163	2143.693
150.716	17.498	2149.328	2144.500
151.731	17.418	2148.098	2142.011
152.746	17.311	2147.254	2139.557
153.760	18.105	2149.744	2151.830
154.775	20.885	2157.792	2194.880
155.789	21.907	2155.447	2205.146
156.804	19.164	2144.828	2159.491
157.819	17.393	2137.659	2129.751
158.833	17.264	2134.353	2124.583
159.848	17.314	2132.301	2122.907
160.862	17.269	2131.573	2121.372
161.877	17.451	2130.289	2122.122
162.892	17.404	2129.292	2120.287
163.906	17.484	2128.129	2119.867
164.921	17.528	2125.050	2117.097
165.935	17.385	2123.897	2113.911
166.950	17.543	2121.878	2113.626
167.964	17.598	2119.789	2111.968
168.979	17.427	2116.243	2106.060
169.994	17.209	2115.912	2102.767
171.008	17.242	2114.081	2101.110
172.023	17.112	2112.695	2097.861
173.037	17.289	2112.868	2099.983
174.052	17.548	2110.580	2100.669
175.067	17.440	2108.248	2096.763
176.081	17.348	2106.622	2093.746
177.096	17.357	2106.844	2093.826
178.110	17.456	2104.845	2092.814
179.125	17.523	2103.680	2092.233
180.140	17.437	2101.851	2089.106
181.154	17.489	2100.899	2088.551
182.169	17.531	2100.738	2088.662
183.183	18.347	2103.376	2101.103
184.198	21.565	2110.925	2148.155
185.213	22.139	2107.965	2151.953
186.227	19.028	2097.604	2102.952
187.242	17.807	2092.028	2082.144
188.256	17.545	2090.491	2077.146
189.271	17.433	2088.988	2074.035
190.286	17.325	2087.862	2071.348
191.300	17.482	2084.982	2070.164
192.315	17.508	2082.512	2067.783
193.329	17.580	2082.098	2067.997
194.344	17.795	2081.178	2069.453
195.359	17.689	2080.039	2066.792
196.373	17.492	2077.727	2061.843
197.388	17.298	2075.152	2056.687
198.402	17.199	2073.568	2053.663
199.417	17.229	2070.841	2051.080
200.432	17.435	2068.284	2050.804
201.446	17.311	2068.299	2049.065
202.461	17.353	2066.939	2047.980
203.475	17.173	2064.656	2043.298
204.490	17.209	2063.079	2041.935
205.504	17.372	2060.986	2041.578
206.519	17.420	2058.743	2039.692
207.534	17.385	2057.692	2037.981
208.548	17.370	2056.114	2035.999
209.563	17.335	2055.666	2034.884
210.577	17.529	2052.987	2034.329
211.592	17.509	2053.332	2034.178
212.607	18.929	2058.199	2055.839
213.621	22.340	2066.243	2104.713
214.636	21.661	2059.781	2089.740
215.650	18.453	2049.760	2040.983
216.665	17.433	2046.433	2025.218
217.680	17.416	2044.835	2023.198
218.694	17.356	2042.270	2019.700
219.709	17.316	2040.468	2017.203
220.723	17.333	2039.993	2016.694
221.738	17.513	2038.103	2016.726
222.753	17.690	2035.445	2015.957
223.767	17.564	2034.381	2013.168
224.782	17.460	2032.477	2009.801
225.796	17.449	2030.482	2007.461
226.811	17.334	2029.112	2004.507
227.826	17.332	2028.569	2003.703
228.840	17.185	2026.857	2000.040
229.855	17.232	2024.772	1998.291
230.869	17.363	2023.511	1998.362
231.884	17.223	2022.830	1995.798
232.899	17.264	2020.915	1994.148
233.913	17.373	2019.405	1993.705
234.928	17.392	2017.988	1992.293
235.942	17.406	2015.858	1990.113
236.957	17.337	2014.571	1987.797
237.972	17.374	2013.409	1986.843
238.986	17.243	2012.670	1984.340
240.001	17.291	2010.348	1982.374
241.015	17.479	2010.190	1984.183
242.030	18.254	2012.733	1995.542
243.045	21.117	2019.423	2035.550
244.059	21.564	2015.651	2036.736
245.074	18.702	2005.726	1993.113
246.088	17.734	2001.282	1977.186
247.103	17.646	2001.723	1976.357
248.117	17.712	1998.852	1974.057
249.132	17.547	1997.044	1970.111
250.147	17.480	1994.888	1966.974
251.161	17.485	1993.803	1965.726
252.176	17.662	1993.516	1967.256
253.190	17.849	1991.521	1967.225
254.205	17.863	1989.115	1964.772
255.220	17.910	1988.754	1964.722
256.234	17.852	1986.120	1961.211
257.249	17.540	1984.989	1956.267
258.263	17.381	1983.010	1952.249
259.278	17.286	1982.466	1950.375
260.293	17.247	1980.845	1948.104
261.307	17.172	1979.101	1945.291
262.322	17.405	1976.319	1945.005
263.336	17.406	1974.891	1943.376
264.351	17.164	1973.522	1939.015
265.366	17.177	1972.790	1938.219
266.380	17.309	1971.255	1937.983
267.395	17.316	1969.896	1936.498
268.409	17.323	1968.816	1935.283
269.424	17.208	1967.540	1932.480
270.439	17.287	1967.025	1932.649
271.453	18.353	1970.001	1947.531
272.468	21.537	1974.881	1988.547
273.482	21.718	1971.298	1986.773
274.497	18.612	1960.587	1940.478
275.512	17.420	1956.423	1922.589
276.526	17.367	1953.654	1919.040
277.541	17.277	1952.394	1916.552
278.555	17.200	1950.371	1913.469
279.570	17.117	1949.321	1911.271
280.585	17.261	1948.331	1911.699
281.599	17.191	1947.471	1909.836
282.614	17.523	1945.872	1911.785
283.628	17.825	1946.328	1915.415
284.643	17.871	1945.603	1914.986
285.657	18.102	1944.070	1915.849
286.672	18.209	1941.568	1914.357
287.687	18.026	1939.940	1910.466
288.701	17.949	1938.297	1907.759
289.716	17.799	1937.392	1904.953
290.730	17.705	1936.561	1902.861
291.745	18.069	1934.354	1904.539
292.760	18.024	1933.280	1902.752
293.774	17.671	1933.066	1898.358
294.789	17.627	1931.240	1895.847
295.803	17.445	1929.072	1891.462
296.818	17.414	1927.776	1889.610
297.833	17.611	1926.793	1890.627
298.847	17.606	1925.341	1888.914
299.862	17.611	1923.880	1887.310
300.876	18.331	1925.427	1896.619
301.891	21.545	1932.410	1939.127
302.906	21.997	1929.622	1941.119
303.920	18.859	1920.620	1897.074
304.935	17.868	1915.463	1880.773
305.949	17.693	1913.070	1876.270
306.964	17.653	1911.692	1874.247
307.979	17.757	1910.765	1874.264
308.993	17.916	1909.327	1874.386
310.008	18.061	1909.473	1875.908
311.022	18.347	1907.339	1876.737
312.037	18.051	1905.804	1871.742
313.052	18.033	1904.353	1869.895
314.066	18.126	1903.190	1869.547
315.081	18.027	1901.749	1866.828
316.095	17.982	1899.800	1864.197
317.110	17.783	1898.550	1860.562
318.125	17.685	1896.730	1857.483
319.139	17.483	1895.959	1854.297
320.154	17.638	1893.302	1853.167
321.168	17.764	1891.551	1852.603
322.183	17.604	1890.052	1849.172
323.197	17.408	1888.672	1845.466
324.212	17.322	1886.824	1842.496
325.227	17.139	1884.027	1837.556
326.241	17.310	1883.002	1838.196
327.256	17.341	1882.850	1838.168
328.270	17.224	1882.296	1836.134
329.285	17.325	1881.422	1836.160
330.300	18.285	1886.505	1851.338
331.314	21.683	1891.982	1893.475
332.329	21.806	1886.471	1889.066
333.343	18.532	1877.254	1844.274
334.358	17.414	1873.059	1827.863
335.373	17.219	1871.428	1823.951
336.387	17.231	1869.202	1821.693
337.402	17.160	1868.359	1819.881
338.416	17.431	1866.051	1820.329
339.431	17.316	1866.125	1818.955
340.446	17.508	1863.966	1818.692
341.460	17.667	1862.949	1819.182
342.475	17.864	1862.620	1820.757
343.489	17.977	1860.727	1819.896
344.504	18.000	1860.252	1819.464
345.519	17.849	1859.137	1816.541
346.533	17.991	1856.993	1815.750
347.548	18.374	1856.785	1819.416
348.562	18.477	1855.517	1819.052
349.577	18.294	1853.937	1815.338
350.592	18.224	1852.396	1812.864
351.606	18.262	1851.841	1812.508
352.621	18.432	1848.735	1811.064
353.635	18.123	1847.550	1806.397
354.650	17.830	1846.885	1802.422
355.665	17.843	1843.839	1799.372
356.679	17.694	1842.866	1796.631
357.694	17.657	1841.375	1794.571
358.708	17.691	1840.806	1794.160
359.723	18.906	1844.812	1810.718
360.738	22.045	1850.214	1849.083
361.752	21.640	1844.484	1838.865
362.767	18.771	1835.948	1799.949
363.781	17.754	1833.296	1786.434
364.796	17.645	1831.252	1783.085
365.810	17.571	1829.932	1780.806
366.825	17.616	1828.665	1779.838
367.840	17.631	1827.644	1778.785
368.854	17.777	1826.638	1779.121
369.869	17.741	1825.633	1777.552
370.883	17.965	1823.749	1777.853
371.898	18.055	1824.294	1779.109
372.913	17.991	1822.928	1776.898
373.927	18.014	1822.851	1776.853
374.942	18.180	1821.300	1776.857
375.956	18.044	1819.677	1773.641
376.971	17.882	1816.645	1768.787
377.986	17.837	1814.493	1766.016
379.000	17.914	1813.464	1765.601
380.015	17.871	1811.900	1763.421
381.029	17.432	1810.023	1756.823
382.044	17.227	1807.801	1752.337
383.059	17.311	1806.120	1751.369
384.073	17.252	1806.463	1750.872
385.088	17.337	1804.368	1749.512
386.102	17.236	1802.629	1746.582
387.117	17.320	1801.100	1745.751
388.132	17.268	1800.198	1744.134
389.146	18.220	1804.756	1758.182
390.161	21.675	1809.880	1798.685
391.175	21.511	1803.188	1790.135
392.190	18.354	1794.130	1748.571
393.205	17.577	1790.382	1736.755
394.219	17.462	1788.553	1733.596
395.234	17.326	1788.269	1731.719
396.248	17.529	1785.763	1731.155
397.263	17.270	1783.758	1726.363
398.278	17.341	1782.485	1725.648
399.292	17.380	1781.274	1724.664
400.307	17.413	1780.458	1724.008
401.321	17.596	1778.882	1724.143
402.336	17.666	1778.957	1724.714
403.350	17.856	1777.392	1724.926
404.365	17.799	1776.492	1723.266
405.380	17.963	1775.841	1724.088
406.394	18.181	1775.438	1725.707
407.409	18.267	1773.474	1724.457
408.423	18.216	1772.413	1722.701
409.438	18.222	1770.673	1720.865
410.453	18.135	1769.354	1718.506
411.467	18.084	1769.596	1718.013
412.482	18.184	1767.239	1716.532
413.496	17.790	1765.162	1710.335
414.511	17.809	1762.677	1707.917
415.526	17.655	1760.491	1704.046
416.540	17.621	1758.974	1702.032
417.555	17.484	1759.263	1700.736
418.569	17.699	1759.648	1703.060
419.584	17.740	1759.304	1702.938
420.599	17.772	1758.292	1702.073
421.613	17.670	1756.228	1698.846
422.628	17.581	1754.658	1696.232
423.642	17.532	1752.496	1693.457
424.657	17.448	1752.213	1692.142
425.672	17.744	1749.665	1692.433
426.686	17.664	1748.662	1690.462
427.701	17.569	1747.751	1688.429
428.715	17.777	1746.143	1688.738
429.730	17.897	1745.726	1689.328
430.745	17.905	1743.116	1686.682
431.759	17.748	1743.508	1685.301
432.774	17.996	1743.175	1687.235
433.788	18.434	1743.152	1691.366
434.803	18.709	1742.691	1693.438
435.818	18.560	1741.860	1690.950
436.832	18.412	1741.117	1688.558
437.847	17.415	1733.993	1671.611
438.861	9.610	1712.987	1574.749
439.876	1.675	1697.825	1483.127
440.890	0.207	1694.770	1465.929
441.905	0.114	1694.095	1464.255
442.920	0.144	1692.910	1463.355
443.934	0.178	1690.762	1461.653
444.949	0.180	1689.567	1460.462
445.963	0.044	1689.647	1459.034
446.978	0.080	1688.469	1458.192
447.993	0.032	1687.627	1456.819
449.007	0.251	1684.477	1456.060
450.022	0.216	1682.707	1454.007
451.036	0.206	1681.902	1453.044
452.051	1.095	1686.802	1465.747
453.066	9.090	1703.523	1558.352
454.080	16.815	1716.549	1645.767
455.095	18.728	1719.528	1667.121
456.109	19.696	1719.984	1676.801
457.124	19.822	1719.475	1677.336
458.139	19.941	1718.793	1677.629
459.153	20.174	1717.703	1678.635
460.168	20.327	1716.012	1678.264
461.182	20.084	1714.609	1674.336
462.197	20.018	1712.351	1671.287
463.212	19.647	1711.408	1666.574
464.226	19.756	1710.143	1666.191
465.241	20.187	1708.584	1668.645
466.255	20.376	1708.203	1669.907
467.270	20.194	1707.219	1666.983
468.285	19.962	1705.241	1662.612
469.299	19.874	1703.012	1659.393
470.314	20.002	1702.353	1659.782
471.328	19.988	1700.934	1658.065
472.343	20.090	1700.580	1658.506
473.358	20.023	1699.347	1656.461
474.372	20.191	1697.335	1655.910
475.387	19.955	1695.770	1651.925
476.401	19.805	1694.277	1648.834
477.416	19.797	1692.734	1647.057
478.430	20.001	1691.259	1647.374
479.445	19.740	1690.122	1643.584
480.460	19.621	1688.617	1640.785
481.474	19.821	1687.372	1641.288
482.489	20.137	1687.186	1643.919
483.503	20.477	1686.589	1646.380
484.518	20.517	1684.877	1644.891
485.533	20.345	1683.453	1641.674
486.547	20.278	1682.023	1639.445
487.562	20.650	1681.376	1642.151
488.576	20.680	1679.823	1640.722
489.591	20.401	1678.896	1636.971
490.606	20.274	1676.870	1633.600
491.620	20.450	1675.070	1633.316
492.635	20.655	1675.066	1635.056
493.649	20.995	1672.917	1635.966
494.664	20.304	1671.130	1627.511
495.679	19.888	1668.992	1621.320
496.693	19.964	1668.189	1621.058
497.708	20.184	1668.176	1622.925
498.722	20.487	1668.082	1625.490
499.737	20.725	1665.944	1625.443
500.752	20.390	1664.113	1620.320
501.766	20.176	1662.642	1616.692
502.781	20.366	1661.058	1616.733
503.795	20.591	1659.452	1617.081
504.810	20.440	1658.821	1614.856
505.825	20.605	1658.961	1616.350
506.839	20.730	1657.179	1615.586
507.854	20.707	1655.631	1613.667
508.868	20.701	1654.004	1611.828
509.883	20.707	1652.612	1610.335
510.898	20.972	1651.974	1611.985
511.912	20.679	1650.277	1607.412
512.927	20.476	1648.358	1603.471
513.941	20.452	1647.055	1601.793
514.956	20.254	1645.365	1598.122
515.971	20.169	1644.411	1596.220
516.985	20.471	1643.143	1597.585
518.000	20.494	1643.522	1597.980
519.014	20.803	1642.185	1599.334
520.029	20.949	1641.072	1599.409
521.043	20.889	1639.080	1596.725
522.058	20.806	1638.120	1594.836
523.073	20.942	1638.096	1595.873
524.087	21.171	1637.929	1597.621
525.102	21.202	1635.535	1595.379
526.116	20.641	1633.361	1587.927
527.131	20.484	1633.287	1586.226
528.146	20.992	1632.671	1590.096
529.160	21.242	1631.057	1590.619
530.175	21.027	1630.417	1587.835
531.189	21.171	1629.436	1588.009
532.204	21.252	1627.043	1586.223
533.219	20.833	1625.576	1580.784
534.233	20.470	1624.658	1576.391
535.248	20.703	1624.790	1578.453
536.262	21.324	1623.822	1582.983
537.277	21.215	1622.274	1580.290
538.292	20.989	1619.650	1575.495
539.306	20.789	1618.424	1572.296
540.321	20.885	1616.371	1570.987
541.335	20.642	1615.254	1567.508
542.350	20.871	1614.559	1568.722
543.365	21.312	1612.145	1570.176
544.379	21.185	1611.713	1568.422
545.394	21.253	1611.019	1568.168
546.408	20.965	1609.567	1563.967
547.423	20.484	1606.882	1556.846
548.438	20.390	1605.983	1554.942
549.452	20.736	1605.499	1557.394
550.467	21.078	1604.181	1559.008
551.481	21.136	1603.113	1558.302
552.496	21.263	1603.415	1559.552
553.511	21.645	1601.975	1561.385
554.525	21.464	1600.678	1558.309
555.540	21.526	1600.992	1558.983
556.554	21.578	1599.892	1558.195
557.569	21.653	1596.852	1555.716
558.583	21.359	1595.836	1551.920
559.598	21.210	1594.846	1549.441
560.613	21.257	1593.825	1548.679
561.627	21.331	1592.589	1547.951
562.642	21.561	1592.048	1549.287
563.656	21.751	1591.351	1550.112
564.671	21.840	1590.070	1549.470
565.686	21.698	1588.526	1546.524
566.700	21.466	1586.112	1541.931
567.715	21.182	1584.773	1537.934
568.729	21.074	1582.194	1534.285
569.744	20.829	1580.671	1530.462
570.759	20.863	1579.629	1529.575
571.773	20.984	1579.559	1530.388
572.788	21.142	1578.699	1530.769
573.802	21.400	1577.386	1531.585
574.817	21.563	1576.788	1532.253
575.832	21.963	1575.258	1534.096
576.846	21.816	1574.596	1531.978
577.861	21.688	1572.244	1528.387
578.875	21.653	1572.542	1528.187
579.890	21.897	1571.591	1529.217
580.905	21.806	1570.493	1527.171
581.919	22.049	1569.986	1528.618
582.934	22.243	1569.040	1529.209
583.948	21.999	1568.193	1526.067
584.963	21.837	1566.399	1522.723
585.978	21.510	1564.990	1518.320
586.992	21.800	1564.468	1520.160
588.007	21.832	1563.274	1519.102
589.021	21.304	1561.033	1512.144
590.036	20.784	1558.402	1504.904
591.051	21.251	1557.871	1508.261
592.065	21.520	1557.248	1509.811
593.080	21.803	1556.334	1511.202
594.094	21.770	1554.538	1508.986
595.109	21.441	1552.345	1503.836
596.123	21.128	1550.396	1499.063
597.138	21.426	1550.199	1501.270
598.153	21.770	1549.198	1503.081
599.167	21.774	1548.689	1502.442
600.182	21.853	1547.739	1502.023
601.196	22.017	1546.655	1502.204
602.211	21.850	1545.151	1499.128
603.226	22.139	1544.437	1500.740
604.240	22.273	1542.900	1500.209
605.255	22.316	1542.373	1499.885
606.269	22.220	1541.985	1498.511
607.284	22.255	1540.064	1496.760
608.299	22.218	1538.945	1495.181
609.313	22.092	1537.371	1492.397
610.328	22.139	1536.362	1491.636
611.342	22.215	1534.679	1490.472
612.357	22.450	1534.108	1491.745
613.372	22.437	1533.257	1490.628
614.386	22.284	1532.654	1488.558
615.401	22.331	1531.656	1487.815
616.415	22.354	1531.576	1487.753
617.430	22.441	1530.082	1486.859
618.445	22.518	1529.174	1486.449
619.459	22.364	1527.384	1483.232
620.474	21.941	1525.573	1477.713
621.488	21.446	1522.963	1470.827
622.503	21.224	1521.481	1467.347
623.518	21.659	1521.769	1471.116
624.532	22.260	1521.280	1475.541
625.547	22.474	1520.143	1476.062
626.561	22.676	1520.310	1477.755
627.576	22.792	1519.192	1477.465
628.591	22.219	1516.199	1469.566
629.605	21.786	1514.747	1464.346
630.620	21.547	1513.105	1460.582
631.634	21.270	1512.056	1457.071
632.649	21.422	1511.367	1457.505
633.663	21.850	1510.349	1459.930
634.678	22.204	1510.200	1462.570
635.693	22.523	1509.370	1464.259
636.707	22.783	1508.070	1464.988
637.722	22.952	1507.519	1465.694
638.736	22.957	1506.530	1464.591
639.751	23.059	1505.388	1464.158
640.766	22.809	1503.726	1460.292
641.780	22.773	1502.709	1458.828
642.795	22.643	1501.220	1456.125
643.809	22.779	1500.351	1456.235
644.824	22.774	1499.362	1455.059
645.839	22.575	1498.168	1452.081
646.853	22.723	1497.537	1452.525
647.868	22.641	1495.887	1450.070
648.882	22.573	1494.561	1448.048
649.897	22.512	1493.724	1446.558
650.912	22.456	1492.051	1444.310
651.926	22.556	1490.112	1443.078
652.941	22.020	1489.026	1437.445
653.955	21.597	1486.485	1431.349
654.970	21.459	1483.957	1427.605
655.985	21.398	1482.505	1425.538
656.999	21.473	1482.048	1425.541
658.014	21.837	1481.087	1427.428
659.028	22.044	1481.294	1429.152
660.043	22.303	1480.781	1430.598
661.058	22.467	1479.949	1430.968
662.072	22.644	1478.782	1431.111
663.087	22.605	1477.283	1429.168
664.101	22.536	1476.366	1427.554
665.116	22.632	1475.960	1427.772
666.131	22.783	1475.193	1428.083
667.145	22.949	1473.755	1427.874
668.160	22.919	1472.746	1426.477
669.174	23.285	1471.803	1428.363
670.189	23.041	1470.936	1425.372
671.204	22.888	1468.826	1421.919
672.218	23.035	1468.348	1422.478
673.233	23.209	1467.080	1422.481
674.247	23.318	1466.919	1423.037
675.262	23.296	1466.213	1422.006
676.276	23.306	1464.803	1420.548
677.291	23.061	1463.724	1417.352
678.306	22.826	1461.544	1413.188
679.320	23.021	1460.427	1413.505
680.335	23.082	1460.479	1413.873
681.349	23.276	1459.846	1414.650
682.364	23.385	1458.709	1414.251
683.379	23.199	1457.270	1411.197
684.393	23.091	1456.157	1409.085
685.408	23.175	1454.660	1408.145
686.422	23.165	1453.503	1406.771
687.437	23.206	1453.272	1406.708
688.452	23.440	1452.942	1408.087
689.466	23.429	1451.104	1406.055
690.481	23.234	1448.704	1402.006
691.495	22.800	1447.306	1397.031
692.510	22.025	1445.514	1388.977
693.525	21.465	1443.911	1382.818
694.539	21.991	1443.449	1386.388
695.554	22.674	1444.241	1392.409
696.568	23.204	1443.707	1395.924
697.583	23.389	1443.074	1396.615
698.598	23.347	1442.195	1395.262
699.612	23.552	1440.603	1395.176
700.627	23.518	1439.468	1393.643
701.641	23.502	1438.261	1392.186
702.656	23.437	1437.039	1390.316
703.671	23.551	1437.898	1391.881
704.685	23.446	1437.423	1390.428
705.700	23.627	1435.074	1389.417
706.714	23.441	1433.008	1385.784
707.729	23.065	1431.362	1381.077
708.744	23.012	1429.315	1378.523
709.758	22.917	1427.828	1376.179
710.773	22.461	1426.852	1371.503
711.787	22.268	1425.381	1368.421
712.802	22.444	1423.961	1368.266
713.816	22.805	1423.890	1370.856
714.831	23.063	1423.942	1372.751
715.846	23.371	1422.465	1373.562
716.860	23.604	1421.191	1373.984
717.875	23.291	1421.184	1371.373
718.889	23.219	1419.773	1369.288
719.904	23.442	1419.055	1370.166
720.919	23.369	1418.324	1368.731
721.933	23.668	1417.402	1369.996
722.948	23.701	1416.610	1369.325
723.962	23.704	1414.697	1367.329
724.977	23.828	1413.793	1367.253
725.992	23.909	1412.917	1366.864
727.006	23.698	1411.859	1364.055
728.021	23.890	1409.886	1363.463
729.035	23.842	1409.121	1362.194
730.050	23.629	1408.010	1359.314
731.065	23.726	1406.828	1358.755
732.079	23.931	1406.022	1359.387
733.094	23.753	1404.708	1356.590
734.108	23.588	1403.216	1353.720
735.123	23.725	1401.793	1353.234
736.138	23.686	1401.125	1352.134
737.152	23.671	1400.816	1351.554
738.167	23.943	1399.397	1352.102
739.181	23.881	1398.937	1351.021
740.196	24.029	1398.004	1351.093
741.211	23.819	1397.311	1348.656
742.225	23.931	1396.266	1348.342
743.240	23.698	1394.603	1344.798
744.254	23.879	1393.078	1344.543
745.269	23.720	1392.386	1342.511
746.284	23.833	1390.883	1341.759
747.298	23.496	1389.763	1337.962
748.313	23.186	1387.786	1333.547
749.327	22.773	1385.594	1328.161
750.342	22.115	1384.444	1321.925
751.356	21.796	1383.015	1317.990
752.371	22.082	1382.972	1319.950
753.386	22.862	1383.945	1326.617
754.400	23.681	1383.248	1331.964
755.415	23.925	1382.176	1332.612
756.429	24.075	1380.451	1331.919
757.444	24.014	1379.915	1330.787
758.459	24.007	1379.113	1329.795
759.473	24.100	1378.840	1330.072
760.488	24.136	1377.445	1328.837
761.502	24.021	1376.130	1326.551
762.517	24.046	1374.652	1325.150
763.532	23.826	1372.678	1321.447
764.546	23.318	1371.881	1316.727
765.561	22.890	1369.363	1310.962
766.575	22.233	1368.054	1304.653
767.590	22.311	1366.710	1303.798
768.605	22.841	1366.993	1307.855
769.619	23.316	1366.285	1310.557
770.634	23.641	1365.752	1312.306
771.648	23.922	1365.354	1313.850
772.663	24.064	1364.934	1314.344
773.678	24.244	1363.573	1314.212
774.692	24.097	1363.170	1312.574
775.707	24.153	1362.561	1312.247
776.721	24.280	1361.830	1312.328
777.736	24.125	1360.536	1309.775
778.751	24.139	1359.200	1308.438
779.765	24.048	1358.530	1306.961
780.780	24.161	1357.615	1306.762
781.794	24.136	1356.983	1305.813
782.809	23.996	1355.178	1302.885
783.824	23.868	1353.301	1299.988
784.838	23.368	1350.977	1293.926
785.853	22.476	1350.542	1286.811
786.867	22.900	1349.570	1288.840
787.882	23.240	1349.676	1291.277
788.897	23.454	1349.323	1292.351
789.911	23.499	1348.947	1292.172
790.926	23.831	1347.211	1292.778
791.940	24.011	1346.404	1293.167
792.955	24.076	1344.717	1291.864
793.969	24.025	1343.990	1290.638
794.984	24.000	1342.825	1289.185
795.999	24.253	1342.008	1290.088
797.013	24.436	1340.057	1289.384
798.028	24.273	1338.941	1286.977
799.042	24.325	1338.868	1287.131
800.057	24.453	1338.154	1287.214
801.072	24.368	1336.447	1284.807
802.086	24.447	1335.074	1283.902
803.101	24.414	1334.404	1282.867
804.115	24.573	1333.176	1282.680
805.130	24.474	1332.500	1281.163
806.145	24.378	1331.508	1279.365
807.159	24.312	1330.049	1277.335
808.174	24.128	1328.336	1274.209
809.188	24.049	1326.764	1271.983
810.203	23.810	1324.857	1268.290
811.218	23.330	1322.919	1262.839
812.232	22.845	1321.211	1257.592
813.247	22.720	1320.510	1255.878
814.261	23.267	1321.100	1260.203
815.276	23.777	1320.907	1263.514
816.291	23.991	1319.592	1263.629
817.305	24.318	1319.001	1265.246
818.320	24.280	1317.580	1263.464
819.334	24.213	1316.890	1262.173
820.349	24.444	1315.509	1262.342
821.364	24.534	1314.212	1261.580
822.378	24.564	1312.414	1259.917
823.393	24.474	1311.135	1257.903
824.407	24.463	1310.244	1256.820
825.422	24.280	1310.239	1255.367
826.437	24.336	1308.465	1253.918
827.451	24.043	1306.206	1249.532
828.466	23.277	1303.374	1241.280
829.480	22.947	1301.608	1237.127
830.495	23.365	1300.567	1238.928
831.509	23.823	1300.369	1241.807
832.524	24.112	1300.406	1243.723
833.539	24.244	1299.083	1243.232
834.553	24.519	1297.643	1243.632
835.568	24.470	1297.272	1242.785
836.582	24.561	1296.621	1242.654
837.597	24.519	1294.808	1240.471
838.612	24.576	1292.924	1238.917
839.626	24.336	1292.089	1236.295
840.641	23.935	1290.743	1232.066
841.655	23.638	1289.603	1228.766
842.670	23.016	1287.027	1221.846
843.685	22.431	1286.717	1217.339
844.699	23.218	1286.615	1222.564
845.714	23.698	1286.026	1225.185
846.728	24.015	1284.502	1225.782
847.743	24.262	1284.098	1226.958
848.758	24.371	1283.094	1226.608
849.772	24.593	1282.141	1227.084
850.787	24.433	1281.494	1225.216
851.801	24.612	1280.088	1224.958
852.816	24.378	1278.889	1222.052
853.831	24.380	1276.680	1219.810
854.845	24.369	1274.907	1217.889
855.860	24.195	1273.199	1214.923
856.874	23.833	1272.222	1211.368
857.889	23.548	1270.219	1207.361
858.904	23.236	1268.040	1203.018
859.918	22.825	1266.156	1198.280
860.933	22.557	1264.946	1195.166
861.947	22.996	1265.417	1198.459
862.962	23.672	1264.497	1202.050
863.977	23.656	1264.051	1201.374
864.991	23.871	1263.968	1202.615
866.006	24.133	1263.743	1204.037
867.020	24.335	1262.653	1204.224
868.035	24.350	1261.217	1202.813
869.049	24.639	1260.242	1203.696
870.064	24.568	1259.441	1202.304
871.079	24.496	1259.031	1201.284
872.093	24.354	1257.843	1199.044
873.108	24.515	1256.269	1198.490
874.122	24.101	1254.493	1193.862
875.137	23.414	1253.301	1187.954
876.152	23.395	1252.004	1186.460
877.166	23.657	1250.722	1186.860
878.181	23.975	1250.013	1188.181
879.195	24.365	1250.017	1190.659
880.210	24.538	1249.255	1190.952
881.225	24.539	1248.290	1189.899
882.239	24.358	1247.895	1188.167
883.254	24.571	1246.834	1188.436
884.268	24.505	1246.074	1187.127
885.283	24.561	1244.507	1185.868
886.298	24.564	1242.841	1184.158
887.312	24.523	1241.897	1182.846
888.327	24.587	1240.887	1182.168
889.341	24.466	1239.678	1180.072
890.356	24.318	1239.347	1178.632
891.371	24.171	1239.315	1177.481
892.385	24.064	1238.044	1175.426
893.400	24.029	1236.874	1173.937
894.414	23.906	1235.058	1171.264
895.429	23.624	1232.040	1166.398
896.444	22.774	1229.467	1158.215
897.458	22.186	1228.540	1153.330
898.473	22.707	1229.018	1157.072
899.487	23.571	1228.701	1162.326
900.502	24.070	1228.060	1164.866
901.517	24.110	1227.119	1164.097
902.531	24.221	1226.676	1164.267
903.546	24.298	1226.460	1164.425
904.560	24.423	1225.733	1164.418
905.575	24.451	1224.512	1163.304
906.589	24.466	1223.456	1162.261
907.604	24.339	1222.963	1160.821
