DTS Sentinel unit serial number:	SN409020Multiplexer serial number:	ORYXHardware model number:	OX4-SRSoftware version number:	ORYX F/W v3.00 Oryx Data Collector v3.7.2.0data status	okinstallation	HaddamTimeLapsedifferential loss correction	single-endedforward channel	channel 3reverse channel	N/Adate	2011/06/21time	17:06:16forward acquisition time	30.00reverse acquisition time	0.00gamma	498.7831k internal	0.1789k external	0.1789temperature offset calibration	1.0074default loss term (dB/km)	0.3790temperature slope calibration	1.3530multiplexer offset coefficient	1.0000multiplexer slope coefficient	1.0000fibre end	0.00T internal ref (°C)	32.50T ext. ref 1 (°C)	28.48T ext. ref 2 (°C)	0.25length (m)	temperature (°C)	Stokes	anti-Stokes-747.200	141.161	0.158	-0.272
-746.185	-200.000	0.050	0.562
-745.171	-200.000	-0.038	-0.478
-744.156	-53.566	-0.149	0.088
-743.142	18.600	-0.382	-0.397
-742.127	41.993	-0.308	0.364
-741.112	-61.601	-0.185	-0.101
-740.098	185.751	-0.229	0.445
-739.083	-46.078	0.124	-0.079
-738.069	-200.000	-0.022	0.561
-737.054	61.709	0.236	0.306
-736.039	-30.967	-0.605	0.443
-735.025	-98.934	-0.222	0.073
-734.010	-200.000	0.025	-0.386
-732.996	-103.877	0.259	-0.078
-731.981	-92.664	0.182	-0.066
-730.966	-104.482	-0.404	-0.121
-729.952	505.148	-0.074	0.224
-728.937	259.345	0.079	-0.179
-727.923	553.920	0.075	0.236
-726.908	433.251	-0.044	0.124
-725.894	-51.152	-0.278	-0.169
-724.879	-6.229	0.241	0.213
-723.864	441.183	-0.151	0.431
-722.850	110.679	0.162	0.254
-721.835	663.427	-0.065	-0.219
-720.821	44.579	0.154	-0.184
-719.806	-154.203	0.492	-0.043
-718.791	-200.000	0.025	0.221
-717.777	-76.223	-0.448	-0.205
-716.762	479.872	0.039	0.115
-715.748	-76.260	-0.455	-0.207
-714.733	-200.000	-0.048	0.326
-713.718	403.937	0.111	0.304
-712.704	-200.000	0.041	0.339
-711.689	408.623	-0.052	0.144
-710.675	-125.370	-0.605	0.119
-709.660	24.773	-0.359	0.386
-708.645	15.884	0.367	0.375
-707.631	103.646	0.238	0.364
-706.616	800.000	0.052	-0.255
-705.602	-70.367	-0.123	0.060
-704.587	-84.019	0.242	0.099
-703.572	-2.566	0.169	0.153
-702.558	-200.000	0.047	-0.365
-701.543	-66.030	0.164	0.085
-700.529	151.126	-0.175	0.309
-699.514	77.478	0.056	0.078
-698.499	-172.527	-0.458	-0.018
-697.485	-181.511	-0.168	0.004
-696.470	-107.494	-0.281	-0.079
-695.456	-43.303	0.439	-0.287
-694.441	-200.000	0.001	-0.293
-693.426	289.923	0.018	0.044
-692.412	-142.847	-0.130	0.016
-691.397	-200.000	-0.008	0.173
-690.383	186.048	0.028	-0.054
-689.368	35.630	0.208	0.237
-688.354	-177.338	0.360	0.011
-687.339	40.569	-0.065	0.075
-686.324	81.867	0.312	0.439
-685.310	-51.788	-0.264	-0.159
-684.295	-91.884	-0.296	-0.108
-683.281	-200.000	-0.003	-0.368
-682.266	45.467	0.155	-0.185
-681.251	800.000	-0.134	0.568
-680.237	-117.770	0.412	0.095
-679.222	-104.665	0.618	-0.184
-678.208	-127.746	0.071	0.013
-677.193	741.186	0.067	0.234
-676.178	6.022	-0.144	-0.138
-675.164	-19.358	-0.359	-0.288
-674.149	-45.996	-0.388	0.247
-673.135	-69.226	-0.057	-0.028
-672.120	-198.134	-0.514	-0.004
-671.105	-4.625	-0.370	0.331
-670.091	126.347	-0.252	-0.415
-669.076	-71.896	0.535	-0.257
-668.062	35.438	0.317	0.361
-667.047	206.586	-0.109	-0.220
-666.032	-99.628	-0.346	0.112
-665.018	22.895	0.207	-0.220
-664.003	-45.292	0.059	0.038
-662.989	-106.924	0.330	0.094
-661.974	-62.159	-0.541	-0.291
-660.959	33.550	-0.070	-0.079
-659.945	-178.154	-0.571	-0.017
-658.930	-200.000	0.031	-0.289
-657.916	29.581	0.152	0.168
-656.901	-79.725	-0.383	-0.166
-655.886	-73.116	0.512	-0.242
-654.872	106.852	0.325	-0.501
-653.857	-105.296	-0.516	-0.151
-652.843	348.728	0.025	0.065
-651.828	-5.771	0.135	-0.120
-650.814	-75.831	0.238	0.109
-649.799	-26.547	0.410	-0.310
-648.784	16.471	-0.285	-0.292
-647.770	-39.757	-0.121	-0.082
-646.755	-35.692	0.499	-0.350
-645.741	800.000	-0.070	0.310
-644.726	-88.509	-0.214	0.082
-643.711	-72.026	0.291	-0.139
-642.697	372.577	0.095	0.252
-641.682	-157.385	-0.385	-0.030
-640.668	-61.245	0.580	-0.315
-639.653	-101.981	0.373	0.116
-638.638	-200.000	-0.041	0.250
-637.624	-169.575	0.401	0.019
-636.609	-129.080	0.272	-0.049
-635.595	-27.640	-0.103	-0.078
-634.580	-98.327	0.608	-0.201
-633.565	731.405	-0.058	-0.202
-632.551	-200.000	-0.060	-0.441
-631.536	-15.087	-0.329	-0.272
-630.522	-20.088	0.324	0.258
-629.507	20.907	-0.100	0.105
-628.492	68.235	-0.069	0.091
-627.478	-200.000	-0.000	0.045
-626.463	-123.169	0.213	-0.044
-625.449	363.267	0.185	0.482
-624.434	1.927	0.530	-0.495
-623.419	146.831	0.074	0.128
-622.405	339.142	-0.084	0.212
-621.390	-94.082	-0.136	-0.048
-620.376	-200.000	0.136	0.001
-619.361	587.553	-0.099	-0.317
-618.346	90.570	0.211	-0.306
-617.332	-113.992	0.249	0.062
-616.317	-200.000	-0.006	-0.220
-615.303	-98.611	-0.197	-0.065
-614.288	303.994	-0.187	-0.451
-613.273	-142.301	0.449	0.057
-612.259	-200.000	-0.027	0.167
-611.244	0.465	-0.149	0.138
-610.230	-134.504	-0.211	0.033
-609.215	-140.665	-0.674	-0.089
-608.201	242.465	-0.061	0.132
-607.186	-118.055	-0.368	0.084
-606.171	-151.891	-0.317	-0.030
-605.157	259.029	-0.021	-0.047
-604.142	-200.000	0.004	0.217
-603.128	-57.936	0.127	0.072
-602.113	-200.000	-0.115	0.727
-601.098	139.342	0.133	0.226
-600.084	385.656	-0.048	0.129
-599.069	800.000	-0.002	-0.011
-598.055	-39.849	0.511	0.344
-597.040	603.084	-0.078	-0.251
-596.025	-57.652	-0.476	0.269
-595.011	-152.779	-0.331	-0.030
-593.996	800.000	0.027	0.106
-592.982	-90.383	0.300	-0.112
-591.967	196.289	0.247	-0.488
-590.952	271.863	-0.084	0.193
-589.938	-148.681	0.201	-0.021
-588.923	-85.217	0.100	0.040
-587.909	-200.000	-0.040	-0.269
-586.894	-74.526	-0.363	0.168
-585.879	-139.880	-0.124	-0.017
-584.865	737.711	0.043	0.152
-583.850	183.897	0.260	0.499
-582.836	-107.187	0.214	0.060
-581.821	-200.000	-0.020	-0.145
-580.806	8.165	0.125	-0.121
-579.792	-63.462	0.120	0.063
-578.777	800.000	-0.170	0.641
-577.763	-130.389	0.143	0.025
-576.748	800.000	-0.035	-0.127
-575.733	-37.933	0.227	0.155
-574.719	-12.144	0.065	0.055
-573.704	-163.784	0.532	-0.032
-572.690	59.284	0.331	0.421
-571.675	-93.963	0.354	-0.125
-570.661	-142.392	0.227	-0.029
-569.646	800.000	-0.121	-0.514
-568.631	7.198	-0.278	-0.267
-567.617	-67.363	-0.260	0.131
-566.602	-200.000	-0.032	-0.191
-565.588	-61.576	-0.126	0.068
-564.573	260.081	-0.286	-0.640
-563.558	441.307	-0.090	-0.255
-562.544	-77.967	0.293	0.130
-561.529	-11.246	0.107	0.091
-560.515	800.000	0.060	-0.283
-559.500	173.349	-0.199	-0.372
-558.485	629.082	-0.138	-0.452
-557.471	86.619	0.378	0.539
-556.456	-197.902	0.083	0.001
-555.442	-53.570	0.245	-0.144
-554.427	-134.410	0.170	0.027
-553.412	295.664	-0.067	0.159
-552.398	800.000	0.038	0.167
-551.383	241.432	0.147	-0.319
-550.369	-153.562	-0.110	0.010
-549.354	13.296	0.324	-0.323
-548.339	800.000	0.062	-0.276
-547.325	67.987	-0.364	0.481
-546.310	800.000	0.097	-0.429
-545.296	-68.217	0.295	-0.148
-544.281	800.000	-0.085	-0.317
-543.266	202.308	0.154	-0.307
-542.252	-99.696	0.225	0.072
-541.237	-148.729	-0.191	0.020
-540.223	-20.306	-0.327	-0.259
-539.208	663.820	0.043	0.142
-538.193	-21.932	-0.249	0.195
-537.179	334.207	0.062	0.155
-536.164	800.000	-0.097	-0.542
-535.150	335.682	0.242	-0.609
-534.135	-90.677	-0.433	0.160
-533.121	-80.325	0.184	0.079
-532.106	-200.000	-0.059	0.413
-531.091	-200.000	-0.022	0.365
-530.077	-19.861	0.109	0.087
-529.062	-124.869	0.399	0.079
-528.048	-18.448	0.289	0.233
-527.033	-116.615	0.165	0.039
-526.018	126.559	0.213	-0.349
-525.004	-118.267	0.182	-0.041
-523.989	104.811	0.073	-0.112
-522.975	214.687	0.108	-0.221
-521.960	-133.129	-0.422	-0.068
-520.945	-131.673	0.432	-0.072
-519.931	-125.828	0.259	0.050
-518.916	84.594	-0.182	0.258
-517.902	-79.845	-0.412	-0.178
-516.887	-78.686	-0.547	0.240
-515.872	-200.000	-0.043	-0.293
-514.858	28.628	0.094	-0.102
-513.843	-126.394	0.208	0.039
-512.829	-129.494	0.179	-0.032
-511.814	-80.333	-0.348	-0.149
-510.799	-162.274	-0.378	0.024
-509.785	-9.839	-0.265	0.227
-508.770	376.780	-0.056	0.149
-507.756	800.000	-0.044	0.157
-506.741	105.593	-0.250	0.381
-505.726	-91.000	-0.337	-0.124
-504.712	-200.000	-0.000	0.167
-503.697	-172.336	0.518	-0.021
-502.683	4.202	0.291	-0.274
-501.668	64.083	-0.420	-0.545
-500.653	-80.263	-0.217	0.093
-499.639	-82.099	0.297	-0.124
-498.624	51.346	-0.106	-0.130
-497.610	-141.870	0.269	0.034
-496.595	57.567	0.181	0.228
-495.581	-120.127	-0.612	0.134
-494.566	-54.274	-0.465	-0.271
-493.551	800.000	-0.030	0.167
-492.537	800.000	-0.077	-0.320
-491.522	-200.000	0.093	0.552
-490.508	228.344	-0.061	-0.129
-489.493	30.396	0.327	-0.360
-488.478	-98.283	-0.437	-0.143
-487.464	-82.220	-0.288	0.120
-486.449	-96.090	0.259	-0.088
-485.435	-148.044	-0.657	0.069
-484.420	-200.000	-0.061	0.635
-483.405	-130.007	0.102	-0.018
-482.391	-29.027	0.512	0.377
-481.376	-13.834	0.197	-0.164
-480.362	-97.903	0.294	0.097
-479.347	-121.435	0.154	0.033
-478.332	-200.000	0.010	-0.110
-477.318	151.714	0.067	-0.117
-476.303	96.351	0.197	-0.290
-475.289	-122.284	-0.250	0.052
-474.274	-22.265	-0.359	-0.280
-473.259	-122.951	-0.287	0.059
-472.245	-200.000	-0.047	0.377
-471.230	642.625	0.125	0.413
-470.216	-101.965	-0.226	0.070
-469.201	121.179	-0.193	-0.310
-468.186	122.476	0.086	0.139
-467.172	31.298	-0.113	0.125
-466.157	675.634	-0.084	-0.283
-465.143	-67.708	0.283	-0.142
-464.128	-99.222	-0.243	-0.079
-463.113	-68.897	-0.261	-0.129
-462.099	-155.446	0.165	0.014
-461.084	-161.515	0.309	-0.020
-460.070	-71.490	0.212	-0.101
-459.055	371.288	-0.061	0.161
-458.040	-200.000	0.005	-0.540
-457.026	-25.240	-0.145	-0.110
-456.011	57.170	0.078	-0.098
-454.997	424.299	-0.144	-0.400
-453.982	-128.160	0.117	-0.021
-452.968	41.196	-0.293	0.340
-451.953	-135.237	-0.317	-0.048
-450.938	800.000	0.041	0.213
-449.924	-178.690	-0.275	0.008
-448.909	-7.240	-0.241	0.209
-447.895	39.804	0.121	-0.140
-446.880	-113.074	-0.448	0.113
-445.865	87.742	0.041	-0.059
-444.851	106.651	0.176	-0.269
-443.836	-117.960	0.313	0.072
-442.822	-126.328	0.382	0.073
-441.807	-200.000	-0.054	0.457
-440.792	-116.910	0.150	0.035
-439.778	-165.727	0.471	0.026
-438.763	428.493	0.241	0.673
-437.749	-110.207	-0.163	0.043
-436.734	-154.476	-0.306	0.026
-435.719	-84.816	0.110	0.044
-434.705	-93.931	-0.242	-0.085
-433.690	-108.203	-0.185	-0.051
-432.676	-59.355	0.262	0.144
-431.661	72.018	-0.125	0.168
-430.646	9.559	0.014	0.013
-429.632	-200.000	0.010	-0.305
-428.617	-137.524	-0.582	-0.084
-427.603	-115.521	-0.181	-0.043
-426.588	-200.000	0.014	-0.147
-425.573	-200.000	-0.005	-0.557
-424.559	-200.000	0.029	-0.301
-423.544	-143.364	-0.472	0.057
-422.530	-146.048	0.354	-0.040
-421.515	800.000	0.083	0.332
-420.500	96.139	-0.141	0.207
-419.486	-16.028	0.087	-0.071
-418.471	-200.000	-0.023	-0.495
-417.457	-107.745	-0.201	-0.056
-416.442	9.221	-0.504	0.489
-415.428	-200.000	0.002	-0.126
-414.413	179.073	0.097	-0.183
-413.398	73.224	-0.086	-0.115
-412.384	33.354	0.169	-0.188
-411.369	-19.134	0.189	-0.151
-410.355	-17.076	0.238	-0.192
-409.340	-20.272	-0.067	0.053
-408.325	-89.373	-0.398	0.150
-407.311	414.694	-0.078	-0.214
-406.296	-20.003	0.146	-0.116
-405.282	-99.865	-0.253	-0.081
-404.267	-29.685	0.177	-0.129
-403.252	-149.357	0.416	-0.042
-402.238	-24.088	-0.246	-0.188
-401.223	-200.000	-0.495	-0.002
-400.209	-146.683	0.226	0.025
-399.194	451.839	-0.104	0.298
-398.179	551.455	-0.258	0.798
-397.165	642.761	-0.235	0.774
-396.150	-87.978	-0.306	-0.117
-395.136	212.286	0.142	0.288
-394.121	36.445	0.151	-0.171
-393.106	-170.666	0.277	0.012
-392.092	-10.935	0.214	0.181
-391.077	-158.531	0.220	-0.016
-390.063	-9.812	0.379	-0.323
-389.048	-78.793	-0.606	0.264
-388.033	-72.440	-0.105	0.049
-387.019	565.021	0.046	0.143
-386.004	72.316	0.195	0.261
-384.990	-124.045	-0.676	0.135
-383.975	316.209	-0.010	0.023
-382.960	39.342	-0.160	0.184
-381.946	35.836	-0.171	0.193
-380.931	-101.605	0.066	-0.021
-379.917	-44.681	-0.255	-0.163
-378.902	34.776	-0.135	0.151
-377.888	-104.672	0.711	0.208
-376.873	-30.299	-0.242	0.176
-375.858	-116.557	0.227	-0.053
-374.844	438.942	0.013	-0.036
-373.829	-200.000	-0.033	-0.406
-372.815	122.347	0.097	0.155
-371.800	190.613	0.092	-0.178
-370.785	-200.000	0.028	0.278
-369.771	-124.437	0.270	-0.053
-368.756	-200.000	-0.045	0.503
-367.742	-125.614	0.476	0.092
-366.727	520.262	0.011	-0.032
-365.712	94.396	-0.127	0.185
-364.698	71.655	0.082	0.110
-363.683	-9.807	-0.275	0.234
-362.669	113.998	0.244	0.381
-361.654	-79.529	0.244	-0.105
-360.639	445.903	0.156	-0.441
-359.625	-200.000	-0.042	0.258
-358.610	87.956	-0.162	0.231
-357.596	-69.853	0.215	0.105
-356.581	-200.000	0.004	0.290
-355.566	-67.407	-0.173	-0.087
-354.552	800.000	-0.059	-0.221
-353.537	-54.649	0.259	-0.150
-352.523	18.443	-0.303	0.310
-351.508	552.108	-0.047	-0.146
-350.493	-60.550	0.062	0.033
-349.479	-105.654	-0.392	0.113
-348.464	-17.881	-0.279	-0.224
-347.450	-80.705	-0.068	0.029
-346.435	-80.941	0.130	-0.055
-345.420	551.228	0.155	0.480
-344.406	800.000	-0.069	0.261
-343.391	-104.235	-0.164	-0.048
-342.377	177.324	-0.072	-0.135
-341.362	-62.042	-0.172	-0.092
-340.348	108.103	-0.156	-0.238
-339.333	-27.347	0.286	0.213
-338.318	98.804	-0.499	-0.738
-337.304	113.014	0.157	-0.245
-336.289	-15.150	-0.199	-0.163
-335.275	800.000	-0.139	0.556
-334.260	40.330	-0.239	-0.276
-333.245	-200.000	0.005	-0.256
-332.231	17.330	0.381	0.387
-331.216	103.619	0.160	0.241
-330.202	-120.663	0.260	0.056
-329.187	-47.756	0.356	0.220
-328.172	-25.903	-0.330	0.248
-327.158	800.000	0.054	-0.236
-326.143	-160.070	-0.419	-0.029
-325.129	-200.000	-0.042	0.483
-324.114	120.978	-0.202	-0.321
-323.099	800.000	-0.105	-0.403
-322.085	158.417	-0.233	-0.415
-321.070	94.555	-0.385	0.561
-320.056	-67.828	0.478	-0.238
-319.041	-200.000	-0.078	0.544
-318.026	-3.538	0.182	0.162
-317.012	14.553	-0.205	0.205
-315.997	45.640	0.139	0.165
-314.983	248.921	-0.187	0.406
-313.968	400.063	-0.107	0.289
-312.953	-200.000	0.551	0.001
-311.939	-123.634	0.268	-0.054
-310.924	-120.501	-0.420	-0.090
-309.910	-130.199	-0.636	-0.110
-308.895	-23.622	0.362	0.277
-307.880	-40.320	0.479	-0.318
-306.866	-85.576	0.193	-0.076
-305.851	-110.424	-0.475	-0.125
-304.837	-200.000	-0.009	0.338
-303.822	-200.000	0.003	0.195
-302.807	10.150	0.320	-0.311
-301.793	-125.900	-0.432	-0.082
-300.778	-35.698	0.135	0.093
-299.764	183.324	0.092	-0.175
-298.749	91.222	-0.246	0.354
-297.735	-114.696	0.326	0.079
-296.720	-2.177	-0.519	0.465
-295.705	800.000	-0.036	-0.174
-294.691	-34.122	0.295	-0.207
-293.676	-101.248	-0.086	0.027
-292.662	-120.782	-0.588	-0.126
-291.647	-200.000	-0.018	-0.182
-290.632	-31.292	0.269	-0.193
-289.618	-53.664	0.201	-0.117
-288.603	468.793	0.154	-0.444
-287.589	38.485	0.159	-0.181
-286.574	-32.809	-0.184	0.131
-285.559	800.000	0.008	0.035
-284.545	-163.783	0.556	-0.033
-283.530	-47.262	-0.487	-0.302
-282.516	-200.000	-0.004	0.389
-281.501	455.326	-0.170	0.485
-280.486	800.000	0.070	0.309
-279.472	57.511	-0.159	0.198
-278.457	-67.587	-0.209	-0.104
-277.443	128.800	-0.059	-0.097
-276.428	72.214	-0.086	-0.114
-275.413	-142.734	0.304	0.037
-274.399	-3.976	0.130	-0.115
-273.384	96.637	0.083	0.122
-272.370	-49.845	-0.165	0.099
-271.355	-108.266	-0.227	0.062
-270.340	-103.878	0.309	0.092
-269.326	206.518	0.045	-0.089
-268.311	-48.877	-0.174	-0.106
-267.297	800.000	0.048	0.253
-266.282	800.000	-0.096	0.362
-265.267	-136.847	-0.248	0.036
-264.253	-96.821	-0.339	-0.113
-263.238	-48.050	0.029	-0.018
-262.224	-102.269	0.376	0.115
-261.209	-143.690	-0.243	-0.029
-260.195	-36.443	0.377	0.259
-259.180	-200.000	-0.057	0.363
-258.165	-85.039	-0.281	-0.112
-257.151	-114.044	0.369	0.090
-256.136	800.000	0.096	-0.417
-255.122	202.624	0.063	0.124
-254.107	-200.000	0.016	-0.119
-253.092	-200.000	-0.020	0.425
-252.078	-37.389	0.319	-0.217
-251.063	14.912	0.110	-0.110
-250.049	-178.633	0.033	0.001
-249.034	800.000	-0.118	-0.583
-248.019	663.152	-0.106	-0.352
-247.005	-92.915	-0.354	0.125
-245.990	-139.893	0.200	-0.027
-244.976	33.479	0.179	0.198
-243.961	-126.979	-0.704	0.131
-242.946	36.387	0.048	0.054
-241.932	5.218	0.423	0.397
-240.917	-200.000	-0.097	0.761
-239.903	-200.000	-0.038	0.560
-238.888	-35.747	0.101	0.069
-237.873	152.471	0.052	-0.090
-236.859	-25.896	-0.185	-0.138
-235.844	-200.000	-0.052	-0.000
-234.830	800.000	-0.022	0.094
-233.815	-200.000	0.042	0.256
-232.800	-146.647	0.468	0.051
-231.786	-142.077	-0.281	0.035
-230.771	-13.306	0.338	0.279
-229.757	8.941	-0.058	-0.056
-228.742	307.222	-0.189	-0.451
-227.727	-18.216	0.061	0.048
-226.713	-123.449	-0.204	0.041
-225.698	45.248	0.220	0.259
-224.684	2.167	-0.083	-0.076
-223.669	800.000	0.041	-0.217
-222.655	226.318	-0.264	-0.547
-221.640	-86.609	-0.168	-0.065
-220.625	-48.621	-0.344	-0.210
-219.611	30.250	0.189	0.206
-218.596	506.257	-0.044	0.130
-217.582	458.042	0.159	-0.454
-216.567	800.000	0.142	-0.522
-215.552	-200.000	-0.022	-0.138
-214.538	-200.000	0.097	0.611
-213.523	155.987	0.050	0.088
-212.509	-103.028	0.099	-0.030
-211.494	-78.203	-0.236	0.103
-210.479	-100.633	-0.391	0.122
-209.465	73.133	0.364	-0.485
-208.450	-38.758	0.387	0.259
-207.436	-64.740	0.456	-0.234
-206.421	406.680	-0.116	-0.313
-205.406	49.742	-0.326	0.391
-204.392	800.000	-0.076	0.300
-203.377	-6.305	-0.262	-0.227
-202.363	-200.000	0.016	-0.113
-201.348	397.482	0.092	0.247
-200.333	-200.000	-0.020	-0.165
-199.319	74.138	0.157	-0.211
-198.304	-87.279	0.263	-0.101
-197.290	800.000	0.017	0.092
-196.275	-200.000	0.010	0.238
-195.260	-51.037	0.191	-0.114
-194.246	146.832	0.153	0.262
-193.231	-25.386	0.133	0.100
-192.217	310.015	0.181	0.433
-191.202	-200.000	0.018	-0.403
-190.187	-2.145	0.136	-0.121
-189.173	-154.028	-0.368	0.031
-188.158	436.888	-0.074	-0.205
-187.144	-114.556	0.259	-0.063
-186.129	800.000	0.025	0.094
-185.114	-190.252	0.202	0.003
-184.100	313.462	0.087	0.209
-183.085	-200.000	-0.080	-0.526
-182.071	800.000	0.038	0.194
-181.056	112.657	0.105	-0.162
-180.042	693.689	0.274	-0.920
-179.027	662.195	0.125	0.411
-178.012	-69.366	-0.158	-0.077
-176.998	231.404	-0.036	0.075
-175.983	232.127	-0.123	0.258
-174.969	-200.000	-0.000	0.163
-173.954	416.588	-0.042	0.114
-172.939	-200.000	-0.008	-0.190
-171.925	-200.000	0.060	-0.567
-170.910	179.073	0.016	-0.030
-169.896	44.465	-0.289	-0.338
-168.881	-136.915	0.356	0.051
-167.866	130.374	0.044	-0.072
-166.852	112.397	0.117	-0.180
-165.837	-6.996	0.236	-0.204
-164.823	162.164	0.060	0.107
-163.808	-147.085	0.511	0.055
-162.793	401.864	-0.050	0.134
-161.779	-106.552	-0.684	0.192
-160.764	800.000	-0.168	-0.634
-159.750	-200.000	-0.085	-0.486
-158.735	69.029	0.184	-0.241
-157.720	-45.212	-0.191	-0.120
-156.706	-28.428	-0.496	-0.363
-155.691	50.669	0.022	0.026
-154.677	13.023	0.191	-0.187
-153.662	-200.000	0.034	-0.275
-152.647	-111.508	-0.142	-0.036
-151.633	-200.000	-0.023	0.511
-150.618	800.000	-0.035	0.188
-149.604	-200.000	-0.004	-0.405
-148.589	-142.761	-0.425	-0.052
-147.574	112.610	-0.201	0.310
-146.560	228.607	-0.136	0.282
-145.545	800.000	0.089	-0.367
-144.531	3.997	-0.185	-0.172
-143.516	-0.973	-0.100	0.089
-142.502	-2.375	0.350	0.311
-141.487	-200.000	-0.025	-0.209
-140.472	-59.122	-0.274	-0.149
-139.458	-64.485	0.259	-0.133
-138.443	600.739	-0.020	-0.062
-137.429	-75.299	0.181	-0.082
-136.414	14.088	0.285	-0.281
-135.399	-137.582	0.261	0.037
-134.385	28.817	0.196	-0.211
-133.370	35.115	-0.262	-0.291
-132.356	-69.661	-0.446	-0.216
-131.341	-26.739	-0.279	-0.207
-130.326	-190.363	0.063	-0.001
-129.312	-200.000	-0.026	-0.186
-128.297	-42.151	0.256	-0.166
-127.283	92.047	0.266	-0.381
-126.268	-101.710	-0.507	-0.155
-125.253	295.816	-0.282	-0.657
-124.239	324.300	0.145	-0.353
-123.224	-78.316	0.447	0.194
-122.210	521.533	0.145	-0.433
-121.195	468.772	-0.090	-0.258
-120.180	-84.774	-0.168	0.067
-119.166	800.000	0.104	0.437
-118.151	-12.384	-0.278	-0.230
-117.137	-107.457	0.181	-0.050
-116.122	-74.076	0.161	-0.074
-115.107	107.342	0.192	0.290
-114.093	40.852	-0.252	-0.289
-113.078	63.132	-0.207	0.264
-112.064	-200.000	0.021	0.436
-111.049	58.261	0.192	-0.239
-110.034	543.321	0.105	0.319
-109.020	-200.000	0.006	0.050
-108.005	-200.000	0.032	0.399
-106.991	-51.433	-0.284	0.168
-105.976	-15.534	-0.040	0.032
-104.962	-17.120	0.434	-0.346
-103.947	800.000	0.014	-0.062
-102.932	-14.785	-0.250	-0.204
-101.918	800.000	0.128	-0.499
-100.903	81.716	-0.098	0.135
-99.889	-25.273	-0.182	0.136
-98.874	-12.703	-0.088	-0.073
-97.859	-171.606	-0.416	-0.017
-96.845	173.027	0.111	0.203
-95.830	-158.654	0.146	0.011
-94.816	-119.512	-0.136	0.030
-93.801	37.118	0.173	0.194
-92.786	-124.602	-0.300	-0.059
-91.772	249.019	0.080	-0.171
-90.757	-176.875	0.396	-0.012
-89.743	-88.861	-0.299	0.112
-88.728	75.885	0.160	-0.214
-87.713	-57.373	-0.210	-0.116
-86.699	-30.458	-0.300	0.215
-85.684	-5.848	-0.268	-0.232
-84.670	-32.253	0.323	0.228
-83.655	-200.000	0.021	0.268
-82.640	24.774	0.037	0.039
-81.626	434.403	0.061	0.169
-80.611	-141.524	-0.321	-0.041
-79.597	-200.000	-0.051	-0.428
-78.582	-177.179	-0.174	-0.005
-77.567	184.134	0.231	-0.435
-76.553	-129.946	-0.159	0.027
-75.538	245.842	-0.084	0.179
-74.524	378.875	0.053	0.138
-73.509	-78.094	0.312	-0.135
-72.494	35.343	-0.171	-0.191
-71.480	-141.498	0.516	0.065
-70.465	-124.601	0.183	-0.036
-69.451	145.708	0.207	0.352
-68.436	-19.062	-0.054	0.043
-67.422	-200.000	-0.011	0.427
-66.407	-120.386	-0.095	-0.020
-65.392	134.216	0.116	0.191
-64.378	68.579	0.255	0.331
-63.363	92.227	0.064	0.092
-62.349	-77.584	0.183	0.080
-61.334	-13.004	-1.464	-1.205
-60.319	44.124	0.741	0.861
-59.305	397.340	-2.502	-6.653
-58.290	14.205	3.083	3.040
-57.276	413.775	3.856	10.438
-56.261	-200.000	15.669	230.396
-55.246	425.464	1197.173	3279.628
-54.232	58.182	2835.978	3520.803
-53.217	66.906	2722.275	3512.569
-52.203	40.866	2451.672	2801.007
-51.188	40.058	2105.973	2396.120
-50.173	34.848	1979.754	2192.554
-49.159	33.366	1968.716	2163.241
-48.144	32.873	1964.904	2153.313
-47.130	32.937	1961.971	2150.742
-46.115	32.763	1960.770	2147.353
-45.100	32.760	1958.738	2145.003
-44.086	32.882	1956.944	2144.344
-43.071	32.797	1955.247	2141.434
-42.057	32.642	1954.400	2138.652
-41.042	32.672	1953.152	2137.550
-40.027	32.769	1951.355	2136.601
-39.013	32.784	1949.714	2134.886
-37.998	32.692	1948.508	2132.439
-36.984	32.737	1946.611	2130.781
-35.969	32.637	1946.192	2129.102
-34.954	32.661	1944.878	2127.852
-33.940	32.468	1944.972	2125.690
-32.925	32.549	1943.481	2124.891
-31.911	32.579	1940.851	2122.265
-30.896	32.615	1939.435	2121.042
-29.881	32.618	1937.960	2119.379
-28.867	32.538	1936.850	2117.179
-27.852	32.476	1936.569	2116.085
-26.838	32.410	1935.230	2113.798
-25.823	32.495	1934.074	2113.402
-24.809	32.554	1932.138	2111.875
-23.794	32.494	1930.573	2109.407
-22.779	32.572	1928.901	2108.373
-21.765	32.504	1927.896	2106.425
-20.750	32.512	1926.764	2105.192
-19.736	32.432	1925.637	2102.979
-18.721	32.400	1924.742	2101.555
-17.706	32.433	1923.555	2100.547
-16.692	32.477	1922.097	2099.364
-15.677	32.586	1920.322	2098.569
-14.663	32.410	1919.628	2095.755
-13.648	32.493	1917.491	2094.269
-12.633	32.484	1916.564	2093.076
-11.619	32.430	1915.508	2091.227
-10.604	32.450	1913.422	2089.098
-9.590	32.472	1912.126	2087.844
-8.575	32.379	1911.415	2085.942
-7.560	32.323	1911.053	2084.842
-6.546	32.385	1909.465	2083.718
-5.531	32.187	1909.199	2081.135
-4.517	32.238	1907.383	2079.646
-3.502	32.426	1905.636	2079.743
-2.487	32.468	1904.702	2079.112
-1.473	32.401	1901.884	2075.211
-0.458	32.843	1883.501	2059.921
0.556	29.965	2021.921	2164.618
1.571	28.921	2239.668	2383.848
2.586	30.443	2287.066	2454.241
3.600	30.389	2289.987	2456.357
4.615	30.471	2289.930	2457.092
5.629	30.653	2287.206	2456.298
6.644	30.625	2285.769	2454.091
7.659	30.711	2283.965	2452.997
8.673	30.747	2281.913	2450.978
9.688	30.151	2286.761	2447.982
10.702	27.675	2361.784	2494.008
11.717	24.399	2426.201	2515.378
12.731	12.232	2393.567	2310.105
13.746	1.874	2365.889	2137.672
14.761	0.320	2360.868	2111.020
15.775	0.215	2358.838	2107.473
16.790	0.185	2357.420	2105.529
17.804	0.203	2355.606	2103.904
18.819	0.166	2354.421	2102.082
19.834	0.092	2353.221	2099.718
20.848	0.138	2351.738	2098.789
21.863	0.247	2350.050	2098.556
22.877	0.017	2348.428	2093.635
23.892	0.148	2344.414	2091.646
24.907	0.101	2342.459	2088.988
25.921	0.054	2342.372	2088.006
26.936	0.152	2339.288	2086.374
27.950	0.228	2336.333	2084.539
28.965	0.046	2334.645	2080.262
29.980	0.129	2332.982	2079.685
30.994	0.317	2331.461	2080.685
32.009	6.708	2354.596	2190.446
33.023	22.188	2401.019	2452.056
34.038	30.457	2420.250	2587.732
35.053	31.923	2420.412	2608.096
36.067	31.542	2416.839	2598.618
37.082	31.114	2412.783	2587.975
38.096	30.805	2411.293	2581.774
39.111	31.248	2409.573	2585.789
40.126	31.334	2407.540	2584.489
41.140	31.457	2406.984	2585.295
42.155	31.183	2403.599	2577.539
43.169	31.009	2401.439	2572.507
44.184	31.282	2399.665	2574.083
45.199	31.358	2396.420	2571.348
46.213	31.127	2395.318	2566.664
47.228	31.043	2394.926	2564.773
48.242	31.353	2393.720	2567.456
49.257	31.567	2391.186	2567.375
50.271	31.691	2389.302	2566.763
51.286	31.774	2386.935	2565.055
52.301	31.254	2384.078	2554.531
53.315	30.345	2380.450	2537.846
54.330	29.131	2375.648	2515.770
55.344	28.466	2370.260	2500.639
56.359	28.447	2366.163	2495.758
57.374	28.275	2365.069	2491.953
58.388	28.125	2361.422	2485.764
59.403	28.247	2357.677	2483.198
60.417	28.208	2355.554	2480.134
61.432	28.375	2353.960	2480.431
62.447	28.168	2353.210	2476.524
63.461	28.172	2349.934	2472.835
64.476	28.091	2347.298	2468.665
65.490	28.562	2346.602	2474.024
66.505	28.944	2348.957	2481.396
67.520	29.778	2349.683	2493.171
68.534	30.014	2348.279	2494.569
69.549	30.480	2344.188	2496.225
70.563	30.644	2343.230	2497.125
71.578	30.871	2343.393	2500.063
72.593	31.204	2343.007	2503.843
73.607	31.889	2341.404	2511.049
74.622	31.744	2339.785	2507.063
75.636	31.172	2335.008	2493.965
76.651	31.225	2333.499	2492.762
77.666	31.687	2332.904	2498.029
78.680	31.663	2330.027	2494.325
79.695	31.343	2328.154	2487.739
80.709	31.148	2325.983	2482.511
81.724	31.092	2324.514	2479.906
82.739	31.509	2323.301	2483.876
83.753	32.013	2321.426	2488.301
84.768	31.802	2319.623	2483.249
85.782	31.555	2317.775	2477.698
86.797	31.590	2315.341	2475.259
87.812	31.205	2312.127	2466.418
88.826	30.907	2309.950	2459.847
89.841	31.387	2309.682	2465.627
90.855	32.149	2308.328	2473.982
91.870	31.572	2305.198	2462.705
92.884	31.256	2303.978	2456.925
93.899	31.648	2303.929	2461.766
94.914	30.903	2300.220	2447.667
95.928	29.113	2293.749	2416.892
96.943	28.468	2289.990	2404.143
97.957	30.069	2293.046	2428.175
98.972	31.517	2293.442	2447.365
99.987	31.068	2289.835	2437.327
101.001	30.961	2287.330	2432.970
102.016	31.023	2285.118	2431.136
103.030	30.921	2283.307	2427.580
104.045	31.213	2281.856	2429.568
105.060	31.769	2281.353	2436.008
106.074	31.858	2278.978	2434.341
107.089	31.284	2275.000	2422.330
108.103	31.142	2275.207	2420.409
109.118	31.492	2273.986	2423.379
110.133	31.512	2271.715	2420.918
111.147	31.331	2269.337	2415.751
112.162	31.311	2267.753	2413.506
113.176	31.453	2265.603	2412.776
114.191	31.213	2263.711	2407.360
115.206	31.224	2261.505	2404.869
116.220	31.204	2259.942	2402.664
117.235	30.958	2256.346	2395.374
118.249	30.628	2255.397	2389.819
119.264	31.072	2254.277	2394.081
120.279	31.408	2252.665	2396.407
121.293	31.246	2250.086	2391.298
122.308	30.904	2247.765	2384.143
123.322	30.661	2245.745	2378.587
124.337	29.889	2241.918	2364.342
125.352	29.097	2239.470	2351.314
126.366	29.320	2239.415	2353.840
127.381	30.334	2238.941	2366.058
128.395	30.842	2238.096	2371.387
129.410	31.116	2236.352	2372.763
130.424	31.079	2235.029	2370.594
131.439	31.064	2231.947	2366.850
132.454	30.750	2230.714	2361.254
133.468	31.040	2228.946	2362.798
134.483	31.032	2226.295	2359.601
135.497	30.777	2225.105	2354.825
136.512	31.423	2224.193	2361.774
137.527	31.549	2222.066	2360.836
138.541	31.226	2219.869	2354.129
139.556	30.762	2219.711	2347.791
140.570	30.841	2217.252	2345.910
141.585	30.901	2215.671	2344.721
142.600	31.031	2215.274	2345.666
143.614	31.173	2214.137	2345.975
144.629	31.635	2212.463	2349.747
145.643	31.271	2209.082	2341.286
146.658	30.979	2206.430	2334.518
147.673	30.730	2204.066	2328.608
148.687	30.996	2203.886	2331.482
149.702	31.247	2203.562	2334.017
150.716	31.368	2202.970	2334.639
151.731	32.031	2203.359	2343.088
152.746	32.416	2202.668	2346.903
153.760	30.977	2198.538	2324.193
154.775	28.966	2192.426	2292.302
155.789	28.142	2188.490	2277.596
156.804	29.392	2189.140	2293.645
157.819	30.605	2188.556	2307.901
158.833	31.114	2187.798	2313.165
159.848	31.645	2187.337	2319.020
160.862	31.866	2186.301	2320.397
161.877	32.013	2185.545	2321.142
162.892	32.086	2184.022	2320.153
163.906	32.253	2183.620	2321.522
164.921	32.296	2181.380	2319.396
165.935	32.189	2178.402	2314.618
166.950	31.759	2176.124	2306.612
167.964	31.293	2172.305	2296.524
168.979	30.856	2170.472	2288.918
169.994	31.183	2169.535	2291.691
171.008	31.228	2166.625	2288.896
172.023	31.202	2165.786	2287.420
173.037	31.706	2166.710	2294.319
174.052	31.718	2163.731	2291.039
175.067	31.236	2161.145	2282.115
176.081	30.979	2159.923	2277.397
177.096	30.995	2157.703	2274.970
178.110	30.911	2155.771	2271.632
179.125	30.928	2154.857	2270.613
180.140	31.078	2155.266	2272.609
181.154	31.098	2153.061	2270.252
182.169	30.777	2150.100	2262.934
183.183	30.243	2147.426	2253.337
184.198	29.068	2142.375	2233.447
185.213	28.708	2141.505	2227.883
186.227	30.167	2143.351	2247.324
187.242	30.596	2141.529	2250.365
188.256	30.675	2140.241	2249.699
189.271	31.424	2139.908	2258.184
190.286	31.598	2139.189	2259.263
191.300	30.999	2135.100	2247.423
192.315	30.735	2133.531	2242.301
193.329	31.158	2134.342	2248.013
194.344	31.919	2133.154	2255.694
195.359	31.832	2132.791	2253.982
196.373	32.149	2130.913	2255.561
197.388	31.981	2127.965	2250.139
198.402	31.274	2125.515	2238.770
199.417	31.346	2122.418	2236.100
200.432	31.611	2120.958	2237.480
201.446	31.878	2120.526	2239.965
202.461	31.513	2118.460	2233.132
203.475	30.933	2115.362	2222.658
204.490	30.863	2112.853	2218.911
205.504	31.116	2110.596	2219.306
206.519	30.801	2108.252	2212.813
207.534	31.095	2107.848	2215.634
208.548	31.601	2107.724	2221.274
209.563	30.954	2104.646	2210.054
210.577	30.899	2103.286	2207.708
211.592	31.724	2104.792	2218.851
212.607	30.866	2100.612	2203.977
213.621	28.271	2093.604	2165.559
214.636	28.209	2093.023	2163.957
215.650	30.201	2096.560	2191.040
216.665	31.313	2096.244	2203.646
217.680	31.815	2095.834	2208.900
218.694	31.838	2095.173	2208.206
219.709	31.432	2091.563	2199.339
220.723	31.599	2090.960	2200.419
221.738	31.942	2090.203	2203.408
222.753	31.916	2087.687	2200.190
223.767	31.568	2086.236	2194.296
224.782	31.374	2081.895	2187.179
225.796	31.269	2081.293	2185.052
226.811	31.816	2080.677	2190.570
227.826	31.787	2079.012	2188.222
228.840	31.879	2078.627	2188.632
229.855	31.389	2076.310	2180.180
230.869	30.836	2072.282	2169.221
231.884	30.695	2070.539	2165.492
232.899	31.178	2069.773	2170.072
233.913	31.317	2070.165	2171.847
234.928	31.616	2069.306	2174.183
235.942	31.682	2067.889	2173.196
236.957	31.231	2065.005	2164.660
237.972	31.242	2063.668	2163.117
238.986	31.481	2062.643	2164.568
240.001	30.961	2059.297	2154.756
241.015	30.599	2057.369	2148.281
242.030	30.680	2055.753	2147.270
243.045	29.575	2052.456	2130.765
244.059	29.155	2050.645	2123.762
245.074	30.512	2050.713	2139.300
246.088	30.672	2048.634	2138.724
247.103	30.807	2046.875	2138.183
248.117	31.106	2047.104	2141.618
249.132	31.339	2045.419	2142.293
250.147	31.022	2042.448	2135.268
251.161	30.672	2040.565	2129.020
252.176	30.978	2039.707	2131.384
253.190	30.981	2037.932	2129.311
254.205	30.992	2035.865	2127.027
255.220	31.300	2035.588	2130.019
256.234	31.060	2034.533	2125.907
257.249	30.847	2032.773	2121.372
258.263	30.966	2031.786	2121.453
259.278	31.260	2031.001	2123.740
260.293	31.319	2030.221	2123.347
261.307	31.302	2027.496	2120.044
262.322	31.233	2026.148	2117.595
263.336	30.701	2023.254	2108.258
264.351	30.615	2021.372	2105.067
265.366	30.873	2021.823	2108.215
266.380	31.269	2021.010	2111.625
267.395	30.998	2018.023	2105.171
268.409	30.926	2016.757	2102.781
269.424	31.267	2015.808	2105.411
270.439	31.546	2014.997	2107.466
271.453	31.046	2011.934	2098.355
272.468	29.061	2005.021	2068.503
273.482	28.312	2003.876	2058.616
274.497	30.065	2005.360	2079.687
275.512	31.099	2004.203	2089.891
276.526	31.215	2002.986	2089.678
277.541	31.211	2000.901	2087.210
278.555	31.068	1998.770	2083.123
279.570	30.800	1995.435	2076.395
280.585	30.336	1994.035	2069.493
281.599	30.720	1993.734	2073.241
282.614	31.326	1993.179	2079.192
283.628	31.485	1993.041	2080.581
284.643	30.321	1988.604	2062.704
285.657	28.639	1981.472	2036.321
286.672	27.679	1978.209	2022.029
287.687	27.479	1976.301	2017.615
288.701	27.712	1975.502	2019.145
289.716	26.826	1971.000	2004.462
290.730	25.667	1968.344	1988.654
291.745	26.525	1967.920	1997.510
292.760	27.014	1969.718	2004.526
293.774	28.785	1973.265	2027.561
294.789	30.818	1976.574	2053.278
295.803	31.174	1974.812	2055.145
296.818	30.878	1972.923	2049.658
297.833	31.097	1972.385	2051.276
298.847	31.278	1971.409	2052.020
299.862	31.156	1969.640	2048.582
300.876	30.626	1966.325	2039.051
301.891	29.460	1961.840	2021.324
302.906	28.982	1961.619	2015.592
303.920	30.390	1963.776	2033.079
304.935	31.206	1962.994	2040.997
305.949	31.250	1961.005	2039.165
306.964	31.514	1959.128	2039.870
307.979	30.713	1952.934	2024.421
308.993	27.493	1943.794	1979.590
310.008	25.187	1937.575	1947.882
311.022	25.096	1936.613	1945.688
312.037	25.709	1936.614	1952.146
313.052	25.709	1934.700	1949.977
314.066	25.284	1930.702	1941.100
315.081	25.193	1930.138	1939.308
316.095	25.335	1929.301	1939.775
317.110	25.392	1928.435	1939.293
318.125	25.745	1927.316	1941.760
319.139	25.706	1926.678	1940.463
320.154	25.934	1925.507	1941.518
321.168	26.118	1925.176	1942.950
322.183	28.345	1929.761	1971.465
323.197	30.765	1935.050	2002.846
324.212	31.320	1933.507	2006.996
325.227	31.125	1932.025	2003.118
326.241	31.197	1930.229	2001.789
327.256	31.471	1928.598	2002.812
328.270	31.362	1928.346	2001.131
329.285	31.600	1928.908	2004.036
330.300	30.912	1926.216	1993.605
331.314	28.823	1919.414	1963.918
332.329	28.440	1918.120	1958.242
333.343	30.460	1919.926	1981.537
334.358	31.641	1920.565	1994.618
335.373	31.944	1919.552	1996.568
336.387	31.983	1917.470	1994.576
337.402	31.774	1916.353	1990.952
338.416	31.543	1912.743	1984.492
339.431	31.411	1912.564	1982.667
340.446	31.489	1909.460	1980.037
341.460	28.921	1900.170	1942.934
342.475	26.760	1894.320	1913.823
343.489	25.989	1891.198	1902.262
344.504	25.618	1891.047	1897.949
345.519	25.681	1888.040	1895.374
346.533	25.367	1885.626	1889.401
347.548	25.358	1884.557	1888.013
348.562	25.452	1883.271	1887.484
349.577	25.361	1881.885	1884.911
350.592	25.529	1881.261	1885.830
351.606	25.455	1880.050	1883.614
352.621	25.003	1877.573	1876.156
353.635	25.122	1876.649	1876.251
354.650	26.356	1879.206	1891.574
355.665	28.872	1883.927	1922.588
356.679	30.519	1884.600	1940.347
357.694	30.789	1884.977	1943.333
358.708	31.107	1884.534	1945.981
359.723	30.597	1881.961	1937.749
360.738	28.869	1876.876	1914.217
361.752	28.673	1875.714	1910.744
362.767	30.283	1877.030	1928.699
363.781	31.087	1877.296	1937.142
364.796	31.718	1877.385	1943.579
365.810	31.572	1874.526	1938.866
366.825	29.917	1868.265	1914.962
367.840	26.947	1859.734	1875.196
368.854	24.984	1855.559	1850.406
369.869	24.939	1852.984	1847.153
370.883	25.264	1852.153	1849.473
371.898	25.617	1852.346	1853.100
372.913	25.740	1850.343	1852.146
373.927	25.113	1848.563	1843.662
374.942	24.972	1847.164	1840.586
375.956	25.629	1847.707	1847.697
376.971	25.944	1845.750	1848.760
377.986	25.520	1842.955	1841.374
379.000	25.732	1842.447	1842.836
380.015	25.967	1842.943	1845.524
381.029	28.272	1847.463	1873.569
382.044	30.916	1851.447	1904.591
383.059	31.465	1849.567	1908.065
384.073	31.004	1849.140	1902.670
385.088	31.124	1848.763	1903.281
386.102	31.433	1847.706	1905.126
387.117	31.612	1846.648	1905.646
388.132	31.617	1845.297	1904.071
389.146	31.016	1843.315	1895.658
390.161	28.892	1836.509	1866.784
391.175	28.591	1834.583	1861.527
392.190	29.892	1833.882	1873.848
393.205	30.586	1833.471	1880.266
394.219	31.138	1832.367	1884.511
395.234	31.147	1831.265	1883.245
396.248	31.221	1829.806	1882.266
397.263	31.049	1827.426	1877.848
398.278	30.812	1824.449	1872.175
399.292	30.567	1823.022	1868.010
400.307	29.623	1818.462	1853.602
401.321	27.242	1811.200	1822.033
402.336	25.907	1808.677	1805.839
403.350	25.908	1806.645	1803.607
404.365	26.561	1807.391	1810.697
405.380	26.336	1805.518	1806.342
406.394	25.600	1802.395	1795.622
407.409	25.278	1801.461	1791.251
408.423	25.325	1800.108	1790.157
409.438	25.370	1796.656	1786.959
410.453	25.144	1795.753	1783.593
411.467	25.139	1795.218	1782.800
412.482	26.165	1796.705	1794.313
413.496	29.087	1802.570	1829.185
414.511	30.793	1803.830	1847.286
415.526	30.756	1802.865	1845.703
416.540	31.028	1801.739	1847.037
417.555	30.968	1799.471	1843.898
418.569	30.177	1798.626	1834.947
419.584	30.220	1798.901	1835.436
420.599	30.442	1797.414	1835.900
421.613	30.229	1795.962	1832.083
422.628	30.317	1796.173	1832.958
423.642	31.071	1795.098	1839.116
424.657	30.514	1791.942	1830.149
425.672	29.920	1788.982	1821.039
426.686	30.099	1788.512	1822.110
427.701	30.126	1787.205	1820.829
428.715	30.151	1785.821	1819.445
429.730	30.462	1785.064	1821.521
430.745	31.011	1785.382	1827.032
431.759	31.125	1784.238	1826.767
432.774	30.490	1782.369	1818.391
433.788	28.895	1777.169	1797.213
434.803	27.756	1774.146	1782.762
435.818	27.747	1773.185	1781.497
436.832	27.583	1772.889	1779.378
437.847	26.343	1763.908	1758.032
438.861	16.377	1735.277	1632.943
439.876	3.569	1711.327	1486.803
440.890	0.592	1703.938	1451.471
441.905	0.342	1702.907	1448.007
442.920	0.217	1701.963	1445.829
443.934	0.162	1700.791	1444.126
444.949	0.229	1699.746	1443.716
445.963	0.255	1698.423	1442.665
446.978	0.148	1698.222	1441.298
447.993	0.232	1696.569	1440.523
449.007	0.147	1694.588	1437.853
450.022	0.177	1692.277	1436.011
451.036	0.166	1690.887	1434.551
452.051	1.550	1698.710	1454.323
453.066	13.301	1725.868	1591.650
454.080	25.567	1746.440	1729.788
455.095	28.140	1749.956	1757.958
456.109	28.454	1750.896	1761.725
457.124	28.740	1749.054	1762.422
458.139	28.757	1748.356	1761.671
459.153	28.796	1747.466	1760.939
460.168	28.904	1745.642	1759.928
461.182	29.186	1744.219	1760.991
462.197	29.424	1743.411	1762.249
463.212	29.683	1742.808	1763.911
464.226	29.848	1742.995	1765.477
465.241	29.954	1742.104	1765.380
466.255	29.969	1740.422	1763.610
467.270	29.981	1739.425	1762.499
468.285	30.468	1739.036	1766.551
469.299	30.906	1738.505	1769.987
470.314	31.062	1736.907	1769.630
471.328	30.842	1735.415	1765.801
472.343	30.819	1734.910	1764.859
473.358	31.062	1732.894	1764.909
474.372	30.894	1731.766	1761.952
475.387	31.146	1731.425	1763.792
476.401	31.098	1728.956	1760.603
477.416	30.521	1726.835	1752.770
478.430	30.324	1725.725	1749.565
479.445	30.894	1725.753	1754.785
480.460	31.236	1724.999	1757.037
481.474	31.309	1723.918	1756.418
482.489	31.234	1721.891	1753.439
483.503	30.470	1718.880	1742.963
484.518	30.302	1716.495	1738.752
485.533	30.565	1716.439	1740.959
486.547	30.304	1714.061	1735.886
487.562	29.461	1711.002	1724.667
488.576	29.845	1711.060	1728.123
489.591	30.606	1711.194	1735.193
490.606	31.026	1710.799	1738.526
491.620	31.086	1708.118	1736.150
492.635	30.678	1705.554	1729.531
493.649	29.858	1703.436	1719.514
494.664	30.127	1704.132	1722.523
495.679	30.771	1704.090	1728.291
496.693	30.943	1701.937	1727.502
497.708	30.849	1699.974	1724.427
498.722	30.624	1698.993	1721.129
499.737	30.683	1697.749	1720.213
500.752	30.717	1696.607	1719.168
501.766	30.817	1695.529	1718.803
502.781	30.759	1693.783	1716.288
503.795	30.804	1692.396	1715.089
504.810	30.849	1691.339	1714.233
505.825	30.571	1689.831	1709.925
506.839	30.179	1688.464	1704.716
507.854	30.122	1686.468	1701.970
508.868	29.931	1683.683	1697.195
509.883	29.609	1682.245	1692.584
510.898	29.266	1680.796	1687.766
511.912	29.188	1678.309	1684.351
512.927	28.960	1676.862	1680.601
513.941	28.904	1674.801	1677.822
514.956	28.794	1673.400	1675.203
515.971	28.768	1671.280	1672.644
516.985	28.629	1670.743	1670.637
518.000	28.725	1669.958	1670.526
519.014	28.959	1668.985	1671.494
520.029	28.849	1668.083	1669.385
521.043	29.149	1666.512	1670.346
522.058	29.107	1666.107	1669.361
523.073	29.197	1664.976	1668.844
524.087	29.151	1664.677	1667.929
525.102	29.372	1663.085	1668.148
526.116	30.019	1662.363	1673.092
527.131	30.268	1662.531	1675.324
528.146	30.245	1661.229	1673.609
529.160	30.168	1659.933	1671.404
530.175	30.244	1659.554	1671.510
531.189	30.205	1657.675	1669.060
532.204	30.109	1656.027	1666.336
533.219	30.282	1655.935	1667.606
534.233	30.678	1655.290	1670.334
535.248	30.242	1653.338	1664.231
536.262	29.595	1651.475	1656.331
537.277	29.804	1650.672	1657.210
538.292	30.162	1649.897	1659.453
539.306	30.260	1647.895	1658.119
540.321	29.809	1645.154	1651.119
541.335	29.334	1643.459	1644.964
542.350	29.645	1642.555	1646.648
543.365	29.966	1641.784	1648.550
544.379	30.216	1639.720	1648.512
545.394	30.005	1638.218	1644.925
546.408	29.787	1637.903	1642.461
547.423	30.517	1638.225	1649.108
548.438	31.060	1638.754	1654.283
549.452	30.949	1636.032	1650.345
550.467	30.302	1633.487	1641.832
551.481	30.208	1632.325	1639.633
552.496	29.980	1631.102	1636.184
553.511	29.932	1629.191	1633.647
554.525	30.183	1628.230	1634.707
555.540	30.031	1628.060	1632.998
556.554	30.309	1626.488	1633.687
557.569	30.003	1625.129	1629.415
558.583	29.664	1623.306	1624.399
559.598	29.623	1621.064	1621.600
560.613	29.811	1621.022	1623.019
561.627	29.478	1619.132	1618.001
562.642	29.269	1616.890	1613.729
563.656	28.993	1615.732	1609.954
564.671	28.905	1614.903	1608.159
565.686	28.971	1612.452	1606.104
566.700	28.922	1611.077	1604.118
567.715	28.974	1609.577	1602.884
568.729	28.775	1607.461	1598.850
569.744	28.526	1606.154	1595.181
570.759	28.508	1605.396	1594.081
571.773	28.679	1604.008	1593.997
572.788	28.672	1603.414	1593.157
573.802	28.765	1601.581	1591.956
574.817	28.857	1600.633	1591.621
575.832	28.795	1599.847	1590.115
576.846	29.233	1598.223	1592.115
577.861	29.377	1597.919	1592.873
578.875	29.538	1597.779	1593.940
579.890	29.605	1597.202	1593.752
580.905	29.675	1595.822	1592.789
581.919	29.775	1594.849	1592.496
582.934	29.767	1593.672	1591.060
583.948	29.517	1592.872	1587.909
584.963	29.462	1592.026	1586.404
585.978	29.679	1590.308	1586.368
586.992	29.463	1588.509	1582.525
588.007	29.404	1586.768	1580.093
589.021	28.995	1585.237	1574.865
590.036	28.311	1582.911	1566.486
591.051	28.649	1581.681	1567.979
592.065	28.920	1580.528	1568.978
593.080	29.082	1579.479	1569.134
594.094	29.251	1578.594	1569.512
595.109	29.567	1578.102	1571.542
596.123	30.386	1578.406	1578.660
597.138	30.415	1576.908	1577.218
598.153	29.926	1574.650	1570.601
599.167	29.458	1572.472	1564.258
600.182	29.368	1571.750	1562.587
601.196	29.557	1571.641	1563.897
602.211	29.899	1569.768	1564.757
603.226	29.613	1568.364	1560.742
604.240	29.854	1567.146	1561.380
605.255	29.873	1565.276	1559.493
606.269	29.653	1564.992	1557.163
607.284	29.410	1564.055	1553.983
608.299	29.369	1562.196	1551.609
609.313	29.392	1560.120	1549.552
610.328	29.339	1559.216	1548.020
611.342	29.251	1558.168	1546.055
612.357	29.300	1557.016	1545.139
613.372	29.241	1556.135	1543.582
614.386	29.131	1554.688	1541.037
615.401	29.088	1553.885	1539.691
616.415	29.040	1553.132	1538.364
617.430	28.943	1552.040	1536.282
618.445	28.943	1550.365	1534.442
619.459	28.876	1549.712	1533.049
620.474	28.722	1548.799	1530.669
621.488	28.801	1546.685	1529.060
622.503	28.766	1545.059	1526.975
623.518	28.548	1544.192	1524.117
624.532	28.864	1542.658	1525.060
625.547	28.846	1542.119	1524.188
626.561	29.007	1541.512	1524.753
627.576	28.816	1541.030	1522.503
628.591	28.664	1538.918	1518.966
629.605	28.679	1537.294	1517.305
630.620	28.704	1535.301	1515.366
631.634	28.724	1534.368	1514.428
632.649	28.711	1533.918	1513.697
633.663	28.629	1532.436	1511.370
634.678	28.745	1531.265	1510.994
635.693	28.840	1529.907	1510.261
636.707	29.034	1528.745	1510.531
637.722	29.070	1527.731	1509.647
638.736	29.112	1526.643	1508.735
639.751	29.234	1526.128	1509.050
640.766	29.130	1524.767	1506.673
641.780	29.164	1523.683	1505.698
642.795	29.264	1523.036	1505.702
643.809	29.295	1521.611	1504.370
644.824	29.396	1521.189	1504.594
645.839	29.477	1520.963	1504.857
646.853	29.391	1519.435	1502.458
647.868	29.357	1517.852	1500.436
648.882	29.242	1516.246	1497.728
649.897	29.203	1514.523	1495.534
650.912	29.178	1512.576	1493.224
651.926	28.950	1511.820	1490.442
652.941	28.807	1510.486	1487.789
653.955	28.709	1507.212	1483.586
654.970	28.244	1504.773	1477.236
655.985	28.038	1503.282	1473.934
656.999	27.878	1502.708	1471.896
658.014	28.108	1501.612	1472.510
659.028	28.428	1500.736	1474.057
660.043	28.735	1500.845	1476.472
661.058	28.992	1500.364	1477.898
662.072	29.255	1499.135	1478.627
663.087	29.006	1498.493	1475.809
664.101	28.966	1497.610	1474.444
665.116	29.229	1496.579	1475.370
666.131	29.184	1495.753	1474.012
667.145	29.348	1494.348	1473.771
668.160	29.281	1493.585	1472.306
669.174	29.310	1491.542	1470.352
670.189	29.206	1491.059	1468.863
671.204	29.337	1490.739	1469.421
672.218	29.266	1489.557	1467.509
673.233	29.316	1488.696	1466.890
674.247	29.419	1486.382	1465.251
675.262	29.368	1485.180	1463.488
676.276	29.278	1484.224	1461.656
677.291	29.270	1483.748	1460.948
678.306	29.387	1483.256	1461.214
679.320	29.433	1481.232	1459.412
680.335	29.132	1479.900	1455.537
681.349	29.275	1479.440	1456.041
682.364	29.292	1478.832	1455.408
683.379	29.162	1476.900	1452.300
684.393	29.236	1475.444	1451.284
685.408	29.145	1474.415	1449.380
686.422	29.169	1473.537	1448.529
687.437	29.006	1473.094	1446.634
688.452	28.903	1472.170	1444.740
689.466	29.070	1469.740	1443.497
690.481	29.002	1468.374	1441.446
691.495	28.869	1468.045	1439.904
692.510	28.689	1466.776	1437.072
693.525	28.713	1465.322	1435.664
694.539	28.561	1464.642	1433.635
695.554	28.709	1464.177	1434.166
696.568	28.989	1462.636	1434.677
697.583	29.036	1461.439	1433.706
698.598	28.993	1460.687	1432.457
699.612	29.114	1459.660	1432.223
700.627	29.105	1458.149	1430.498
701.641	29.292	1457.358	1431.010
702.656	29.211	1456.135	1429.010
703.671	29.303	1456.042	1429.466
704.685	29.370	1455.753	1429.532
705.700	29.282	1454.248	1427.196
706.714	29.223	1451.734	1424.102
707.729	29.062	1450.250	1421.226
708.744	28.932	1449.096	1418.918
709.758	28.738	1447.511	1415.692
710.773	28.284	1445.845	1410.377
711.787	28.083	1444.767	1407.607
712.802	28.449	1443.355	1408.891
713.816	28.819	1443.056	1411.282
714.831	29.029	1442.295	1411.989
715.846	29.119	1441.076	1411.318
716.860	29.075	1439.953	1409.713
717.875	29.149	1439.499	1409.670
718.889	29.061	1438.316	1407.664
719.904	29.076	1436.835	1406.161
720.919	29.151	1436.331	1406.076
721.933	29.046	1435.251	1404.048
722.948	29.027	1434.098	1402.607
723.962	29.047	1432.850	1401.373
724.977	29.062	1431.975	1400.464
725.992	29.338	1430.633	1401.091
727.006	29.336	1429.893	1400.180
728.021	29.289	1428.556	1398.343
729.035	29.304	1427.771	1397.522
730.050	29.420	1426.383	1396.885
731.065	29.358	1424.615	1394.516
732.079	29.364	1423.879	1393.669
733.094	29.205	1423.653	1392.071
734.108	29.451	1421.668	1391.832
735.123	29.349	1420.004	1389.266
736.138	29.437	1418.512	1388.305
737.152	29.253	1418.414	1386.652
738.167	29.340	1416.889	1385.649
739.181	29.475	1415.986	1385.622
740.196	29.448	1414.996	1384.280
741.211	29.365	1414.394	1382.900
742.225	29.375	1413.595	1382.030
743.240	29.254	1412.433	1379.821
744.254	29.250	1410.502	1377.737
745.269	29.223	1409.322	1376.217
746.284	29.196	1408.485	1375.035
747.298	28.990	1407.539	1372.403
748.313	28.957	1405.983	1370.474
749.327	28.915	1405.090	1369.124
750.342	28.773	1404.647	1367.467
751.356	28.929	1403.488	1367.338
752.371	28.862	1402.375	1365.593
753.386	28.936	1401.518	1365.141
754.400	29.158	1401.037	1366.167
755.415	29.382	1400.649	1367.296
756.429	29.335	1399.108	1365.276
757.444	29.450	1396.695	1363.618
758.459	29.548	1396.151	1363.650
759.473	29.314	1395.035	1360.657
760.488	29.219	1393.784	1358.571
761.502	29.141	1392.307	1356.389
762.517	29.077	1391.779	1355.239
763.532	29.077	1390.477	1353.815
764.546	28.894	1388.818	1350.680
765.561	28.381	1387.098	1345.062
766.575	28.011	1385.257	1340.389
767.590	28.089	1384.315	1339.894
768.605	28.380	1384.074	1341.645
769.619	28.757	1383.109	1343.315
770.634	28.999	1382.333	1344.182
771.648	29.055	1381.374	1343.500
772.663	29.095	1380.821	1343.090
773.678	29.281	1380.266	1343.755
774.692	29.391	1379.830	1343.976
775.707	29.466	1379.105	1343.661
776.721	29.293	1378.562	1341.703
777.736	29.384	1376.876	1340.565
778.751	29.274	1375.911	1338.665
779.765	29.494	1374.696	1338.925
780.780	29.392	1373.985	1337.325
781.794	29.426	1372.817	1336.279
782.809	29.146	1372.027	1333.312
783.824	28.957	1370.694	1330.482
784.838	28.911	1368.838	1328.187
785.853	28.791	1367.633	1325.988
786.867	28.731	1367.446	1325.215
787.882	28.838	1366.870	1325.276
788.897	29.093	1365.644	1325.773
789.911	28.991	1364.539	1323.805
790.926	29.111	1363.661	1323.661
791.940	28.975	1362.898	1321.777
792.955	29.313	1360.466	1321.696
793.969	29.163	1359.654	1319.673
794.984	29.202	1359.243	1319.398
795.999	29.405	1358.130	1319.613
797.013	29.379	1357.183	1318.352
798.028	29.341	1355.499	1316.284
799.042	29.427	1355.075	1316.330
800.057	29.326	1354.136	1314.540
801.072	29.304	1352.693	1312.822
802.086	29.243	1351.442	1311.017
803.101	29.178	1350.280	1309.269
804.115	29.526	1349.695	1311.028
805.130	29.415	1348.198	1308.624
806.145	29.267	1346.517	1305.785
807.159	29.251	1345.383	1304.417
808.174	29.182	1344.137	1302.559
809.188	29.252	1342.788	1301.591
810.203	29.031	1341.170	1298.306
811.218	28.849	1338.912	1294.673
812.232	28.512	1337.372	1290.648
813.247	28.069	1336.694	1286.705
814.261	28.422	1337.709	1290.024
815.276	28.875	1336.917	1292.306
816.291	29.093	1336.079	1292.879
817.305	29.028	1335.396	1291.611
818.320	29.122	1333.970	1290.738
819.334	29.232	1332.586	1290.019
820.349	29.350	1331.003	1289.159
821.364	29.489	1329.250	1288.285
822.378	29.353	1328.645	1286.587
823.393	29.355	1327.211	1285.060
824.407	29.260	1326.334	1283.395
825.422	29.298	1325.925	1283.110
826.437	29.278	1324.341	1281.285
827.451	29.268	1322.375	1279.157
828.466	28.804	1321.082	1274.516
829.480	29.005	1318.706	1273.473
830.495	28.855	1317.026	1270.656
831.509	28.953	1316.999	1271.162
832.524	29.105	1316.494	1271.573
833.539	29.198	1315.772	1271.368
834.553	29.235	1314.378	1270.127
835.568	29.356	1313.160	1269.638
836.582	29.346	1312.211	1268.498
837.597	29.352	1311.103	1267.316
838.612	29.089	1309.059	1263.373
839.626	29.154	1307.871	1262.522
840.641	29.125	1306.442	1260.794
841.655	28.693	1305.677	1256.930
842.670	28.432	1303.760	1253.141
843.685	27.925	1302.871	1248.657
844.699	28.390	1302.489	1251.335
845.714	28.823	1301.468	1253.169
846.728	28.896	1300.874	1252.950
847.743	28.970	1300.319	1252.776
848.758	29.102	1299.168	1252.419
849.772	29.322	1298.010	1252.649
850.787	29.059	1297.107	1249.836
851.801	29.292	1295.742	1249.957
852.816	29.154	1294.192	1247.376
853.831	29.339	1292.667	1247.013
854.845	29.179	1291.435	1244.589
855.860	29.171	1289.627	1242.646
856.874	29.131	1288.337	1240.981
857.889	29.002	1287.045	1238.719
858.904	28.865	1285.909	1236.546
859.918	28.840	1283.820	1234.225
860.933	28.714	1283.336	1232.759
861.947	28.738	1282.519	1231.992
862.962	29.052	1281.169	1232.656
863.977	28.935	1280.315	1230.905
864.991	28.909	1279.577	1229.870
866.006	29.011	1278.911	1229.767
867.020	29.184	1277.523	1229.451
868.035	29.232	1277.149	1229.264
869.049	29.431	1275.448	1228.807
870.064	29.412	1275.076	1228.179
871.079	29.185	1274.905	1226.349
872.093	29.097	1273.991	1224.732
873.108	29.129	1272.092	1222.975
874.122	29.017	1269.912	1219.984
875.137	28.482	1269.444	1215.826
876.152	28.253	1268.618	1213.362
877.166	28.615	1266.833	1213.918
878.181	28.757	1266.181	1214.091
879.195	28.858	1266.010	1214.451
880.210	29.016	1265.078	1214.461
881.225	29.275	1263.700	1214.707
882.239	29.029	1263.304	1212.553
883.254	29.145	1261.596	1211.537
884.268	29.369	1261.113	1212.410
885.283	29.141	1260.058	1209.745
886.298	29.223	1257.954	1208.122
887.312	29.261	1257.464	1207.757
888.327	29.300	1256.469	1206.909
889.341	29.109	1255.720	1204.792
890.356	29.112	1254.950	1203.927
891.371	28.891	1254.287	1201.698
892.385	29.048	1253.698	1202.017
893.400	29.170	1252.174	1201.210
894.414	29.065	1250.752	1199.020
895.429	28.990	1249.459	1197.145
896.444	28.932	1247.706	1194.945
897.458	28.657	1246.849	1192.186
898.473	28.899	1245.930	1192.743
899.487	28.976	1245.023	1192.232
900.502	29.239	1243.838	1192.663
901.517	29.004	1242.644	1189.850
902.531	29.076	1241.746	1189.317
903.546	29.165	1241.010	1189.048
904.560	29.094	1240.862	1188.299
905.575	29.150	1239.805	1187.511
906.589	29.041	1238.698	1185.600
907.604	29.122	1237.532	1184.869
