DTS Sentinel unit serial number:	SN409020Multiplexer serial number:	ORYXHardware model number:	OX4-SRSoftware version number:	ORYX F/W v3.00 Oryx Data Collector v3.7.2.0data status	okinstallation	HaddamTimeLapsedifferential loss correction	single-endedforward channel	channel 3reverse channel	N/Adate	2011/06/22time	03:56:17forward acquisition time	30.00reverse acquisition time	0.00gamma	498.7831k internal	0.1751k external	0.1751temperature offset calibration	1.0074default loss term (dB/km)	0.3790temperature slope calibration	1.3530multiplexer offset coefficient	1.0000multiplexer slope coefficient	1.0000fibre end	0.00T internal ref (°C)	22.50T ext. ref 1 (°C)	18.14T ext. ref 2 (°C)	0.09length (m)	temperature (°C)	Stokes	anti-Stokes-747.200	473.396	0.049	0.149
-746.185	-49.106	-0.600	0.380
-745.171	506.153	-0.200	-0.620
-744.156	472.492	-0.213	0.640
-743.142	-137.769	-0.185	-0.027
-742.127	226.594	-0.108	0.234
-741.112	800.000	-0.155	-0.695
-740.098	134.053	-0.120	0.207
-739.083	-128.951	-0.291	0.054
-738.069	-145.402	0.356	-0.042
-737.054	-191.834	0.134	0.002
-736.039	-146.766	-0.644	-0.073
-735.025	107.312	0.271	0.429
-734.010	-129.780	-0.085	-0.015
-732.996	372.737	-0.050	0.136
-731.981	-168.467	-0.635	0.032
-730.966	-16.839	-0.275	-0.230
-729.952	20.152	-0.506	0.542
-728.937	-161.252	0.192	0.013
-727.923	365.905	0.128	-0.344
-726.908	-75.983	-0.265	0.124
-725.894	-101.828	-0.503	0.160
-724.879	129.670	-0.341	-0.580
-723.864	37.895	-0.181	-0.214
-722.850	259.023	0.147	0.338
-721.835	-23.711	-0.177	0.140
-720.821	8.407	-0.250	-0.250
-719.806	-84.375	-0.311	-0.130
-718.791	-82.354	-0.220	-0.094
-717.777	70.190	-0.108	0.148
-716.762	-44.918	-0.092	0.060
-715.748	-200.000	0.050	0.605
-714.733	64.083	0.302	0.404
-713.718	-89.789	-0.419	-0.162
-712.704	83.345	0.144	-0.209
-711.689	-200.000	-0.022	-0.139
-710.675	-184.624	-0.262	0.005
-709.660	-76.015	-0.531	-0.248
-708.645	-129.101	0.279	-0.051
-707.631	648.985	0.092	-0.313
-706.616	60.305	-0.137	-0.179
-705.602	-37.718	-0.478	-0.337
-704.587	-200.000	0.053	0.361
-703.572	-95.640	-0.254	0.090
-702.558	-160.194	0.234	-0.017
-701.543	-200.000	0.028	-0.252
-700.529	189.687	0.059	0.118
-699.514	210.421	-0.145	0.303
-698.499	-71.008	-0.680	-0.338
-697.485	-66.426	0.198	-0.104
-696.470	-200.000	0.035	-0.557
-695.456	800.000	0.059	-0.274
-694.441	239.623	0.054	0.119
-693.426	-4.093	-0.328	0.301
-692.412	221.608	0.174	-0.373
-691.397	-35.958	0.433	-0.310
-690.383	-8.795	-0.312	-0.277
-689.368	-12.880	-0.230	-0.199
-688.354	-60.930	-0.431	0.240
-687.339	406.275	0.102	0.288
-686.324	-102.307	0.225	0.071
-685.310	-200.000	0.042	-0.606
-684.295	57.944	-0.195	0.253
-683.281	-200.000	-0.028	-0.312
-682.266	-123.684	-0.340	-0.071
-681.251	37.159	-0.372	-0.437
-680.237	2.646	-0.070	-0.067
-679.222	40.289	-0.166	-0.198
-678.208	-64.865	0.242	0.129
-677.193	1.503	0.320	-0.305
-676.178	105.871	-0.229	-0.360
-675.164	141.123	0.183	0.321
-674.149	-137.272	-0.298	-0.044
-673.135	-113.266	0.451	0.117
-672.120	167.975	0.219	0.413
-671.105	-28.202	-0.434	0.331
-670.091	-78.560	0.575	0.259
-669.076	-92.546	0.457	-0.169
-668.062	-22.892	-0.377	0.300
-667.047	92.550	-0.243	0.364
-666.032	197.796	0.193	0.392
-665.018	228.292	-0.050	0.109
-664.003	197.738	-0.172	0.348
-662.989	-168.537	-0.559	0.028
-661.974	-200.000	0.003	0.603
-660.959	131.074	0.182	0.310
-659.945	800.000	0.081	0.415
-658.930	-66.186	0.212	-0.112
-657.916	-102.503	-0.181	-0.057
-656.901	617.595	0.048	-0.161
-655.886	92.828	-0.342	-0.512
-654.872	74.891	0.284	-0.396
-653.857	-47.305	-0.386	-0.248
-652.843	800.000	-0.058	0.221
-651.828	42.468	0.145	-0.174
-650.814	-84.424	-0.348	0.145
-649.799	-200.000	0.047	0.314
-648.784	102.470	0.024	0.038
-647.770	800.000	-0.054	-0.255
-646.755	34.419	0.234	-0.270
-645.741	-101.965	-0.575	0.182
-644.726	-111.295	-0.427	0.114
-643.711	-56.297	0.431	-0.252
-642.697	-151.555	0.574	0.055
-641.682	243.886	0.043	-0.095
-640.668	-12.479	-0.270	-0.233
-639.653	-118.108	-0.609	-0.143
-638.638	-76.159	-0.152	-0.071
-637.624	136.220	-0.136	-0.236
-636.609	58.860	-0.332	-0.432
-635.595	70.961	-0.166	-0.228
-634.580	-129.490	0.268	0.049
-633.565	-170.399	0.131	0.006
-632.551	64.444	-0.191	-0.255
-631.536	175.080	0.095	-0.182
-630.522	-32.248	-0.409	0.301
-629.507	-69.318	-0.441	-0.223
-628.492	213.188	0.155	0.324
-627.478	-4.395	-0.392	0.358
-626.463	-145.201	0.131	-0.016
-625.449	-113.261	-0.417	-0.108
-624.434	84.191	-0.231	-0.334
-623.419	-200.000	0.016	-0.137
-622.405	75.074	-0.415	-0.579
-621.390	-106.334	-0.244	-0.072
-620.376	2.792	-0.155	-0.149
-619.361	-15.657	-0.163	-0.137
-618.346	800.000	0.033	-0.167
-617.332	-200.000	-0.059	0.496
-616.317	83.742	-0.318	-0.459
-615.303	-126.497	0.346	-0.067
-614.288	800.000	0.074	0.281
-613.273	-52.077	0.149	-0.091
-612.259	28.610	-0.076	-0.085
-611.244	-152.302	-0.426	-0.040
-610.230	562.092	0.155	-0.498
-609.215	41.120	0.219	-0.261
-608.201	-200.000	-0.038	0.241
-607.186	-200.000	-0.053	-0.319
-606.171	41.587	-0.111	0.133
-605.157	-16.844	0.245	-0.205
-604.142	-92.194	0.308	0.114
-603.128	-16.751	-0.253	-0.211
-602.113	55.373	-0.213	0.273
-601.098	197.754	0.090	0.183
-600.084	-200.000	0.000	-0.137
-599.069	37.972	0.199	0.234
-598.055	800.000	-0.124	0.509
-597.040	-124.292	0.112	0.023
-596.025	92.560	-0.131	0.196
-595.011	-105.345	-0.515	0.154
-593.996	-200.000	-0.003	0.126
-592.982	800.000	0.010	0.053
-591.967	-70.513	-0.231	0.115
-590.952	-37.799	0.095	0.066
-589.938	274.999	-0.272	-0.639
-588.923	-91.404	0.332	0.124
-587.909	-158.215	-0.266	0.020
-586.894	84.888	-0.188	-0.273
-585.879	139.019	-0.148	-0.257
-584.865	-145.457	-0.683	0.080
-583.850	-0.596	0.165	0.154
-582.836	800.000	0.154	-0.582
-581.821	-37.004	0.175	0.123
-580.806	174.573	-0.063	-0.121
-579.792	-9.928	-0.175	0.153
-578.777	-200.000	0.053	-0.325
-577.763	-200.000	-0.008	-0.229
-576.748	87.948	0.264	-0.387
-575.733	-200.000	-0.045	-0.334
-574.719	71.176	0.125	-0.171
-573.704	-200.000	0.023	0.250
-572.690	-183.791	0.520	0.011
-571.675	-200.000	0.004	0.541
-570.661	-140.972	-0.460	0.062
-569.646	386.800	0.144	0.395
-568.631	70.477	-0.174	-0.237
-567.617	-116.880	-0.339	0.081
-566.602	-78.043	-0.163	-0.074
-565.588	45.323	0.102	0.124
-564.573	-71.166	-0.184	0.091
-563.558	113.207	0.111	0.177
-562.544	71.661	0.076	0.105
-561.529	800.000	0.095	-0.545
-560.515	-38.298	0.101	-0.071
-559.500	108.095	-0.386	0.608
-558.485	-52.391	0.465	0.283
-557.471	-113.121	0.308	0.080
-556.456	-47.318	0.044	-0.028
-555.442	47.747	0.314	-0.387
-554.427	760.624	0.037	0.134
-553.412	-7.852	-0.350	-0.311
-552.398	231.430	-0.150	0.325
-551.383	79.193	0.084	0.118
-550.369	4.766	0.295	-0.286
-549.354	140.962	0.301	0.525
-548.339	167.782	-0.318	-0.597
-547.325	-130.063	-0.352	-0.063
-546.310	-198.537	0.173	-0.001
-545.296	-149.473	-0.449	-0.046
-544.281	8.443	-0.166	0.164
-543.266	58.163	0.077	-0.100
-542.252	-59.432	-0.069	0.039
-541.237	6.032	-0.070	-0.069
-540.223	-200.000	-0.026	0.181
-539.208	-165.489	0.316	0.018
-538.193	-25.033	-0.186	-0.145
-537.179	-39.604	-0.211	0.145
-536.164	-94.825	0.151	0.054
-535.150	-121.924	0.309	-0.066
-534.135	800.000	-0.109	0.514
-533.121	410.659	0.125	0.351
-532.106	-200.000	0.018	-0.195
-531.091	695.248	-0.175	-0.607
-530.077	-154.035	-0.378	-0.033
-529.062	143.883	-0.141	-0.248
-528.048	-18.973	-0.048	-0.039
-527.033	-164.235	-0.194	-0.012
-526.018	-87.563	-0.427	-0.169
-525.004	-71.076	0.199	0.098
-523.989	-104.279	0.301	0.091
-522.975	-99.555	0.405	-0.133
-521.960	408.701	0.160	0.449
-520.945	-200.000	-0.054	-0.606
-519.931	-59.692	-0.202	0.114
-518.916	-32.899	-0.154	-0.112
-517.902	-200.000	-0.024	0.285
-516.887	-30.176	0.485	-0.362
-515.872	133.271	0.102	0.174
-514.858	-87.916	-0.502	-0.198
-513.843	196.192	0.239	0.481
-512.829	800.000	0.043	-0.238
-511.814	-134.260	-0.828	0.133
-510.799	-18.033	0.068	0.056
-509.785	154.284	0.116	0.211
-508.770	-200.000	0.017	0.385
-507.756	-200.000	-0.005	-0.031
-506.741	-62.134	0.197	-0.108
-505.726	227.124	-0.261	0.561
-504.712	-186.204	0.416	-0.008
-503.697	108.623	0.311	0.489
-502.683	7.855	0.358	-0.353
-501.668	-200.000	-0.006	-0.122
-500.653	-200.000	0.071	0.471
-499.639	353.048	-0.074	0.194
-498.624	-86.107	-0.406	-0.164
-497.610	-200.000	0.005	0.374
-496.595	1.043	0.419	-0.395
-495.581	-92.714	0.155	-0.057
-494.566	-96.247	0.389	0.135
-493.551	-20.114	-0.265	0.215
-492.537	135.669	-0.206	-0.354
-491.522	-82.132	0.297	-0.127
-490.508	-122.012	-0.363	0.078
-489.493	800.000	0.112	-0.455
-488.478	-118.336	-0.193	-0.045
-487.464	-200.000	0.045	-0.385
-486.449	-32.506	-0.223	-0.163
-485.435	35.648	-0.084	-0.097
-484.420	-110.962	0.235	-0.063
-483.405	-48.076	0.032	-0.020
-482.391	-87.590	0.411	-0.162
-481.376	-70.572	-0.164	-0.081
-480.362	-200.000	0.003	-0.444
-479.347	-200.000	0.066	0.638
-478.332	90.413	-0.213	-0.314
-477.318	-58.973	0.325	-0.184
-476.303	-44.147	0.324	0.213
-475.289	-188.273	-0.269	-0.004
-474.274	169.465	-0.117	-0.221
-473.259	-79.340	-0.237	-0.105
-472.245	800.000	0.032	0.143
-471.230	365.384	-0.149	0.395
-470.216	4.040	0.114	0.110
-469.201	23.185	0.248	-0.267
-468.186	112.457	-0.268	0.426
-467.172	-200.000	0.010	0.345
-466.157	4.083	-0.088	0.084
-465.143	-182.161	-0.113	-0.003
-464.128	253.236	0.065	0.145
-463.113	-97.776	-0.388	0.131
-462.099	269.586	-0.115	0.267
-461.084	347.506	-0.192	-0.500
-460.070	-135.861	-0.325	0.050
-459.055	-105.149	0.352	-0.105
-458.040	800.000	0.054	-0.227
-457.026	227.927	-0.166	-0.356
-456.011	-170.170	-0.336	-0.015
-454.997	-200.000	-0.018	0.386
-453.982	-5.685	0.268	0.241
-452.968	112.477	0.171	0.273
-451.953	151.154	-0.172	-0.308
-450.938	20.546	-0.108	0.115
-449.924	108.447	0.289	0.454
-448.909	-140.764	-0.578	-0.078
-447.895	-23.865	0.448	-0.351
-446.880	13.937	-0.212	-0.216
-445.865	154.832	-0.077	0.140
-444.851	-99.110	0.448	-0.148
-443.836	200.717	0.082	0.166
-442.822	385.698	-0.109	-0.298
-441.807	-81.367	-0.118	0.051
-440.792	-77.942	-0.168	0.076
-439.778	160.001	0.102	0.186
-438.763	-80.393	0.100	0.044
-437.749	800.000	-0.135	0.548
-436.734	245.189	-0.118	0.262
-435.719	69.387	0.268	0.362
-434.705	-200.000	-0.033	0.385
-433.690	83.304	-0.182	-0.260
-432.676	-200.000	-0.016	0.158
-431.661	-82.520	-0.278	-0.118
-430.646	-108.385	-0.234	0.066
-429.632	27.401	0.206	0.227
-428.617	-3.971	0.142	-0.129
-427.603	35.796	-0.039	0.044
-426.588	19.525	-0.183	0.193
-425.573	-45.317	-0.536	0.348
-424.559	714.984	0.240	0.839
-423.544	-107.490	0.517	-0.148
-422.530	750.316	-0.108	-0.385
-421.515	-156.551	0.403	0.032
-420.500	750.799	0.154	-0.547
-419.486	-29.598	-0.169	-0.126
-418.471	-47.768	0.504	0.319
-417.457	-53.592	0.153	0.091
-416.442	-35.411	-0.229	-0.163
-415.428	-154.468	-0.535	0.046
-414.413	-200.000	-0.025	-0.213
-413.398	-48.258	0.312	-0.197
-412.384	-162.020	0.218	0.014
-411.369	182.550	0.150	0.291
-410.355	161.563	0.318	0.585
-409.340	175.197	0.256	-0.488
-408.325	-5.549	-0.253	0.227
-407.311	-99.475	-0.284	0.093
-406.296	-108.057	-0.367	-0.104
-405.282	800.000	-0.125	0.458
-404.267	-200.000	-0.009	0.482
-403.252	-57.066	-0.241	-0.139
-402.238	-54.472	-0.352	0.208
-401.223	800.000	0.084	0.487
-400.209	800.000	0.176	-0.659
-399.194	800.000	0.078	-0.325
-398.179	800.000	-0.033	-0.138
-397.165	-51.333	0.386	0.236
-396.150	-200.000	-0.000	0.021
-395.136	800.000	0.200	-0.815
-394.121	-196.289	0.737	0.006
-393.106	-29.746	0.365	0.272
-392.092	-200.000	0.030	-0.189
-391.077	225.721	-0.201	0.427
-390.063	1.276	0.178	0.168
-389.048	-103.703	0.108	0.033
-388.033	488.725	0.084	0.253
-387.019	82.318	-0.170	-0.242
-386.004	41.350	0.126	0.149
-384.990	800.000	-0.057	-0.258
-383.975	-200.000	-0.004	0.296
-382.960	-4.485	-0.161	0.146
-381.946	159.272	-0.017	0.032
-380.931	-65.921	-0.505	0.263
-379.917	-132.538	0.173	0.029
-378.902	-180.872	-0.376	-0.010
-377.888	400.455	0.065	0.180
-376.873	-70.039	-0.032	0.016
-375.858	-102.544	-0.359	0.112
-374.844	-200.000	0.019	-0.353
-373.829	-128.542	0.149	0.027
-372.815	800.000	0.029	0.167
-371.800	297.200	0.189	-0.457
-370.785	77.625	-0.466	0.650
-369.771	-80.315	0.294	0.128
-368.756	0.820	0.087	0.081
-367.742	289.281	-0.113	-0.270
-366.727	-66.802	-0.308	0.159
-365.712	284.961	0.208	-0.492
-364.698	406.412	-0.015	-0.043
-363.683	-39.400	0.441	-0.302
-362.669	696.066	0.093	-0.323
-361.654	194.296	0.197	0.391
-360.639	-4.423	-0.209	-0.189
-359.625	-25.581	-0.077	0.059
-358.610	-15.451	0.233	-0.194
-357.596	267.524	-0.204	0.470
-356.581	-190.091	-0.200	-0.003
-355.566	-148.738	0.202	-0.021
-354.552	158.150	0.137	-0.249
-353.537	383.957	-0.084	-0.227
-352.523	-159.472	0.207	-0.015
-351.508	-129.353	-0.428	0.077
-350.493	-200.000	-0.041	-0.256
-349.479	-79.628	-0.241	0.106
-348.464	-84.037	0.241	0.099
-347.450	-146.167	0.595	-0.068
-346.435	-82.878	0.185	0.078
-345.420	-200.000	0.072	-0.445
-344.406	-21.899	-0.178	-0.142
-343.391	236.925	-0.113	-0.246
-342.377	-57.015	-0.251	0.144
-341.362	216.311	0.064	-0.134
-340.348	30.390	-0.481	0.538
-339.333	-50.703	0.524	0.321
-338.318	-167.888	-0.245	-0.012
-337.304	23.872	0.367	-0.396
-336.289	-151.271	-0.369	-0.036
-335.275	-9.945	0.376	0.326
-334.260	-89.702	0.199	-0.076
-333.245	30.996	-0.187	-0.210
-332.231	-93.001	-0.275	-0.100
-331.216	135.966	-0.202	-0.345
-330.202	-72.531	0.207	0.100
-329.187	-114.528	-0.322	-0.080
-328.172	204.662	0.206	0.419
-327.158	-120.829	0.462	0.101
-326.143	-200.000	0.026	-0.171
-325.129	31.362	-0.114	0.128
-324.114	471.883	0.056	0.165
-323.099	446.277	0.087	-0.250
-322.085	-37.836	-0.484	0.335
-321.070	109.481	0.246	-0.385
-320.056	5.449	0.355	-0.342
-319.041	369.379	-0.089	-0.236
-318.026	-80.998	-0.228	-0.098
-317.012	45.118	0.195	0.234
-315.997	-200.000	-0.015	-0.167
-314.983	800.000	0.025	-0.128
-313.968	-29.799	-0.603	0.448
-312.953	-49.603	0.098	-0.061
-311.939	-82.200	0.415	-0.176
-310.924	74.764	-0.219	-0.301
-309.910	-200.000	-0.035	0.241
-308.895	125.020	0.204	0.336
-307.880	800.000	-0.044	0.250
-306.866	-104.134	0.300	-0.091
-305.851	-114.856	-0.497	-0.123
-304.837	-200.000	0.033	-0.000
-303.822	-166.138	0.517	-0.028
-302.807	37.267	-0.041	-0.047
-301.793	-124.966	0.586	0.117
-300.778	-200.000	-0.004	-0.292
-299.764	-149.177	-0.331	-0.034
-298.749	-200.000	-0.545	0.001
-297.735	11.362	0.162	-0.162
-296.720	-99.865	0.419	-0.136
-295.705	-184.005	0.343	0.007
-294.691	-36.350	0.283	0.199
-293.676	-140.020	-0.139	0.019
-292.662	-53.971	0.059	0.035
-291.647	-79.241	0.273	0.120
-290.632	800.000	0.054	0.229
-289.618	-30.869	0.256	-0.188
-288.603	-21.267	0.171	-0.136
-287.589	-100.060	-0.187	-0.060
-286.574	555.737	-0.090	-0.283
-285.559	-124.520	0.378	0.076
-284.545	169.076	-0.218	-0.406
-283.530	-200.000	0.084	0.512
-282.516	-80.724	0.488	0.210
-281.501	-91.288	-0.209	-0.078
-280.486	-96.288	0.161	-0.055
-279.472	-200.000	-0.053	-0.309
-278.457	-200.000	0.422	-0.001
-277.443	-200.000	-0.048	-0.459
-276.428	-136.758	0.226	-0.034
-275.413	-200.000	0.053	-0.312
-274.399	471.167	-0.086	0.253
-273.384	-70.957	0.323	-0.158
-272.370	304.496	-0.062	-0.150
-271.355	-200.000	-0.058	-0.485
-270.340	-14.891	-0.403	0.337
-269.326	48.385	0.166	0.203
-268.311	-116.576	-0.330	0.079
-267.297	-25.587	-0.166	0.128
-266.282	-57.491	0.098	-0.056
-265.267	-76.811	0.018	0.008
-264.253	-148.790	-0.056	0.006
-263.238	-74.716	0.169	0.079
-262.224	-40.258	0.435	0.294
-261.209	87.795	0.087	-0.126
-260.195	197.429	-0.291	0.581
-259.180	-181.703	0.096	-0.002
-258.165	-89.716	0.297	0.113
-257.151	107.627	0.159	-0.247
-256.136	-45.781	-0.369	-0.237
-255.122	-115.995	-0.182	0.044
-254.107	434.352	0.143	0.405
-253.092	-157.218	0.387	-0.030
-252.078	-181.569	-0.402	-0.010
-251.063	-30.736	0.274	-0.201
-250.049	-73.603	-0.264	-0.125
-249.034	-13.949	-0.098	-0.083
-248.019	74.902	0.146	0.201
-247.005	-113.249	-0.693	0.176
-245.990	-28.396	0.036	-0.027
-244.976	405.190	0.110	-0.304
-243.961	-125.048	-0.411	-0.081
-242.946	3.456	0.324	-0.307
-241.932	-71.232	-0.099	0.048
-240.917	-76.776	0.164	0.074
-239.903	-4.388	-0.124	0.111
-238.888	21.867	-0.464	0.492
-237.873	-82.142	0.082	0.035
-236.859	-42.612	-0.145	0.096
-235.844	561.474	0.079	0.249
-234.830	-53.551	0.360	0.214
-233.815	-47.153	0.152	0.096
-232.800	524.220	-0.172	-0.529
-231.786	-46.612	-0.420	0.267
-230.771	-126.653	-0.380	-0.073
-229.757	39.090	0.307	-0.358
-228.742	800.000	0.051	0.229
-227.727	63.090	-0.072	-0.094
-226.713	-94.971	0.359	-0.126
-225.698	800.000	-0.121	0.521
-224.684	44.419	0.274	0.328
-223.669	-103.824	-0.288	-0.087
-222.655	-46.937	0.712	0.452
-221.640	800.000	-0.148	-0.585
-220.625	87.968	0.376	0.544
-219.611	10.687	-0.151	0.150
-218.596	164.822	-0.019	-0.035
-217.582	-91.891	-0.220	0.081
-216.567	-187.315	-0.271	-0.005
-215.552	321.656	-0.126	0.313
-214.538	70.772	0.313	-0.422
-213.523	493.285	0.223	-0.668
-212.509	-30.800	0.186	-0.137
-211.494	-21.118	0.050	-0.040
-210.479	-96.006	-0.257	0.088
-209.465	89.725	-0.391	-0.569
-208.450	-127.478	-0.226	0.042
-207.436	8.705	0.068	-0.066
-206.421	-2.265	0.102	-0.093
-205.406	-5.369	0.227	-0.203
-204.392	-200.000	0.037	-0.421
-203.377	82.420	-0.201	-0.284
-202.363	-121.723	-0.221	-0.047
-201.348	48.320	0.049	-0.059
-200.333	17.273	0.128	0.132
-199.319	86.056	0.209	0.299
-198.304	35.308	0.258	0.294
-197.290	-200.000	-0.021	-0.393
-196.275	-162.639	-0.472	-0.030
-195.260	55.461	-0.157	0.197
-194.246	-101.877	0.404	-0.126
-193.231	-23.265	-0.344	0.268
-192.217	-49.459	0.223	0.137
-191.202	-200.000	-0.020	-0.289
-190.187	-110.136	0.506	0.136
-189.173	-200.000	0.028	0.596
-188.158	-77.781	0.235	0.105
-187.144	-12.764	0.061	0.051
-186.129	-49.450	0.175	0.108
-185.114	258.749	0.049	0.110
-184.100	112.382	0.107	0.168
-183.085	-74.772	0.365	-0.170
-182.071	-134.588	-0.146	0.023
-181.056	-58.575	0.588	-0.330
-180.042	-63.724	-0.356	0.189
-179.027	337.347	0.064	0.161
-178.012	-81.128	0.139	0.060
-176.998	-54.869	0.219	-0.128
-175.983	-179.430	-0.325	-0.009
-174.969	89.440	0.374	-0.542
-173.954	195.950	0.208	0.412
-172.939	-55.807	0.431	-0.249
-171.925	1.419	0.279	0.261
-170.910	-45.385	0.306	-0.196
-169.896	102.506	-0.118	-0.180
-168.881	62.165	-0.099	-0.128
-167.866	-91.850	-0.522	-0.191
-166.852	101.315	-0.155	0.234
-165.837	-35.550	-0.059	0.042
-164.823	118.273	0.334	0.536
-163.808	-163.352	-0.516	-0.032
-162.793	-4.998	-0.282	0.252
-161.779	-98.784	-0.472	-0.155
-160.764	0.120	-0.298	0.276
-159.750	-160.928	-0.255	-0.017
-158.735	-42.450	0.156	-0.103
-157.720	-66.251	0.241	0.124
-156.706	-110.976	0.087	-0.023
-155.691	2.587	0.528	0.496
-154.677	13.996	0.059	-0.060
-153.662	-167.212	0.319	-0.017
-152.647	-35.785	-0.150	0.105
-151.633	282.794	0.134	-0.313
-150.618	43.250	0.339	-0.402
-149.604	-3.079	0.446	0.403
-148.589	209.091	-0.151	-0.308
-147.574	-43.011	0.126	-0.082
-146.560	-139.384	-0.162	0.022
-145.545	-147.265	0.276	0.030
-144.531	-124.095	-0.603	-0.122
-143.516	-108.404	0.572	-0.159
-142.502	228.640	-0.058	0.123
-141.487	-200.000	-0.006	-0.459
-140.472	-26.710	0.190	-0.144
-139.458	-200.000	0.285	-0.002
-138.443	61.169	-0.310	-0.400
-137.429	304.097	-0.083	0.201
-136.414	39.515	-0.312	0.362
-135.399	157.843	0.179	-0.323
-134.385	-23.131	0.107	0.084
-133.370	209.863	-0.227	-0.464
-132.356	-200.000	0.046	-0.299
-131.341	-200.000	0.029	-0.404
-130.326	-23.580	0.348	-0.270
-129.312	125.912	-0.312	-0.513
-128.297	-116.284	-0.315	-0.075
-127.283	-58.172	0.172	0.097
-126.268	-200.000	0.001	-0.209
-125.253	136.292	0.042	-0.070
-124.239	278.353	-0.029	-0.067
-123.224	-172.402	-0.464	-0.019
-122.210	-183.155	0.355	0.008
-121.195	7.192	-0.427	-0.413
-120.180	800.000	0.026	-0.146
-119.166	306.428	0.146	-0.354
-118.151	-49.363	0.178	0.110
-117.137	-19.214	0.227	0.183
-116.122	-43.177	-0.198	0.129
-115.107	-133.664	-0.717	0.115
-114.093	-77.654	-0.310	-0.138
-113.078	-134.552	-0.591	0.093
-112.064	69.253	-0.128	-0.171
-111.049	-200.000	0.040	-0.389
-110.034	-200.000	0.054	0.434
-109.020	-144.411	0.134	0.016
-108.005	-194.572	-0.137	0.001
-106.991	358.540	-0.127	-0.330
-105.976	-33.880	0.323	-0.230
-104.962	-128.545	-0.625	0.114
-103.947	-107.402	0.236	0.067
-102.932	-107.848	-0.397	0.111
-101.918	-89.681	-0.290	-0.109
-100.903	300.441	0.181	0.434
-99.889	-77.431	0.130	-0.058
-98.874	800.000	0.077	-0.335
-97.859	677.644	-0.056	0.189
-96.845	-13.197	-0.088	0.074
-95.830	-200.000	0.026	-0.204
-94.816	800.000	0.060	0.240
-93.801	-36.994	-0.078	0.054
-92.786	-135.639	0.541	-0.082
-91.772	-95.767	0.067	-0.023
-90.757	-23.876	-0.220	0.170
-89.743	31.835	-0.410	-0.457
-88.728	-43.719	0.202	0.131
-87.713	-67.622	0.351	-0.177
-86.699	-200.000	0.013	0.218
-85.684	112.368	0.077	0.121
-84.670	-37.494	-0.130	0.089
-83.655	-8.862	0.156	0.135
-82.640	-200.000	-0.013	0.079
-81.626	-81.067	0.196	0.083
-80.611	-200.000	0.028	0.272
-79.597	196.164	-0.067	-0.133
-78.582	145.635	0.240	-0.417
-77.567	-96.087	-0.098	0.034
-76.553	-70.776	0.344	-0.167
-75.538	199.803	0.228	-0.455
-74.524	800.000	0.049	0.231
-73.509	-110.919	-0.060	-0.016
-72.494	113.791	-0.070	0.110
-71.480	-38.969	0.399	-0.271
-70.465	29.163	-0.267	-0.293
-69.451	22.565	-0.543	-0.574
-68.436	-154.013	0.369	0.032
-67.422	-99.969	0.374	-0.120
-66.407	-169.154	-0.430	-0.020
-65.392	19.845	0.127	0.133
-64.378	-151.272	-0.715	-0.068
-63.363	-200.000	-0.006	-0.415
-62.349	-83.005	-0.454	0.188
-61.334	18.507	-2.247	-2.322
-60.319	-32.531	1.602	1.152
-59.305	171.423	-4.170	-7.758
-58.290	40.697	4.446	5.185
-57.276	513.359	3.484	10.558
-56.261	-200.000	24.287	319.973
-55.246	355.184	1303.628	3367.105
-54.232	53.200	2843.542	3523.174
-53.217	51.620	2658.509	3269.385
-52.203	31.825	2387.966	2657.945
-51.188	27.733	2054.225	2236.095
-50.173	24.506	1939.678	2073.710
-49.159	23.384	1928.936	2049.116
-48.144	22.890	1924.182	2038.255
-47.130	22.794	1922.202	2034.964
-46.115	22.788	1920.409	2032.912
-45.100	22.735	1918.653	2030.358
-44.086	22.766	1917.557	2029.483
-43.071	22.707	1916.207	2027.293
-42.057	22.641	1914.487	2024.629
-41.042	22.719	1912.048	2022.865
-40.027	22.800	1911.000	2022.615
-39.013	22.739	1909.233	2019.953
-37.998	22.590	1909.130	2018.054
-36.984	22.643	1907.803	2017.176
-35.969	22.562	1906.738	2015.039
-34.954	22.679	1904.957	2014.422
-33.940	22.571	1903.904	2011.994
-32.925	22.607	1902.735	2011.090
-31.911	22.609	1900.707	2008.888
-30.896	22.589	1899.758	2007.574
-29.881	22.612	1898.736	2006.676
-28.867	22.504	1897.266	2003.817
-27.852	22.482	1895.438	2001.556
-26.838	22.428	1894.418	1999.780
-25.823	22.475	1893.430	1999.193
-24.809	22.542	1891.680	1998.032
-23.794	22.687	1889.141	1996.913
-22.779	22.523	1889.627	1995.482
-21.765	22.496	1888.295	1993.697
-20.750	22.429	1886.940	1991.421
-19.736	22.551	1885.220	1990.919
-18.721	22.514	1884.702	1989.864
-17.706	22.355	1884.271	1987.525
-16.692	22.449	1882.029	1986.152
-15.677	22.517	1881.037	1985.794
-14.663	22.564	1878.555	1983.629
-13.648	22.311	1878.402	1980.526
-12.633	22.409	1876.985	1980.063
-11.619	22.383	1875.859	1978.498
-10.604	22.428	1873.910	1976.874
-9.590	22.357	1873.521	1975.587
-8.575	22.397	1872.086	1974.448
-7.560	22.348	1871.660	1973.368
-6.546	22.405	1869.838	1972.000
-5.531	22.466	1868.679	1971.392
-4.517	22.284	1868.010	1968.560
-3.502	22.501	1866.096	1968.899
-2.487	22.497	1865.552	1968.203
-1.473	22.544	1861.600	1964.484
-0.458	22.392	1844.096	1944.251
0.556	19.131	1991.526	2048.475
1.571	17.743	2194.811	2238.999
2.586	18.605	2233.584	2289.854
3.600	18.584	2236.739	2292.525
4.615	18.454	2235.798	2289.536
5.629	18.559	2233.784	2288.618
6.644	18.603	2231.190	2286.275
7.659	18.564	2229.901	2284.154
8.673	18.566	2227.513	2281.461
9.688	18.314	2236.631	2287.137
10.702	17.512	2315.937	2356.794
11.717	15.893	2380.395	2398.934
12.731	7.362	2361.644	2258.088
13.746	1.039	2343.668	2150.604
14.761	0.280	2340.324	2136.471
15.775	0.159	2338.579	2132.898
16.790	0.171	2336.409	2130.839
17.804	0.084	2335.690	2128.687
18.819	0.191	2334.189	2128.578
19.834	0.034	2332.963	2124.978
20.848	0.020	2331.877	2123.537
21.863	0.013	2329.874	2121.355
22.877	0.046	2328.071	2119.929
23.892	0.032	2325.993	2117.589
24.907	0.162	2323.267	2116.690
25.921	0.135	2320.821	2113.835
26.936	0.113	2318.865	2111.485
27.950	0.096	2316.290	2108.642
28.965	0.171	2314.328	2107.658
29.980	0.078	2312.959	2104.859
30.994	0.133	2311.180	2103.752
32.009	3.939	2323.706	2168.592
33.023	13.505	2350.066	2328.709
34.038	17.792	2357.402	2396.350
35.053	18.025	2356.288	2398.220
36.067	18.101	2353.053	2395.710
37.082	18.004	2352.088	2393.082
38.096	18.113	2349.811	2392.008
39.111	18.172	2347.845	2390.544
40.126	18.268	2345.978	2389.703
41.140	18.410	2344.495	2389.898
42.155	18.299	2341.941	2385.458
43.169	18.226	2340.034	2382.212
44.184	18.222	2336.820	2378.595
45.199	18.172	2335.266	2376.027
46.213	18.309	2333.862	2376.233
47.228	18.348	2333.171	2375.786
48.242	18.330	2331.857	2373.908
49.257	18.279	2329.871	2370.897
50.271	18.442	2326.574	2369.517
51.286	18.312	2324.751	2365.576
52.301	18.251	2322.907	2362.566
53.315	18.507	2324.528	2367.485
54.330	20.043	2328.746	2392.840
55.344	21.217	2327.882	2407.946
56.359	21.393	2324.170	2406.265
57.374	21.492	2323.527	2406.671
58.388	21.661	2320.692	2405.788
59.403	21.566	2316.576	2399.922
60.417	21.362	2314.007	2394.162
61.432	21.399	2312.796	2393.136
62.447	21.602	2311.132	2393.918
63.461	21.740	2309.473	2393.802
64.476	21.897	2307.391	2393.512
65.490	21.739	2304.925	2388.506
66.505	21.212	2303.471	2379.496
67.520	19.822	2298.410	2354.970
68.534	18.417	2292.282	2329.223
69.549	18.380	2286.612	2322.683
70.563	18.351	2286.266	2321.665
71.578	18.373	2284.368	2319.751
72.593	18.365	2282.214	2317.177
73.607	18.422	2281.162	2316.609
74.622	18.403	2279.008	2313.882
75.636	18.289	2275.703	2308.713
76.651	18.359	2273.519	2307.165
77.666	18.364	2272.553	2305.973
78.680	18.386	2269.839	2303.249
79.695	18.328	2268.049	2300.362
80.709	18.256	2267.178	2298.235
81.724	18.267	2264.109	2294.995
82.739	18.316	2262.364	2293.612
83.753	18.155	2260.155	2288.934
84.768	18.194	2258.412	2287.415
85.782	18.235	2256.964	2286.224
86.797	18.045	2255.793	2282.220
87.812	18.124	2253.301	2280.487
88.826	18.220	2251.006	2279.169
89.841	18.140	2248.609	2275.411
90.855	18.316	2246.088	2274.935
91.870	18.256	2245.583	2273.352
92.884	18.240	2243.157	2270.403
93.899	18.214	2241.831	2268.451
94.914	18.463	2243.695	2273.377
95.928	20.008	2247.900	2297.990
96.943	20.475	2245.010	2300.983
97.957	19.053	2238.325	2274.967
98.972	18.280	2234.122	2260.170
99.987	18.204	2230.772	2255.502
101.001	18.107	2228.392	2251.538
102.016	18.211	2225.683	2249.911
103.030	18.234	2223.332	2247.568
104.045	18.150	2221.827	2244.675
105.060	18.244	2219.238	2243.028
106.074	18.163	2218.087	2240.519
107.089	18.154	2216.889	2238.929
108.103	18.143	2216.192	2237.808
109.118	18.196	2214.914	2236.944
110.133	18.393	2212.340	2236.664
111.147	18.366	2210.550	2234.231
112.162	18.244	2209.328	2231.131
113.176	18.360	2207.178	2230.213
114.191	18.324	2204.779	2227.054
115.206	18.291	2203.313	2224.878
116.220	18.292	2201.632	2222.923
117.235	18.283	2198.611	2219.497
118.249	18.236	2196.333	2216.314
119.264	18.247	2195.509	2215.363
120.279	18.380	2194.162	2215.464
121.293	18.279	2192.568	2212.276
122.308	18.269	2190.544	2209.841
123.322	18.172	2190.104	2207.879
124.337	18.426	2189.815	2210.616
125.352	20.187	2194.716	2238.160
126.366	20.452	2192.856	2239.426
127.381	18.891	2184.309	2210.281
128.395	18.304	2180.041	2198.113
129.410	18.309	2178.375	2196.242
130.424	18.139	2177.356	2192.756
131.439	18.170	2175.142	2190.663
132.454	18.222	2173.003	2188.921
133.468	18.198	2171.287	2186.620
134.483	18.295	2169.499	2185.807
135.497	18.423	2167.498	2185.160
136.512	18.339	2165.703	2182.017
137.527	18.240	2164.342	2179.116
138.541	18.139	2163.078	2176.288
139.556	18.084	2162.826	2175.074
140.570	18.191	2160.843	2174.194
141.585	18.234	2158.040	2171.652
142.600	18.047	2158.271	2169.248
143.614	18.044	2155.868	2166.534
144.629	17.993	2154.511	2164.252
145.643	18.128	2152.127	2163.322
146.658	18.094	2149.304	2159.795
147.673	18.088	2148.229	2158.373
148.687	18.145	2147.887	2158.501
149.702	18.289	2146.369	2158.543
150.716	18.154	2145.697	2155.896
151.731	18.170	2144.194	2154.329
152.746	18.256	2143.225	2154.191
153.760	18.573	2144.093	2158.809
154.775	20.175	2147.423	2182.192
155.789	20.565	2145.175	2184.573
156.804	19.133	2137.690	2158.655
157.819	18.217	2132.696	2141.833
158.833	18.268	2130.754	2140.259
159.848	18.227	2129.284	2138.020
160.862	18.325	2127.925	2137.627
161.877	18.396	2126.089	2136.415
162.892	18.307	2124.884	2133.831
163.906	18.236	2124.525	2132.327
164.921	18.321	2122.431	2131.037
165.935	18.313	2120.555	2128.790
166.950	18.386	2118.540	2127.432
167.964	18.220	2116.668	2123.229
168.979	18.163	2113.650	2119.232
169.994	18.313	2111.964	2119.159
171.008	18.280	2109.752	2116.278
172.023	18.263	2108.625	2114.674
173.037	18.178	2107.980	2112.724
174.052	18.248	2106.216	2111.572
175.067	18.204	2104.471	2109.017
176.081	18.183	2103.459	2107.499
177.096	18.277	2101.845	2106.784
178.110	18.177	2100.483	2103.931
179.125	18.184	2100.287	2103.571
180.140	18.325	2097.819	2102.592
181.154	18.219	2096.697	2099.909
182.169	18.218	2095.667	2098.611
183.183	18.498	2096.789	2102.933
184.198	20.229	2100.789	2128.058
185.213	20.669	2098.809	2131.220
186.227	19.087	2092.352	2104.980
187.242	18.367	2089.144	2092.662
188.256	18.231	2087.490	2089.076
189.271	18.275	2085.759	2087.632
190.286	18.314	2083.826	2085.929
191.300	18.199	2081.954	2082.394
192.315	18.209	2079.287	2079.604
193.329	18.248	2079.249	2079.799
194.344	18.503	2076.968	2080.380
195.359	18.532	2076.326	2079.832
196.373	18.432	2073.666	2075.710
197.388	18.224	2071.763	2071.017
198.402	18.245	2069.455	2068.727
199.417	18.062	2067.204	2064.004
200.432	18.216	2066.214	2064.639
201.446	18.189	2065.777	2063.629
202.461	18.335	2062.446	2061.816
203.475	18.272	2061.082	2059.446
204.490	18.184	2060.222	2057.279
205.504	18.259	2057.288	2055.003
206.519	18.127	2054.817	2050.693
207.534	18.175	2053.027	2049.242
208.548	18.247	2052.374	2049.213
209.563	18.172	2051.291	2046.991
210.577	18.139	2050.148	2045.199
211.592	18.229	2049.821	2045.719
212.607	19.044	2052.098	2057.538
213.621	20.936	2056.514	2084.490
214.636	20.490	2051.836	2074.146
215.650	18.660	2044.706	2044.801
216.665	18.182	2041.690	2035.815
217.680	18.339	2040.126	2035.887
218.694	18.448	2038.312	2035.142
219.709	18.274	2037.080	2031.585
220.723	18.284	2036.087	2030.469
221.738	18.392	2033.303	2028.741
222.753	18.258	2032.378	2025.978
223.767	18.188	2031.102	2023.634
224.782	18.194	2029.253	2021.621
225.796	18.238	2028.279	2020.932
226.811	18.211	2026.955	2019.044
227.826	18.411	2023.658	2017.892
228.840	18.301	2023.320	2016.008
229.855	18.355	2021.978	2015.067
230.869	18.324	2019.860	2012.349
231.884	18.253	2018.363	2009.785
232.899	18.228	2017.066	2007.952
233.913	18.239	2015.568	2006.355
234.928	18.130	2014.872	2004.133
235.942	18.219	2013.365	2003.446
236.957	18.284	2010.831	2001.444
237.972	18.262	2010.488	2000.606
238.986	18.127	2009.622	1997.921
240.001	18.288	2007.557	1997.516
241.015	18.290	2006.689	1996.435
242.030	18.595	2007.198	2000.278
243.045	20.127	2009.596	2020.395
244.059	20.288	2006.780	2019.210
245.074	18.787	2000.797	1995.424
246.088	18.210	1998.302	1985.966
247.103	18.278	1996.854	1985.087
248.117	18.316	1995.378	1983.829
249.132	18.499	1992.631	1982.985
250.147	18.323	1991.010	1979.092
251.161	18.260	1989.452	1976.569
252.176	18.422	1988.511	1977.280
253.190	18.500	1987.449	1976.896
254.205	18.510	1985.185	1974.519
255.220	18.490	1983.953	1972.827
256.234	18.492	1982.835	1971.506
257.249	18.339	1980.999	1967.669
258.263	18.330	1980.641	1966.977
259.278	18.339	1978.747	1964.968
260.293	18.294	1977.592	1963.061
261.307	18.271	1974.786	1959.782
262.322	18.294	1972.926	1957.958
263.336	18.168	1971.383	1954.751
264.351	18.251	1970.826	1954.911
265.366	18.101	1968.995	1951.142
266.380	18.124	1968.428	1950.616
267.395	18.243	1966.038	1949.377
268.409	18.226	1964.690	1947.612
269.424	18.263	1963.534	1946.658
270.439	18.388	1961.983	1946.312
271.453	18.860	1963.044	1952.526
272.468	20.357	1965.217	1971.547
273.482	20.515	1962.179	1970.069
274.497	18.982	1956.322	1946.529
275.512	18.389	1952.627	1935.883
276.526	18.298	1950.366	1932.380
277.541	18.180	1948.936	1929.394
278.555	18.234	1947.116	1927.966
279.570	18.060	1945.949	1924.608
280.585	18.103	1944.188	1923.129
281.599	18.258	1942.672	1923.151
282.614	18.309	1942.537	1923.357
283.628	18.366	1941.202	1922.450
284.643	18.369	1940.924	1921.981
285.657	18.527	1939.325	1921.942
286.672	18.564	1937.384	1920.210
287.687	18.405	1936.553	1917.372
288.701	18.475	1936.035	1917.412
289.716	18.479	1933.564	1914.785
290.730	18.416	1931.849	1912.147
291.745	18.545	1929.975	1911.512
292.760	18.436	1929.424	1909.513
293.774	18.373	1927.851	1907.024
294.789	18.317	1927.185	1905.506
295.803	18.264	1925.005	1902.534
296.818	18.331	1923.131	1901.205
297.833	18.265	1922.324	1899.438
298.847	18.225	1920.730	1897.195
299.862	18.329	1919.342	1896.751
300.876	18.665	1919.593	1900.508
301.891	20.385	1922.783	1922.603
302.906	20.864	1921.146	1926.060
303.920	19.004	1916.011	1900.044
304.935	18.446	1911.615	1889.279
305.949	18.293	1909.985	1885.745
306.964	18.284	1908.229	1883.688
307.979	18.356	1907.540	1883.579
308.993	18.414	1905.510	1881.989
310.008	18.613	1903.865	1882.335
311.022	18.623	1903.079	1881.441
312.037	18.514	1901.451	1878.411
313.052	18.666	1898.102	1876.543
314.066	18.678	1897.692	1876.044
315.081	18.463	1896.895	1872.673
316.095	18.354	1896.096	1870.469
317.110	18.356	1894.622	1868.808
318.125	18.455	1892.861	1867.928
319.139	18.468	1891.664	1866.665
320.154	18.530	1889.890	1865.376
321.168	18.396	1889.550	1863.353
322.183	18.475	1887.161	1861.636
323.197	18.193	1885.877	1857.063
324.212	18.142	1884.134	1854.568
325.227	18.009	1882.532	1851.326
326.241	18.202	1880.168	1850.877
327.256	18.270	1879.372	1850.614
328.270	18.231	1878.530	1849.143
329.285	18.295	1878.424	1849.502
330.300	18.871	1880.535	1857.622
331.314	20.591	1883.452	1878.980
332.329	20.601	1879.303	1874.726
333.343	18.761	1873.006	1848.337
334.358	18.325	1869.847	1840.281
335.373	18.225	1867.786	1836.961
336.387	18.226	1866.586	1835.562
337.402	18.211	1864.917	1833.549
338.416	18.242	1863.504	1832.272
339.431	18.299	1862.980	1832.144
340.446	18.298	1861.388	1830.349
341.460	18.423	1859.985	1830.092
342.475	18.514	1857.776	1828.676
343.489	18.525	1857.424	1828.226
344.504	18.555	1856.494	1827.421
345.519	18.632	1854.461	1826.020
346.533	18.671	1852.413	1824.203
347.548	18.622	1851.924	1822.979
348.562	18.494	1851.197	1820.682
349.577	18.582	1849.578	1819.809
350.592	18.615	1848.640	1819.017
351.606	18.550	1846.948	1816.446
352.621	18.476	1844.914	1813.441
353.635	18.319	1843.510	1810.174
354.650	18.320	1841.773	1808.260
355.665	18.294	1840.175	1806.199
356.679	18.257	1839.991	1805.418
357.694	18.174	1838.283	1802.637
358.708	18.351	1836.518	1802.566
359.723	19.209	1837.851	1812.741
360.738	20.773	1840.383	1831.575
361.752	20.205	1836.748	1821.737
362.767	18.700	1831.860	1800.819
363.781	18.129	1829.352	1792.122
364.796	18.243	1827.625	1791.417
365.810	18.181	1826.632	1789.570
366.825	18.285	1825.637	1789.476
367.840	18.402	1824.797	1789.665
368.854	18.284	1823.934	1787.372
369.869	18.263	1821.711	1784.759
370.883	18.146	1819.497	1781.154
371.898	18.175	1818.733	1780.494
372.913	18.161	1817.856	1779.272
373.927	18.213	1816.808	1778.576
374.942	18.149	1816.142	1777.045
375.956	18.411	1813.972	1777.442
376.971	18.333	1811.858	1774.348
377.986	18.277	1810.692	1772.408
379.000	18.311	1809.722	1771.596
380.015	18.516	1808.332	1772.154
381.029	18.397	1806.303	1768.720
382.044	18.336	1804.126	1765.744
383.059	18.329	1802.425	1763.802
384.073	18.360	1801.736	1763.229
385.088	18.192	1801.553	1761.110
386.102	18.212	1799.018	1758.627
387.117	18.220	1796.518	1756.052
388.132	18.108	1796.953	1755.113
389.146	18.759	1799.716	1764.324
390.161	20.624	1801.256	1784.882
391.175	20.493	1795.559	1777.674
392.190	18.650	1789.651	1752.709
393.205	18.069	1787.334	1744.272
394.219	18.166	1785.981	1743.730
395.234	18.118	1785.077	1742.155
396.248	18.288	1782.933	1741.586
397.263	18.204	1780.799	1738.437
398.278	18.239	1778.812	1736.648
399.292	18.299	1777.506	1735.778
400.307	18.313	1777.964	1736.163
401.321	18.408	1776.428	1735.417
402.336	18.249	1775.538	1732.723
403.350	18.440	1773.966	1732.924
404.365	18.503	1772.882	1732.299
405.380	18.659	1772.199	1733.009
406.394	18.820	1771.559	1733.807
407.409	18.679	1769.514	1730.171
408.423	18.727	1768.153	1729.116
409.438	18.594	1766.552	1726.001
410.453	18.595	1765.366	1724.642
411.467	18.518	1765.008	1723.310
412.482	18.537	1763.156	1721.488
413.496	18.408	1762.027	1718.881
414.511	18.425	1758.834	1715.728
415.526	18.428	1756.867	1713.636
416.540	18.275	1755.383	1710.444
417.555	18.427	1754.243	1710.656
418.569	18.219	1755.004	1709.099
419.584	18.393	1754.593	1710.246
420.599	18.460	1754.231	1710.356
421.613	18.378	1753.271	1708.397
422.628	18.505	1751.537	1707.774
423.642	18.372	1749.694	1704.443
424.657	18.530	1748.320	1704.481
425.672	18.505	1745.793	1701.562
426.686	18.350	1745.102	1699.137
427.701	18.236	1744.552	1697.264
428.715	18.463	1742.297	1697.125
429.730	18.526	1741.132	1696.413
430.745	18.388	1739.615	1693.361
431.759	18.410	1739.668	1693.429
432.774	18.378	1739.487	1692.737
433.788	18.572	1738.856	1693.840
434.803	18.585	1737.416	1692.364
435.818	18.508	1736.732	1690.734
436.832	18.380	1736.129	1688.675
437.847	17.243	1728.910	1670.228
438.861	9.543	1708.340	1574.733
439.876	1.782	1693.278	1484.839
440.890	0.358	1689.303	1467.251
441.905	0.234	1688.665	1465.309
442.920	0.130	1687.638	1463.222
443.934	0.265	1685.389	1462.417
444.949	0.265	1685.480	1462.318
445.963	0.196	1684.266	1460.413
446.978	0.107	1683.868	1459.029
447.993	0.222	1681.692	1458.092
449.007	0.256	1678.989	1455.898
450.022	0.240	1678.195	1454.882
451.036	0.144	1676.507	1452.312
452.051	1.107	1681.027	1465.421
453.066	8.826	1698.136	1555.714
454.080	16.396	1710.353	1640.871
455.095	17.865	1711.797	1656.400
456.109	17.966	1711.484	1656.889
457.124	18.078	1709.744	1656.088
458.139	18.048	1709.231	1655.104
459.153	18.024	1708.069	1653.548
460.168	18.178	1706.664	1653.489
461.182	18.088	1705.465	1651.250
462.197	18.004	1703.575	1648.411
463.212	18.189	1701.888	1648.373
464.226	18.174	1700.713	1646.889
465.241	18.260	1699.481	1646.331
466.255	18.156	1698.471	1644.152
467.270	18.236	1696.767	1643.078
468.285	18.079	1695.674	1640.314
469.299	18.210	1694.487	1640.225
470.314	18.113	1693.062	1637.720
471.328	18.111	1691.643	1636.127
472.343	18.241	1690.525	1636.100
473.358	18.046	1690.299	1633.812
474.372	18.248	1687.371	1632.727
475.387	18.205	1686.400	1631.177
476.401	18.202	1684.568	1629.188
477.416	18.128	1684.658	1628.370
478.430	18.042	1683.304	1626.035
479.445	18.025	1681.821	1624.249
480.460	18.120	1680.485	1623.672
481.474	18.250	1679.087	1623.369
482.489	18.302	1677.824	1622.446
483.503	18.347	1676.087	1620.997
484.518	18.319	1674.441	1618.951
485.533	18.229	1673.319	1616.813
486.547	18.279	1672.069	1615.886
487.562	18.368	1670.805	1615.322
488.576	18.300	1669.613	1613.328
489.591	18.312	1668.726	1612.397
490.606	18.263	1667.257	1610.317
491.620	18.317	1665.545	1608.982
492.635	18.272	1663.743	1606.620
493.649	18.236	1663.438	1605.794
494.664	18.176	1662.121	1603.765
495.679	18.273	1660.581	1602.999
496.693	18.071	1659.529	1599.893
497.708	18.154	1658.318	1599.313
498.722	18.154	1657.325	1598.169
499.737	18.263	1655.264	1597.011
500.752	18.244	1653.719	1595.152
501.766	18.116	1652.517	1592.598
502.781	18.134	1651.166	1591.273
503.795	18.192	1649.973	1590.483
504.810	18.312	1648.739	1590.223
505.825	18.222	1648.379	1588.845
506.839	18.271	1646.804	1587.593
507.854	18.352	1644.822	1586.241
508.868	18.276	1643.836	1584.392
509.883	18.355	1642.387	1583.542
510.898	18.307	1642.120	1582.655
511.912	18.234	1640.716	1580.432
512.927	18.168	1638.469	1577.462
513.941	18.103	1636.980	1575.243
514.956	18.042	1635.896	1573.450
515.971	18.156	1634.416	1572.887
516.985	18.097	1633.703	1571.472
518.000	18.176	1632.587	1570.934
519.014	18.231	1631.797	1570.495
520.029	18.287	1630.396	1569.476
521.043	18.211	1628.976	1567.219
522.058	18.187	1628.384	1566.246
523.073	18.229	1626.779	1564.895
524.087	18.361	1625.601	1564.791
525.102	18.227	1625.066	1562.859
526.116	18.222	1623.932	1561.530
527.131	18.201	1622.426	1559.708
528.146	18.350	1621.763	1560.243
529.160	18.372	1620.583	1559.125
530.175	18.215	1619.867	1556.810
531.189	18.445	1617.560	1556.511
532.204	18.193	1617.334	1553.802
533.219	18.143	1615.826	1551.718
534.233	18.306	1614.547	1551.785
535.248	18.426	1613.760	1551.936
536.262	18.244	1613.165	1549.524
537.277	18.166	1612.256	1547.755
538.292	18.308	1609.418	1546.138
539.306	18.246	1607.562	1543.600
540.321	18.350	1605.757	1542.628
541.335	18.361	1605.091	1541.904
542.350	18.256	1604.023	1539.739
543.365	18.205	1602.476	1537.616
544.379	18.387	1601.236	1537.885
545.394	18.207	1600.046	1534.931
546.408	18.327	1598.534	1534.382
547.423	18.064	1597.997	1531.307
548.438	18.252	1596.452	1531.336
549.452	18.198	1595.688	1529.933
550.467	18.392	1594.036	1529.908
551.481	18.275	1593.008	1527.688
552.496	18.300	1592.435	1527.184
553.511	18.313	1591.903	1526.609
554.525	18.102	1590.555	1523.238
555.540	18.311	1589.487	1523.910
556.554	18.428	1588.259	1523.594
557.569	18.344	1586.808	1521.269
558.583	18.191	1585.338	1518.308
559.598	18.288	1583.954	1517.670
560.613	18.107	1583.631	1515.569
561.627	18.246	1582.092	1515.150
562.642	18.337	1579.631	1513.422
563.656	18.379	1578.210	1512.252
564.671	18.393	1576.692	1510.740
565.686	18.416	1576.051	1510.144
566.700	18.504	1573.840	1508.622
567.715	18.312	1573.386	1506.310
568.729	18.290	1571.781	1504.399
569.744	18.158	1570.119	1501.465
570.759	18.252	1569.054	1501.094
571.773	18.329	1567.772	1500.366
572.788	18.176	1567.356	1498.441
573.802	18.300	1565.800	1497.867
574.817	18.352	1564.522	1496.923
575.832	18.386	1564.001	1496.540
576.846	18.377	1562.795	1495.131
577.861	18.265	1561.540	1492.769
578.875	18.202	1561.233	1491.748
579.890	18.400	1558.869	1491.036
580.905	18.357	1558.287	1489.926
581.919	18.575	1557.621	1491.016
582.934	18.597	1556.798	1490.246
583.948	18.376	1555.481	1486.876
584.963	18.324	1554.071	1484.894
585.978	18.350	1553.053	1483.975
586.992	18.347	1552.117	1482.873
588.007	18.418	1550.895	1482.151
589.021	18.415	1549.909	1481.003
590.036	18.254	1548.979	1478.541
591.051	18.305	1547.532	1477.427
592.065	18.328	1545.716	1475.712
593.080	18.381	1544.852	1475.172
594.094	18.387	1542.748	1473.035
595.109	18.280	1541.118	1470.380
596.123	18.393	1539.397	1469.540
597.138	18.362	1538.767	1468.495
598.153	18.390	1537.740	1467.576
599.167	18.465	1536.092	1466.471
600.182	18.610	1535.051	1466.553
601.196	18.358	1534.714	1463.889
602.211	18.288	1534.217	1462.637
603.226	18.365	1532.799	1461.772
604.240	18.412	1530.913	1460.202
605.255	18.612	1529.413	1460.302
606.269	18.422	1529.118	1458.223
607.284	18.470	1527.789	1457.191
608.299	18.498	1526.240	1455.778
609.313	18.379	1525.601	1453.982
610.328	18.524	1524.081	1453.595
611.342	18.500	1522.420	1451.630
612.357	18.578	1521.661	1451.400
613.372	18.600	1520.500	1450.305
614.386	18.346	1520.266	1447.749
615.401	18.446	1518.944	1447.166
616.415	18.376	1518.113	1445.607
617.430	18.485	1517.051	1445.347
618.445	18.429	1516.196	1443.885
619.459	18.194	1515.623	1441.178
620.474	18.280	1514.309	1440.479
621.488	18.296	1512.265	1438.499
622.503	18.233	1510.657	1436.268
623.518	18.332	1509.968	1436.274
624.532	18.335	1509.010	1435.219
625.547	18.272	1508.522	1434.048
626.561	18.363	1507.718	1433.881
627.576	18.439	1506.607	1433.291
628.591	18.415	1505.008	1431.399
629.605	18.411	1503.321	1429.585
630.620	18.350	1502.152	1427.792
631.634	18.247	1501.352	1426.002
632.649	18.307	1500.097	1425.134
633.663	18.384	1498.672	1424.258
634.678	18.403	1497.157	1422.807
635.693	18.641	1495.161	1422.720
636.707	18.499	1494.617	1420.852
637.722	18.599	1494.221	1421.133
638.736	18.588	1492.940	1419.658
639.751	18.535	1492.309	1418.447
640.766	18.459	1490.864	1416.271
641.780	18.625	1489.065	1415.772
642.795	18.540	1488.419	1414.286
643.809	18.617	1487.810	1414.171
644.824	18.606	1486.673	1412.829
645.839	18.610	1485.647	1411.720
646.853	18.689	1484.898	1411.490
647.868	18.536	1482.970	1408.228
648.882	18.658	1481.359	1407.532
649.897	18.567	1480.942	1406.218
650.912	18.617	1479.251	1404.856
651.926	18.596	1477.949	1403.284
652.941	18.571	1476.789	1401.802
653.955	18.506	1475.363	1399.753
654.970	18.305	1473.603	1396.269
655.985	18.178	1473.229	1394.706
656.999	18.394	1471.601	1394.761
658.014	18.585	1470.214	1394.846
659.028	18.580	1469.726	1394.169
660.043	18.462	1469.414	1392.745
661.058	18.554	1467.373	1391.399
662.072	18.498	1466.632	1390.072
663.087	18.542	1465.892	1389.559
664.101	18.453	1464.797	1387.628
665.116	18.569	1463.587	1387.260
666.131	18.616	1462.039	1386.010
667.145	18.535	1460.695	1383.911
668.160	18.684	1460.008	1384.309
669.174	18.745	1458.538	1383.238
670.189	18.627	1457.571	1381.198
671.204	18.566	1456.668	1379.687
672.218	18.603	1456.474	1379.640
673.233	18.535	1454.673	1377.216
674.247	18.709	1453.403	1377.253
675.262	18.693	1453.077	1376.653
676.276	18.686	1451.461	1374.898
677.291	18.559	1450.892	1373.170
678.306	18.673	1449.141	1372.266
679.320	18.618	1447.479	1370.086
680.335	18.600	1447.468	1369.772
681.349	18.660	1447.072	1369.709
682.364	18.735	1445.789	1368.931
683.379	18.543	1444.463	1365.980
684.393	18.652	1442.943	1365.246
685.408	18.544	1442.245	1363.562
686.422	18.469	1441.009	1361.630
687.437	18.689	1440.133	1362.395
688.452	18.653	1439.974	1361.792
689.466	18.582	1437.795	1359.006
690.481	18.559	1436.870	1357.785
691.495	18.495	1435.657	1355.970
692.510	18.419	1434.689	1354.285
693.525	18.368	1432.866	1352.003
694.539	18.382	1431.969	1351.103
695.554	18.465	1431.272	1350.943
696.568	18.573	1430.596	1350.995
697.583	18.574	1430.655	1350.898
698.598	18.571	1429.265	1349.401
699.612	18.664	1427.678	1348.472
700.627	18.929	1425.700	1348.538
701.641	18.774	1424.803	1346.306
702.656	18.806	1424.440	1346.054
703.671	18.774	1423.946	1345.171
704.685	18.705	1423.444	1343.996
705.700	18.863	1421.294	1343.043
706.714	18.751	1419.629	1340.432
707.729	18.840	1418.741	1340.134
708.744	18.608	1417.993	1337.444
709.758	18.630	1416.352	1335.907
710.773	18.568	1415.673	1334.628
711.787	18.643	1413.990	1333.464
712.802	18.557	1412.329	1331.065
713.816	18.668	1412.288	1331.735
714.831	18.721	1411.207	1330.967
715.846	18.683	1410.190	1329.552
716.860	18.689	1409.132	1328.445
717.875	18.760	1408.291	1328.046
718.889	18.840	1406.500	1326.821
719.904	18.802	1405.151	1325.093
720.919	18.788	1403.911	1323.657
721.933	18.739	1403.992	1323.191
722.948	18.870	1403.256	1323.358
723.962	18.879	1401.932	1322.021
724.977	18.732	1401.112	1319.955
725.992	18.831	1399.671	1319.199
727.006	18.930	1397.612	1317.868
728.021	18.758	1397.020	1315.824
729.035	18.831	1396.113	1315.371
730.050	18.765	1394.547	1313.232
731.065	18.902	1393.722	1313.351
732.079	18.822	1392.902	1311.812
733.094	18.836	1391.831	1310.749
734.108	18.812	1390.598	1309.249
735.123	18.827	1388.789	1307.499
736.138	18.820	1388.287	1306.819
737.152	18.755	1387.821	1305.728
738.167	18.906	1386.265	1305.259
739.181	18.959	1384.860	1304.184
740.196	18.815	1384.367	1302.466
741.211	18.692	1383.650	1300.702
742.225	18.891	1382.707	1301.172
743.240	18.965	1381.237	1300.200
744.254	18.826	1379.715	1297.552
745.269	18.725	1379.666	1296.588
746.284	18.717	1378.515	1295.284
747.298	18.695	1376.828	1293.378
748.313	18.641	1375.564	1291.631
749.327	18.369	1374.793	1288.694
750.342	18.346	1373.766	1287.404
751.356	18.442	1372.681	1286.954
752.371	18.339	1371.512	1284.934
753.386	18.551	1370.950	1285.850
754.400	18.840	1369.944	1286.930
755.415	18.920	1369.234	1286.707
756.429	18.977	1367.914	1285.738
757.444	18.794	1366.756	1283.127
758.459	18.993	1365.436	1283.225
759.473	19.008	1364.717	1282.509
760.488	18.974	1363.723	1281.166
761.502	18.937	1362.433	1279.523
762.517	18.903	1361.077	1277.845
763.532	18.962	1359.647	1276.785
764.546	18.940	1358.109	1275.027
765.561	18.653	1358.661	1273.252
766.575	18.491	1357.648	1270.942
767.590	18.662	1355.835	1270.365
768.605	18.667	1354.852	1269.329
769.619	18.745	1353.886	1268.854
770.634	18.839	1352.692	1268.280
771.648	18.928	1352.014	1268.153
772.663	18.987	1351.538	1267.988
773.678	18.933	1350.225	1266.210
774.692	19.177	1349.021	1266.728
775.707	18.925	1348.875	1264.582
776.721	18.906	1348.344	1263.789
777.736	18.863	1347.545	1262.575
778.751	19.074	1345.700	1262.248
779.765	18.934	1344.806	1260.228
780.780	18.978	1343.971	1259.614
781.794	18.791	1343.027	1257.206
782.809	19.013	1342.106	1257.822
783.824	18.710	1341.097	1254.500
784.838	18.699	1339.611	1252.884
785.853	18.456	1338.350	1249.771
786.867	18.336	1338.052	1248.464
787.882	18.520	1337.640	1249.275
788.897	18.604	1336.490	1248.672
789.911	18.777	1335.087	1248.476
790.926	18.912	1333.885	1248.185
791.940	18.790	1332.759	1246.095
792.955	18.715	1331.838	1244.538
793.969	18.874	1331.092	1244.850
794.984	18.854	1330.255	1243.768
795.999	19.089	1328.904	1244.065
797.013	18.932	1327.711	1241.663
798.028	18.844	1326.262	1239.519
799.042	18.893	1325.893	1239.382
800.057	19.020	1324.498	1238.850
801.072	19.184	1322.735	1238.238
802.086	18.773	1321.964	1234.397
803.101	18.928	1320.841	1234.318
804.115	18.929	1320.225	1233.605
805.130	19.072	1319.145	1233.479
806.145	19.047	1317.664	1231.764
807.159	18.951	1316.242	1229.601
808.174	18.842	1315.629	1228.095
809.188	18.909	1313.936	1226.850
810.203	18.941	1312.150	1225.265
811.218	18.837	1310.922	1223.224
812.232	18.877	1309.206	1221.763
813.247	18.730	1308.260	1219.685
814.261	18.864	1308.183	1220.422
815.276	18.844	1307.859	1219.836
816.291	19.072	1306.397	1219.952
817.305	19.042	1305.718	1218.955
818.320	18.970	1304.354	1217.022
819.334	18.978	1303.099	1215.766
820.349	19.173	1301.000	1215.046
821.364	19.143	1300.216	1213.954
822.378	18.896	1299.698	1211.571
823.393	19.013	1297.200	1209.924
824.407	19.106	1296.571	1209.854
825.422	18.847	1296.520	1207.829
826.437	18.956	1294.854	1206.907
827.451	18.749	1293.007	1203.581
828.466	18.580	1291.578	1200.918
829.480	18.588	1289.465	1198.864
830.495	18.610	1288.176	1197.676
831.509	18.733	1287.615	1197.873
832.524	18.853	1287.034	1198.029
833.539	18.814	1286.189	1196.828
834.553	19.082	1284.740	1197.211
835.568	18.986	1283.602	1195.335
836.582	19.081	1282.418	1194.754
837.597	19.113	1281.488	1193.969
838.612	19.223	1280.189	1193.379
839.626	19.063	1279.290	1191.282
840.641	18.848	1278.294	1188.722
841.655	18.877	1277.548	1188.083
842.670	18.743	1275.947	1185.528
843.685	18.648	1274.522	1183.399
844.699	18.854	1273.433	1183.675
845.714	18.935	1273.073	1183.762
846.728	18.931	1271.988	1182.582
847.743	19.023	1270.806	1181.977
848.758	19.256	1268.915	1181.684
849.772	19.173	1267.817	1179.944
850.787	19.126	1267.183	1178.891
851.801	18.970	1266.091	1176.660
852.816	18.849	1265.183	1174.845
853.831	18.908	1263.139	1173.209
854.845	19.086	1260.808	1172.125
855.860	18.790	1260.255	1169.443
856.874	18.814	1259.071	1168.368
857.889	18.831	1257.228	1166.638
858.904	18.701	1256.101	1164.565
859.918	18.661	1253.607	1161.842
860.933	18.536	1253.469	1160.721
861.947	18.542	1253.346	1160.512
862.962	18.638	1251.915	1159.699
863.977	18.799	1250.818	1159.636
864.991	18.834	1250.550	1159.487
866.006	18.982	1250.318	1160.136
867.020	18.965	1248.572	1158.260
868.035	19.009	1247.619	1157.540
869.049	19.080	1246.920	1157.227
870.064	19.119	1245.569	1156.102
871.079	19.056	1244.711	1154.740
872.093	18.990	1244.130	1153.620
873.108	19.165	1243.208	1153.806
874.122	18.989	1241.845	1151.220
875.137	18.940	1241.266	1150.218
876.152	18.911	1240.266	1148.954
877.166	19.028	1238.646	1148.100
878.181	19.013	1237.453	1146.758
879.195	19.041	1237.419	1146.774
880.210	19.011	1236.791	1145.859
881.225	19.132	1235.192	1145.049
882.239	19.024	1234.418	1143.470
883.254	19.125	1233.264	1142.937
884.268	19.153	1232.550	1142.330
885.283	18.989	1231.306	1139.944
886.298	19.041	1230.128	1139.066
887.312	19.015	1229.509	1138.184
888.327	19.082	1228.358	1137.427
889.341	19.115	1226.452	1135.743
890.356	19.104	1225.632	1134.773
891.371	19.016	1225.654	1134.078
892.385	18.930	1224.869	1132.642
893.400	18.799	1223.979	1130.822
894.414	18.935	1222.099	1129.843
895.429	18.902	1220.378	1127.900
896.444	18.728	1218.664	1125.034
897.458	18.584	1217.523	1122.904
898.473	18.814	1217.187	1123.966
899.487	18.948	1216.294	1123.890
900.502	18.855	1215.649	1122.550
901.517	18.986	1214.745	1122.437
902.531	19.184	1213.397	1122.355
903.546	19.298	1212.714	1122.336
904.560	19.090	1212.648	1120.782
905.575	19.187	1211.587	1120.299
906.589	19.262	1210.411	1119.571
907.604	19.247	1209.838	1118.803
