DTS Sentinel unit serial number:	SN409020Multiplexer serial number:	ORYXHardware model number:	OX4-SRSoftware version number:	ORYX F/W v3.00 Oryx Data Collector v3.7.2.0data status	okinstallation	HaddamTimeLapsedifferential loss correction	single-endedforward channel	channel 3reverse channel	N/Adate	2011/06/22time	03:01:17forward acquisition time	30.00reverse acquisition time	0.00gamma	498.7831k internal	0.1751k external	0.1751temperature offset calibration	1.0074default loss term (dB/km)	0.3790temperature slope calibration	1.3530multiplexer offset coefficient	1.0000multiplexer slope coefficient	1.0000fibre end	0.00T internal ref (°C)	22.31T ext. ref 1 (°C)	17.45T ext. ref 2 (°C)	0.03length (m)	temperature (°C)	Stokes	anti-Stokes-747.200	-6.659	-0.126	-0.114
-746.185	800.000	-0.133	0.655
-745.171	-34.474	-0.156	0.113
-744.156	-132.062	-0.286	-0.049
-743.142	30.046	0.268	0.304
-742.127	-71.708	0.434	-0.214
-741.112	120.489	-0.129	-0.213
-740.098	-38.439	-0.330	0.231
-739.083	-194.064	0.566	-0.006
-738.069	19.185	-0.298	0.318
-737.054	325.492	0.227	0.578
-736.039	21.885	-0.270	0.292
-735.025	-134.161	-0.476	0.077
-734.010	-200.000	0.061	-0.616
-732.996	-10.646	-0.189	0.166
-731.981	-15.848	0.166	-0.141
-730.966	204.301	-0.014	-0.029
-729.952	-124.462	-0.238	0.049
-728.937	-94.870	-0.461	0.165
-727.923	-200.000	-0.006	-0.075
-726.908	-16.513	-0.380	-0.319
-725.894	-91.923	0.343	-0.128
-724.879	-61.138	0.159	0.089
-723.864	-21.467	0.167	0.135
-722.850	15.362	0.305	-0.317
-721.835	-200.000	-0.013	0.145
-720.821	16.307	-0.456	0.478
-719.806	-164.988	-0.465	0.027
-718.791	116.864	0.063	0.104
-717.777	800.000	-0.118	0.463
-716.762	-15.056	0.268	0.227
-715.748	-200.000	0.015	0.385
-714.733	122.072	0.191	-0.318
-713.718	-148.291	-0.183	0.020
-712.704	-176.651	-0.275	-0.009
-711.689	-122.382	0.221	-0.047
-710.675	126.999	0.115	-0.194
-709.660	49.888	-0.128	-0.161
-708.645	-200.000	0.000	0.473
-707.631	-43.473	-0.141	-0.094
-706.616	-103.405	-0.308	-0.095
-705.602	-200.000	-0.674	-0.001
-704.587	-118.562	-0.342	-0.080
-703.572	-75.210	-0.551	-0.260
-702.558	800.000	-0.098	-0.369
-701.543	-81.304	0.352	0.153
-700.529	-200.000	0.002	-0.081
-699.514	-83.632	0.153	-0.065
-698.499	0.754	0.132	0.125
-697.485	383.096	0.119	0.327
-696.470	800.000	-0.093	0.413
-695.456	23.093	0.248	-0.270
-694.441	-60.164	-0.201	0.113
-693.426	-112.125	0.405	-0.107
-692.412	275.689	-0.255	-0.602
-691.397	-200.000	0.016	-0.140
-690.383	-74.773	0.111	0.053
-689.368	16.552	-0.275	0.288
-688.354	800.000	-0.020	0.078
-687.339	-200.000	0.208	0.000
-686.324	-23.837	0.191	0.152
-685.310	637.656	-0.135	-0.457
-684.295	703.647	0.112	-0.394
-683.281	-200.000	0.061	0.493
-682.266	-200.000	-0.019	-0.114
-681.251	800.000	-0.090	-0.354
-680.237	-47.480	-0.303	-0.194
-679.222	241.919	0.057	0.126
-678.208	-200.000	-0.006	0.362
-677.193	800.000	0.075	0.294
-676.178	-0.344	-0.407	-0.383
-675.164	-15.280	0.232	0.196
-674.149	-182.991	0.378	0.009
-673.135	-106.860	-0.223	-0.065
-672.120	62.660	-0.285	-0.377
-671.105	-0.532	-0.173	-0.163
-670.091	-71.864	-0.247	0.122
-669.076	96.338	0.189	-0.287
-668.062	125.758	-0.184	0.309
-667.047	-85.196	-0.221	-0.091
-666.032	-167.640	0.454	-0.024
-665.018	-200.000	-0.037	0.384
-664.003	23.116	-0.255	0.277
-662.989	-82.518	-0.303	0.130
-661.974	-130.489	0.276	0.049
-660.959	42.007	-0.201	0.242
-659.945	-200.000	-0.017	0.202
-658.930	-79.175	0.295	0.132
-657.916	-15.890	-0.373	-0.314
-656.901	-188.826	-0.164	0.003
-655.886	-126.235	-0.251	0.049
-654.872	39.627	-0.514	0.610
-653.857	-111.510	0.753	0.201
-652.843	-98.692	0.337	-0.113
-651.828	272.460	0.069	-0.161
-650.814	-200.000	0.066	-0.497
-649.799	-17.212	-0.160	-0.133
-648.784	-166.299	-0.277	-0.015
-647.770	-119.449	-0.285	0.065
-646.755	-40.047	-0.319	-0.220
-645.741	-19.656	-0.065	0.053
-644.726	677.748	0.009	0.031
-643.711	-82.084	0.266	-0.114
-642.697	-34.553	-0.046	0.034
-641.682	-118.377	-0.429	0.100
-640.668	31.925	0.128	-0.146
-639.653	-13.975	0.273	-0.233
-638.638	336.334	-0.061	-0.157
-637.624	-105.016	-0.163	-0.049
-636.609	188.579	0.241	0.477
-635.595	780.002	-0.145	-0.528
-634.580	800.000	0.139	-0.596
-633.565	471.354	-0.053	0.160
-632.551	77.216	-0.224	0.315
-631.536	-195.256	-0.072	0.001
-630.522	-2.448	-0.376	0.348
-629.507	204.959	0.131	-0.269
-628.492	-16.900	-0.034	0.028
-627.478	-200.000	0.042	-0.516
-626.463	-36.611	0.100	0.071
-625.449	96.702	-0.386	-0.585
-624.434	1.700	-0.281	0.267
-623.419	220.387	-0.076	0.162
-622.405	-78.589	-0.266	-0.120
-621.390	-34.056	0.085	0.061
-620.376	-200.000	0.007	0.384
-619.361	495.341	0.036	-0.110
-618.346	182.492	0.166	-0.325
-617.332	126.851	-0.233	0.391
-616.317	-35.488	-0.264	0.189
-615.303	66.597	-0.119	0.161
-614.288	229.959	-0.018	-0.040
-613.273	-96.625	-0.212	0.073
-612.259	118.314	-0.110	-0.179
-611.244	-103.808	-0.675	0.207
-610.230	-147.958	-0.342	0.037
-609.215	-178.967	0.401	0.012
-608.201	-83.158	0.469	-0.198
-607.186	440.070	0.113	0.327
-606.171	17.051	0.214	-0.224
-605.157	427.703	-0.056	0.161
-604.142	-135.399	-0.204	0.032
-603.128	-120.141	0.445	0.100
-602.113	-9.000	-0.083	-0.073
-601.098	-173.534	0.286	-0.011
-600.084	-141.428	0.373	0.049
-599.069	-97.773	-0.332	-0.113
-598.055	107.288	0.291	-0.458
-597.040	26.774	-0.203	0.225
-596.025	-63.682	0.150	-0.081
-595.011	800.000	-0.091	0.348
-593.996	753.263	0.096	0.346
-592.982	800.000	0.049	0.255
-591.967	80.436	0.060	-0.085
-590.952	-200.000	-0.002	-0.133
-589.938	-200.000	0.018	0.284
-588.923	-2.582	0.083	-0.077
-587.909	-122.402	0.407	0.087
-586.894	251.977	0.158	-0.357
-585.879	-200.000	-0.062	0.386
-584.865	800.000	0.060	-0.300
-583.850	-111.653	0.083	-0.022
-582.836	-165.400	0.375	-0.021
-581.821	17.533	-0.203	-0.213
-580.806	-167.638	-0.388	-0.020
-579.792	110.571	-0.080	-0.127
-578.777	-0.631	-0.080	0.075
-577.763	332.494	-0.131	0.335
-576.748	-76.858	-0.110	0.051
-575.733	-24.658	-0.191	0.150
-574.719	-79.689	0.528	-0.234
-573.704	-89.041	0.238	0.093
-572.690	-125.773	-0.525	0.104
-571.675	-115.485	0.243	0.060
-570.661	184.002	0.088	-0.171
-569.646	-129.401	-0.211	-0.038
-568.631	-174.990	0.478	0.017
-567.617	101.145	0.112	-0.172
-566.602	343.467	-0.126	-0.328
-565.588	-41.218	-0.499	-0.339
-564.573	-59.269	-0.310	-0.176
-563.558	67.111	-0.314	-0.423
-562.544	-115.349	0.267	0.066
-561.529	-84.458	0.131	0.054
-560.515	320.379	0.066	0.165
-559.500	-200.000	-0.012	-0.239
-558.485	-200.000	-0.035	0.291
-557.471	-146.783	0.243	-0.027
-556.456	-200.000	-0.035	-0.306
-555.442	800.000	0.021	0.087
-554.427	-200.000	0.002	-0.203
-553.412	-22.399	-0.536	0.427
-552.398	-119.383	0.108	-0.025
-551.383	-86.004	-0.256	-0.104
-550.369	410.821	0.102	0.285
-549.354	89.473	-0.300	0.442
-548.339	800.000	0.042	0.172
-547.325	-45.954	-0.202	0.131
-546.310	-200.000	-0.002	0.459
-545.296	-85.758	0.434	-0.176
-544.281	-24.299	0.138	-0.108
-543.266	-91.438	0.210	0.079
-542.252	-55.470	0.512	0.302
-541.237	-99.587	-0.301	0.099
-540.223	-51.886	0.319	-0.195
-539.208	-200.000	0.003	0.378
-538.193	97.294	-0.277	0.420
-537.179	500.719	0.107	0.326
-536.164	800.000	0.118	0.674
-535.150	-108.886	0.224	-0.063
-534.135	140.054	-0.121	0.210
-533.121	-85.388	-0.664	-0.271
-532.106	-138.189	-0.231	-0.033
-531.091	-129.674	-0.332	0.060
-530.077	-22.385	-0.433	0.345
-529.062	-200.000	-0.058	-0.412
-528.048	-161.015	-0.387	0.026
-527.033	53.875	-0.144	-0.182
-526.018	-116.756	0.216	-0.052
-525.004	-32.774	-0.151	-0.111
-523.989	402.510	0.086	0.240
-522.975	-67.739	-0.343	-0.176
-521.960	-200.000	-0.060	-0.483
-520.945	-59.491	-0.028	-0.016
-519.931	60.800	0.071	0.092
-518.916	40.061	0.568	-0.672
-517.902	800.000	0.159	-0.595
-516.887	16.567	0.112	0.117
-515.872	54.164	0.129	0.164
-514.858	73.399	-0.274	-0.379
-513.843	657.026	0.067	0.228
-512.829	-116.415	-0.647	0.156
-511.814	-45.850	-0.179	0.116
-510.799	-95.843	-0.206	0.072
-509.785	37.583	-0.055	0.065
-508.770	-93.932	-0.239	-0.086
-507.756	800.000	-0.113	0.418
-506.741	800.000	0.044	0.250
-505.726	-119.913	-0.305	-0.068
-504.712	202.503	0.177	0.361
-503.697	-200.000	-0.007	0.063
-502.683	204.937	0.081	0.167
-501.668	-63.132	0.535	-0.289
-500.653	-62.189	-0.209	0.114
-499.639	4.618	0.082	0.079
-498.624	83.712	0.092	-0.133
-497.610	-6.958	-0.389	-0.347
-496.595	-200.000	-0.023	0.279
-495.581	-200.000	0.039	0.440
-494.566	-83.431	-0.284	-0.119
-493.551	-74.509	-0.233	-0.110
-492.537	171.967	-0.068	-0.130
-491.522	-189.949	-0.282	-0.004
-490.508	-139.824	-0.267	0.037
-489.493	493.310	0.175	-0.532
-488.478	-152.973	0.296	0.027
-487.464	-107.200	0.100	-0.029
-486.449	-200.000	-0.034	0.202
-485.435	-200.000	0.002	-0.308
-484.420	567.909	0.176	-0.565
-483.405	800.000	0.102	0.383
-482.391	202.248	0.087	-0.178
-481.376	800.000	-0.072	0.284
-480.362	27.286	-0.274	0.302
-479.347	133.990	-0.258	-0.441
-478.332	675.968	-0.065	0.224
-477.318	-129.117	0.339	-0.062
-476.303	-130.085	0.429	0.076
-475.289	20.416	-0.491	-0.522
-474.274	800.000	-0.019	0.078
-473.259	-150.860	-0.298	-0.029
-472.245	-26.079	0.039	-0.030
-471.230	-200.000	-0.029	-0.183
-470.216	-61.389	-0.187	0.103
-469.201	-56.875	0.510	0.295
-468.186	17.640	0.358	-0.375
-467.172	-200.000	0.048	-0.337
-466.157	-131.419	0.189	0.033
-465.143	-200.000	-0.067	-0.488
-464.128	-200.000	-0.039	-0.345
-463.113	94.455	0.220	0.329
-462.099	-74.849	0.420	-0.197
-461.084	-143.572	0.333	0.041
-460.070	-200.000	0.038	-0.297
-459.055	-57.696	0.093	-0.053
-458.040	-93.412	-0.284	0.103
-457.026	-65.025	0.119	-0.063
-456.011	-48.886	0.321	0.202
-454.997	242.358	-0.129	0.284
-453.982	-162.587	0.433	0.028
-452.968	-19.052	-0.467	0.381
-451.953	-97.241	0.484	0.165
-450.938	59.840	-0.152	0.197
-449.924	117.057	0.302	0.488
-448.909	27.938	-0.338	0.375
-447.895	59.230	0.244	0.316
-446.880	-108.855	-0.216	-0.060
-445.865	699.367	0.013	-0.046
-444.851	-104.113	0.543	0.165
-443.836	-200.000	-0.013	-0.340
-442.822	-132.461	0.166	0.028
-441.807	747.498	-0.089	0.316
-440.792	315.347	-0.051	-0.126
-439.778	41.008	0.210	0.249
-438.763	-156.483	0.592	0.048
-437.749	-152.553	0.299	-0.028
-436.734	-200.000	0.067	0.395
-435.719	-91.232	-0.644	-0.241
-434.705	-92.024	0.225	-0.083
-433.690	-151.532	-0.558	-0.054
-432.676	-200.000	0.071	-0.458
-431.661	800.000	0.052	0.255
-430.646	-47.427	0.359	-0.228
-429.632	800.000	-0.055	0.277
-428.617	172.656	-0.057	-0.108
-427.603	-200.000	0.047	-0.298
-426.588	-43.355	0.303	0.201
-425.573	800.000	-0.098	0.448
-424.559	70.664	0.264	0.358
-423.544	-200.000	-0.019	-0.692
-422.530	-31.094	-0.457	0.338
-421.515	-102.598	-0.096	0.030
-420.500	36.626	-0.241	-0.279
-419.486	-47.691	0.217	0.138
-418.471	800.000	0.047	-0.223
-417.457	-200.000	-0.092	-0.580
-416.442	800.000	-0.166	-0.709
-415.428	-155.604	0.373	0.031
-414.413	-132.065	0.502	0.085
-413.398	90.011	0.230	-0.338
-412.384	-95.178	0.205	-0.072
-411.369	541.021	0.104	0.327
-410.355	800.000	0.131	0.520
-409.340	800.000	0.064	0.283
-408.325	-200.000	-0.076	-0.468
-407.311	551.714	-0.089	0.282
-406.296	-116.651	-0.450	-0.108
-405.282	-152.011	-0.096	-0.009
-404.267	-114.854	0.011	0.003
-403.252	-200.000	0.030	0.527
-402.238	34.124	-0.395	0.451
-401.223	466.360	-0.235	0.694
-400.209	-73.620	-0.237	0.113
-399.194	-4.464	-0.196	0.178
-398.179	-72.786	0.288	0.138
-397.165	-157.195	-0.560	0.044
-396.150	-160.267	0.199	0.014
-395.136	-128.816	0.548	0.100
-394.121	-200.000	0.065	0.473
-393.106	596.303	-0.012	0.040
-392.092	211.986	-0.157	0.325
-391.077	-88.649	0.095	0.037
-390.063	24.294	0.273	0.295
-389.048	-142.893	-0.610	0.077
-388.033	67.666	-0.099	0.133
-387.019	-70.707	-0.220	-0.108
-386.004	245.380	0.172	0.380
-384.990	17.313	0.201	0.209
-383.975	-1.996	0.409	-0.376
-382.960	-131.596	-0.179	0.031
-381.946	-64.481	0.147	0.078
-380.931	27.612	0.198	-0.218
-379.917	-31.705	-0.139	-0.102
-378.902	-15.470	0.227	0.189
-377.888	29.983	0.299	0.334
-376.873	85.093	0.144	-0.208
-375.858	-47.618	0.282	0.179
-374.844	-200.000	-0.249	0.000
-373.829	319.264	-0.172	-0.429
-372.815	436.854	0.142	0.407
-371.800	-12.621	-0.128	0.109
-370.785	6.141	-0.328	-0.318
-369.771	800.000	-0.031	-0.124
-368.756	-200.000	-0.029	-0.382
-367.742	-92.412	-0.226	-0.083
-366.727	-68.657	-0.223	-0.113
-365.712	-75.151	-0.432	-0.201
-364.698	-200.000	-0.031	-0.238
-363.683	-50.429	-0.267	-0.165
-362.669	800.000	0.107	-0.472
-361.654	-55.964	0.020	-0.012
-360.639	114.518	0.058	0.093
-359.625	-46.391	0.260	0.167
-358.610	160.334	-0.120	-0.219
-357.596	-129.729	-0.339	-0.061
-356.581	-200.000	0.028	-0.657
-355.566	-70.160	-0.367	0.182
-354.552	82.430	0.169	-0.241
-353.537	800.000	0.049	-0.231
-352.523	-200.000	-0.021	-0.158
-351.508	-47.030	-0.264	-0.168
-350.493	462.730	-0.201	0.590
-349.479	3.707	0.272	-0.259
-348.464	612.528	0.191	0.630
-347.450	-115.079	-0.781	-0.193
-346.435	-92.278	-0.158	0.058
-345.420	-200.000	0.045	-0.341
-344.406	306.846	0.166	-0.406
-343.391	22.867	-0.268	-0.288
-342.377	-23.703	0.182	0.143
-341.362	800.000	0.036	0.146
-340.348	-200.000	0.081	-0.508
-339.333	-145.057	0.333	-0.039
-338.318	-129.858	-0.648	-0.115
-337.304	-130.015	-0.463	0.082
-336.289	-3.334	-0.362	0.329
-335.275	800.000	0.052	0.224
-334.260	-15.428	0.130	0.108
-333.245	-39.320	0.237	0.162
-332.231	-29.474	0.101	-0.075
-331.216	-108.605	0.154	0.043
-330.202	-130.864	-0.147	0.025
-329.187	712.102	-0.087	-0.302
-328.172	-137.438	-0.308	0.045
-327.158	88.276	0.197	0.286
-326.143	48.690	-0.158	0.194
-325.129	-6.060	-0.300	-0.268
-324.114	-110.629	0.078	-0.021
-323.099	800.000	0.071	-0.262
-322.085	597.510	0.151	0.493
-321.070	85.645	0.153	0.220
-320.056	201.522	0.088	0.177
-319.041	800.000	-0.030	0.135
-318.026	35.833	0.466	0.536
-317.012	-49.465	-0.472	-0.293
-315.997	-118.693	0.418	0.095
-314.983	371.377	-0.040	-0.107
-313.968	476.419	0.161	-0.479
-312.953	69.501	-0.251	-0.339
-311.939	240.030	-0.084	-0.183
-310.924	-200.000	0.068	-0.441
-309.910	132.052	-0.162	0.274
-308.895	-134.417	-0.167	-0.026
-307.880	-200.000	0.024	-0.420
-306.866	-117.902	0.740	0.172
-305.851	-138.013	0.450	0.065
-304.837	29.665	-0.226	-0.251
-303.822	2.542	-0.101	-0.095
-302.807	-200.000	0.020	-0.213
-301.793	9.483	-0.153	0.151
-300.778	-27.075	-0.062	-0.047
-299.764	-121.306	0.462	0.100
-298.749	800.000	0.076	0.325
-297.735	-200.000	0.081	0.509
-296.720	-26.001	0.110	0.084
-295.705	-98.298	0.593	0.197
-294.691	-180.962	0.369	-0.010
-293.676	68.037	0.173	0.231
-292.662	-200.000	0.596	0.002
-291.647	-72.366	0.329	-0.158
-290.632	260.321	0.137	0.309
-289.618	-146.223	-0.178	0.020
-288.603	-127.451	-0.368	0.069
-287.589	-73.242	-0.181	0.086
-286.574	-200.000	0.047	0.279
-285.559	-67.251	0.130	-0.067
-284.545	-56.029	-0.285	-0.165
-283.530	-200.000	-0.044	-0.347
-282.516	-22.563	-0.156	0.123
-281.501	-136.136	-0.282	0.043
-280.486	-19.477	-0.362	-0.292
-279.472	-60.273	-0.162	-0.090
-278.457	-200.000	-0.015	-0.351
-277.443	57.958	-0.345	-0.441
-276.428	-37.671	0.224	-0.155
-275.413	-200.000	-0.019	0.242
-274.399	-97.887	-0.508	-0.170
-273.384	-94.330	-0.844	0.299
-272.370	-2.938	-0.182	0.166
-271.355	-53.514	-0.355	0.211
-270.340	-200.000	0.003	-0.025
-269.326	637.540	-0.069	0.232
-268.311	-136.383	-0.328	-0.049
-267.297	42.852	0.362	0.431
-266.282	-74.980	-0.135	0.063
-265.267	-79.899	-0.175	0.076
-264.253	62.216	0.060	-0.078
-263.238	800.000	-0.042	-0.213
-262.224	-119.555	-0.326	0.073
-261.209	62.921	-0.299	0.390
-260.195	-90.000	-0.308	0.116
-259.180	-97.545	0.377	-0.127
-258.165	-156.505	-0.168	-0.013
-257.151	800.000	0.016	0.078
-256.136	267.813	0.113	0.259
-255.122	8.524	0.353	-0.346
-254.107	-155.785	0.307	0.025
-253.092	-23.567	0.523	-0.409
-252.078	-98.133	0.290	0.097
-251.063	35.465	0.169	-0.194
-250.049	-128.141	0.447	-0.083
-249.034	12.035	0.190	-0.190
-248.019	800.000	-0.180	0.687
-247.005	-40.176	-0.351	-0.238
-245.990	-2.935	-0.233	0.212
-244.976	-144.726	-0.408	0.048
-243.961	-200.000	0.007	-0.052
-242.946	-200.000	0.009	-0.342
-241.932	-97.935	-0.394	-0.132
-240.917	27.229	0.222	-0.243
-239.903	-77.395	0.697	0.314
-238.888	-39.225	0.391	-0.267
-237.873	508.767	-0.147	0.448
-236.859	227.225	0.284	0.603
-235.844	-96.018	-0.462	0.159
-234.830	-19.376	-0.288	-0.232
-233.815	170.920	-0.045	0.084
-232.800	-200.000	-0.025	0.152
-231.786	-82.834	0.122	0.051
-230.771	482.921	0.083	-0.246
-229.757	-68.325	0.639	0.322
-228.742	-200.000	-0.029	0.291
-227.727	-54.931	-0.563	-0.330
-226.713	-107.203	-0.180	-0.051
-225.698	50.068	0.266	0.327
-224.684	-200.000	0.025	0.190
-223.669	800.000	0.080	-0.346
-222.655	213.858	0.150	-0.309
-221.640	-200.000	0.072	-0.455
-220.625	-99.076	-0.190	0.062
-219.611	324.786	0.125	-0.312
-218.596	-108.335	-0.033	0.009
-217.582	-54.655	0.423	-0.248
-216.567	-47.431	0.224	0.142
-215.552	253.529	-0.127	0.283
-214.538	-158.526	0.518	-0.038
-213.523	-48.908	0.376	0.234
-212.509	-94.537	0.245	-0.086
-211.494	800.000	-0.098	-0.450
-210.479	-99.145	0.191	-0.062
-209.465	143.461	0.153	-0.265
-208.450	-15.750	0.297	-0.246
-207.436	66.627	-0.286	-0.378
-206.421	-157.787	-0.438	0.033
-205.406	431.258	-0.058	-0.164
-204.392	1.785	0.190	-0.178
-203.377	373.176	0.065	0.173
-202.363	800.000	-0.028	0.110
-201.348	-46.700	0.018	0.011
-200.333	-146.870	0.472	-0.052
-199.319	-134.043	0.242	-0.039
-198.304	800.000	0.082	0.368
-197.290	-200.000	0.032	0.338
-196.275	31.031	0.139	-0.155
-195.260	229.530	0.092	-0.196
-194.246	-20.021	-0.363	-0.291
-193.231	-130.776	-0.614	0.106
-192.217	800.000	0.053	-0.214
-191.202	98.000	0.226	-0.338
-190.187	269.035	0.194	0.444
-189.173	-200.000	-0.035	-0.240
-188.158	800.000	0.088	-0.456
-187.144	-6.013	0.096	-0.086
-186.129	-118.718	0.227	0.052
-185.114	58.060	0.036	-0.046
-184.100	-82.771	-0.421	0.176
-183.085	218.833	0.056	0.116
-182.071	195.277	0.128	-0.254
-181.056	800.000	0.034	0.180
-180.042	-97.029	0.223	0.075
-179.027	257.063	0.164	0.367
-178.012	56.103	0.177	0.224
-176.998	-200.000	-0.026	-0.269
-175.983	13.157	0.229	-0.230
-174.969	-98.796	0.139	-0.046
-173.954	-46.666	0.337	-0.214
-172.939	-168.274	-0.554	0.027
-171.925	178.780	-0.050	0.094
-170.910	-105.794	0.506	0.148
-169.896	-54.396	0.232	-0.136
-168.881	800.000	0.144	-0.622
-167.866	-144.001	-0.775	0.094
-166.852	-14.840	-0.088	0.073
-165.837	222.545	-0.110	-0.230
-164.823	-200.000	-0.009	0.088
-163.808	-60.521	0.284	0.156
-162.793	-122.993	0.926	0.192
-161.779	-2.269	0.160	-0.145
-160.764	-43.833	0.371	-0.242
-159.750	131.810	-0.099	0.166
-158.735	518.137	0.197	0.602
-157.720	102.416	-0.033	0.050
-156.706	-79.069	-0.203	-0.089
-155.691	-50.650	0.346	0.211
-154.677	-200.000	0.018	0.156
-153.662	49.176	-0.560	-0.683
-152.647	-135.139	-0.297	-0.046
-151.633	-102.026	-0.251	-0.078
-150.618	16.830	0.408	-0.419
-149.604	-28.835	-0.137	0.102
-148.589	-68.931	0.405	0.202
-147.574	126.764	0.185	0.305
-146.560	313.503	-0.064	0.156
-145.545	-122.584	0.306	0.064
-144.531	-200.000	0.035	0.638
-143.516	79.363	-0.245	0.342
-142.502	8.826	-0.193	-0.189
-141.487	63.405	-0.175	-0.228
-140.472	-77.472	0.237	-0.106
-139.458	-47.769	-0.280	0.175
-138.443	-111.311	-0.305	-0.080
-137.429	-200.000	0.041	0.427
-136.414	534.869	-0.065	0.199
-135.399	-174.356	-0.460	0.017
-134.385	-89.199	-0.090	0.034
-133.370	-153.194	-0.343	0.031
-132.356	-70.860	-0.438	0.213
-131.341	-98.092	0.149	0.050
-130.326	286.495	-0.223	-0.525
-129.312	54.063	-0.087	-0.109
-128.297	-168.165	0.385	-0.019
-127.283	-200.000	0.015	-0.210
-126.268	17.623	-0.289	0.298
-125.253	-147.989	0.283	-0.030
-124.239	-172.986	0.335	0.013
-123.224	-200.000	-0.069	0.518
-122.210	23.878	-0.200	0.214
-121.195	-143.764	-0.132	-0.016
-120.180	-99.747	0.240	-0.077
-119.166	236.253	0.097	0.208
-118.151	-200.000	0.043	-0.305
-117.137	-11.006	0.319	-0.273
-116.122	-50.316	0.347	-0.212
-115.107	-25.457	-0.270	0.206
-114.093	-200.000	-0.027	0.195
-113.078	94.895	-0.366	0.540
-112.064	28.961	0.396	0.435
-111.049	-85.064	-0.217	-0.088
-110.034	-5.626	0.274	-0.243
-109.020	336.619	0.069	0.175
-108.005	-31.873	-0.460	0.334
-106.991	-61.616	-0.424	0.230
-105.976	76.598	-0.303	0.416
-104.962	242.525	0.125	0.272
-103.947	218.529	0.086	-0.179
-102.932	99.205	-0.228	0.341
-101.918	-105.354	0.396	-0.116
-100.903	800.000	-0.058	0.276
-99.889	-125.691	-0.324	0.063
-98.874	651.656	-0.191	-0.637
-97.859	-115.300	0.263	-0.064
-96.845	320.253	-0.095	0.234
-95.830	142.954	-0.191	0.331
-94.816	-157.719	-0.937	0.071
-93.801	247.933	-0.090	0.198
-92.786	548.928	-0.147	-0.457
-91.772	241.156	0.055	-0.120
-90.757	-200.000	0.019	0.237
-89.743	800.000	-0.106	0.412
-88.728	-173.694	-0.140	-0.005
-87.713	686.462	-0.014	0.049
-86.699	-91.896	-0.276	-0.101
-85.684	-145.775	0.283	-0.032
-84.670	800.000	0.042	-0.190
-83.655	-33.238	-0.141	-0.101
-82.640	-13.119	0.263	0.221
-81.626	-45.127	-0.339	0.218
-80.611	-152.067	0.300	-0.028
-79.597	-60.036	-0.470	0.259
-78.582	-33.583	-0.178	-0.127
-77.567	136.145	-0.115	-0.194
-76.553	88.618	0.101	0.145
-75.538	54.066	0.195	-0.243
-74.524	-128.953	0.331	0.060
-73.509	112.333	0.168	0.264
-72.494	-54.808	-0.623	0.363
-71.480	800.000	0.083	0.471
-70.465	65.661	-0.325	0.427
-69.451	-117.424	0.559	0.130
-68.436	-200.000	-0.041	0.533
-67.422	-200.000	-0.307	0.000
-66.407	-91.302	-0.215	0.079
-65.392	332.253	-0.092	-0.230
-64.378	-189.288	-0.218	0.003
-63.363	39.104	0.301	0.349
-62.349	-200.000	0.052	0.386
-61.334	11.588	-2.244	-2.225
-60.319	58.825	1.647	2.096
-59.305	221.430	-3.677	-7.667
-58.290	122.991	3.046	4.943
-57.276	350.060	4.045	10.385
-56.261	-200.000	25.014	322.568
-55.246	350.388	1309.948	3364.345
-54.232	52.352	2851.070	3520.047
-53.217	50.959	2662.001	3264.904
-52.203	31.135	2391.639	2653.369
-51.188	27.543	2057.408	2238.210
-50.173	24.235	1944.239	2076.353
-49.159	23.100	1932.758	2050.786
-48.144	22.569	1928.145	2039.638
-47.130	22.579	1925.102	2036.451
-46.115	22.581	1923.401	2034.595
-45.100	22.556	1921.763	2032.486
-44.086	22.458	1921.543	2031.045
-43.071	22.557	1918.613	2029.009
-42.057	22.453	1917.168	2026.194
-41.042	22.561	1915.256	2025.342
-40.027	22.497	1914.790	2024.032
-39.013	22.486	1913.770	2022.746
-37.998	22.478	1912.674	2021.419
-36.984	22.540	1910.904	2020.174
-35.969	22.521	1909.997	2018.920
-34.954	22.454	1908.189	2016.162
-33.940	22.408	1907.551	2014.879
-32.925	22.371	1905.671	2012.389
-31.911	22.457	1904.041	2011.567
-30.896	22.486	1902.488	2010.180
-29.881	22.467	1901.374	2008.706
-28.867	22.383	1900.731	2006.983
-27.852	22.376	1899.309	2005.325
-26.838	22.286	1897.327	2002.126
-25.823	22.320	1896.071	2001.102
-24.809	22.364	1894.570	1999.945
-23.794	22.315	1893.594	1998.281
-22.779	22.291	1892.601	1996.881
-21.765	22.335	1890.646	1995.236
-20.750	22.249	1890.265	1993.778
-19.736	22.348	1888.732	1993.204
-18.721	22.286	1888.038	1991.694
-17.706	22.355	1885.983	1990.222
-16.692	22.130	1886.338	1987.961
-15.677	22.224	1884.791	1987.327
-14.663	22.113	1883.471	1984.593
-13.648	22.360	1881.016	1984.730
-12.633	22.225	1880.542	1982.618
-11.619	22.221	1879.850	1981.764
-10.604	22.154	1877.886	1978.857
-9.590	22.138	1876.962	1977.627
-8.575	22.201	1875.419	1976.629
-7.560	22.114	1875.210	1975.354
-6.546	22.252	1872.351	1973.820
-5.531	22.115	1872.329	1972.173
-4.517	22.235	1871.257	1972.311
-3.502	22.160	1870.473	1970.567
-2.487	22.291	1869.056	1970.471
-1.473	22.417	1864.974	1967.502
-0.458	22.081	1847.359	1945.103
0.556	18.546	1994.208	2045.147
1.571	17.214	2196.741	2234.982
2.586	18.040	2235.009	2284.751
3.600	18.014	2237.871	2287.041
4.615	17.947	2238.772	2286.788
5.629	17.988	2236.389	2284.634
6.644	17.987	2233.801	2281.708
7.659	17.951	2231.703	2278.804
8.673	17.982	2229.637	2276.833
9.688	17.652	2238.634	2281.316
10.702	16.771	2319.125	2350.769
11.717	15.240	2382.975	2393.239
12.731	7.089	2363.997	2257.435
13.746	1.080	2347.941	2156.092
14.761	0.191	2345.147	2140.566
15.775	0.146	2342.804	2137.521
16.790	0.054	2342.112	2135.317
17.804	0.127	2339.500	2133.732
18.819	0.122	2338.547	2132.525
19.834	0.119	2336.776	2130.619
20.848	0.035	2336.385	2128.809
21.863	0.047	2333.772	2126.348
22.877	0.091	2331.210	2124.375
23.892	0.059	2329.848	2122.427
24.907	0.014	2327.673	2119.557
25.921	0.017	2325.356	2117.237
26.936	0.021	2324.043	2115.841
27.950	0.026	2320.728	2112.648
28.965	0.088	2318.960	2111.665
29.980	0.003	2317.725	2109.088
30.994	0.079	2315.630	2107.987
32.009	3.802	2326.032	2169.811
33.023	12.553	2352.596	2318.772
34.038	16.399	2358.342	2378.681
35.053	16.505	2354.868	2376.389
36.067	16.553	2351.476	2373.362
37.082	16.450	2351.298	2371.442
38.096	16.623	2348.962	2371.239
39.111	16.686	2346.536	2369.398
40.126	16.859	2344.613	2369.595
41.140	16.873	2344.084	2368.975
42.155	16.843	2341.882	2366.057
43.169	16.831	2339.908	2363.602
44.184	16.760	2336.659	2359.051
45.199	16.668	2334.657	2355.460
46.213	16.815	2333.693	2356.257
47.228	17.029	2331.780	2357.036
48.242	17.064	2330.404	2355.843
49.257	16.988	2328.898	2352.977
50.271	17.082	2326.272	2351.349
51.286	16.841	2323.988	2345.414
52.301	16.731	2321.733	2341.328
53.315	17.352	2324.466	2352.437
54.330	19.671	2330.733	2390.792
55.344	21.278	2330.745	2412.837
56.359	21.432	2327.655	2411.492
57.374	21.627	2327.503	2413.750
58.388	21.619	2325.385	2411.156
59.403	21.538	2320.674	2404.863
60.417	21.216	2317.546	2396.883
61.432	21.359	2315.740	2396.702
62.447	21.607	2314.827	2398.884
63.461	21.716	2313.428	2398.646
64.476	21.800	2310.856	2396.850
65.490	21.631	2308.834	2392.143
66.505	20.714	2305.528	2375.853
67.520	18.935	2298.169	2343.643
68.534	17.212	2290.869	2312.360
69.549	16.820	2286.269	2302.095
70.563	16.723	2284.768	2298.977
71.578	16.753	2283.523	2297.855
72.593	16.923	2280.864	2297.229
73.607	16.816	2279.274	2293.898
74.622	16.867	2277.635	2292.663
75.636	16.765	2275.286	2288.636
76.651	16.789	2272.660	2286.049
77.666	16.615	2270.945	2281.694
78.680	16.670	2268.142	2279.342
79.695	16.427	2266.026	2273.668
80.709	16.440	2264.926	2272.459
81.724	16.599	2262.234	2271.634
82.739	16.510	2260.221	2268.136
83.753	16.336	2258.513	2263.810
84.768	16.364	2256.523	2261.917
85.782	16.371	2254.615	2259.836
86.797	16.294	2252.959	2256.864
87.812	16.370	2251.819	2256.472
88.826	16.500	2248.633	2254.752
89.841	16.481	2246.812	2252.400
90.855	16.374	2244.549	2248.435
91.870	16.521	2243.299	2248.886
92.884	16.573	2241.826	2247.824
93.899	16.454	2241.195	2245.338
94.914	17.085	2242.638	2254.941
95.928	19.301	2248.880	2290.589
96.943	20.000	2247.525	2298.259
97.957	17.783	2237.499	2258.263
98.972	16.438	2232.322	2234.892
99.987	16.450	2228.629	2231.093
101.001	16.321	2226.150	2226.641
102.016	16.386	2224.449	2225.530
103.030	16.322	2222.144	2222.104
104.045	16.484	2218.902	2220.739
105.060	16.431	2217.119	2217.987
106.074	16.384	2216.517	2216.498
107.089	16.455	2214.425	2215.085
108.103	16.435	2213.441	2213.565
109.118	16.604	2211.530	2213.612
110.133	16.603	2210.483	2212.284
111.147	16.540	2207.884	2208.596
112.162	16.619	2206.692	2208.172
113.176	16.668	2204.877	2206.731
114.191	16.712	2203.373	2205.546
115.206	16.684	2201.615	2203.158
116.220	16.677	2199.871	2201.055
117.235	16.648	2197.625	2198.164
118.249	16.768	2195.893	2197.733
119.264	16.613	2194.653	2194.205
120.279	16.739	2193.219	2194.147
121.293	16.682	2191.178	2191.112
122.308	16.610	2189.928	2188.653
123.322	16.557	2189.642	2187.420
124.337	17.125	2188.645	2193.536
125.352	19.339	2196.894	2230.369
126.366	19.814	2194.590	2233.931
127.381	17.549	2184.317	2193.910
128.395	16.648	2179.207	2176.876
129.410	16.681	2178.135	2175.964
130.424	16.618	2175.507	2172.261
131.439	16.609	2173.796	2170.183
132.454	16.753	2172.238	2170.225
133.468	16.773	2170.482	2168.471
134.483	16.817	2169.240	2167.537
135.497	16.801	2167.768	2165.590
136.512	16.915	2165.136	2164.174
137.527	16.775	2163.169	2160.148
138.541	16.538	2162.087	2155.771
139.556	16.468	2161.165	2153.696
140.570	16.408	2159.475	2150.989
141.585	16.417	2157.106	2148.488
142.600	16.452	2155.192	2146.768
143.614	16.372	2153.735	2144.042
144.629	16.342	2152.364	2142.035
145.643	16.310	2150.884	2139.902
146.658	16.343	2148.213	2137.407
147.673	16.187	2146.745	2133.704
148.687	16.269	2145.719	2133.480
149.702	16.472	2145.263	2135.346
150.716	16.514	2142.795	2133.168
151.731	16.467	2142.173	2131.697
152.746	16.509	2141.144	2130.949
153.760	17.235	2143.489	2142.228
154.775	19.414	2150.175	2176.317
155.789	20.109	2147.797	2182.449
156.804	17.877	2138.027	2144.108
157.819	16.597	2131.168	2120.854
158.833	16.420	2128.784	2116.003
159.848	16.454	2126.840	2114.250
160.862	16.585	2125.075	2113.878
161.877	16.569	2124.152	2112.507
162.892	16.585	2123.937	2112.239
163.906	16.739	2122.113	2112.106
164.921	16.678	2120.149	2109.133
165.935	16.603	2117.968	2105.772
166.950	16.814	2117.181	2107.376
167.964	16.654	2114.970	2102.928
168.979	16.529	2113.460	2099.616
169.994	16.562	2111.563	2097.896
171.008	16.528	2109.607	2095.270
172.023	16.393	2108.430	2092.177
173.037	16.633	2106.986	2093.479
174.052	16.649	2105.809	2092.260
175.067	16.594	2104.133	2089.654
176.081	16.439	2102.789	2086.147
177.096	16.588	2101.609	2086.579
178.110	16.625	2099.652	2084.844
179.125	16.857	2098.363	2086.182
180.140	16.638	2098.801	2083.653
181.154	16.776	2096.942	2083.263
182.169	16.695	2096.079	2081.159
183.183	17.350	2097.346	2090.258
184.198	19.906	2103.475	2127.743
185.213	20.320	2099.795	2128.880
186.227	17.884	2091.800	2090.567
187.242	16.852	2087.944	2073.768
188.256	16.820	2086.023	2071.221
189.271	16.507	2085.087	2066.204
190.286	16.550	2083.223	2064.634
191.300	16.493	2080.635	2061.122
192.315	16.705	2077.935	2060.801
193.329	16.714	2077.513	2060.239
194.344	16.905	2075.716	2060.551
195.359	16.908	2075.546	2060.166
196.373	16.731	2073.136	2055.365
197.388	16.595	2070.579	2050.933
198.402	16.540	2067.574	2047.046
199.417	16.498	2065.436	2044.167
200.432	16.647	2063.773	2044.094
201.446	16.618	2063.594	2043.309
202.461	16.498	2061.551	2039.593
203.475	16.494	2059.719	2037.482
204.490	16.569	2057.487	2035.940
205.504	16.520	2056.036	2033.668
206.519	16.493	2054.327	2031.409
207.534	16.528	2052.564	2029.852
208.548	16.491	2050.853	2027.462
209.563	16.488	2050.029	2026.374
210.577	16.640	2047.965	2025.914
211.592	16.663	2048.176	2026.157
212.607	17.848	2052.473	2044.449
213.621	20.556	2058.946	2083.316
214.636	20.107	2052.900	2071.551
215.650	17.408	2044.501	2030.495
216.665	16.815	2040.232	2018.918
217.680	16.603	2039.526	2015.440
218.694	16.475	2038.100	2012.251
219.709	16.618	2035.369	2011.031
220.723	16.542	2034.878	2009.394
221.738	16.759	2032.951	2009.835
222.753	16.775	2030.603	2007.471
223.767	16.756	2029.263	2005.673
224.782	16.647	2028.123	2003.009
225.796	16.607	2026.386	2000.582
226.811	16.563	2025.327	1998.770
227.826	16.736	2022.762	1998.050
228.840	16.680	2021.575	1995.978
229.855	16.551	2020.610	1993.255
230.869	16.748	2017.439	1992.227
231.884	16.681	2016.751	1990.511
232.899	16.543	2015.762	1987.671
233.913	16.688	2014.305	1987.704
234.928	16.612	2013.481	1985.757
235.942	16.536	2011.934	1983.096
236.957	16.604	2010.458	1982.210
237.972	16.600	2008.492	1979.980
238.986	16.492	2007.859	1977.850
240.001	16.419	2006.772	1975.686
241.015	16.606	2005.385	1976.280
242.030	17.396	2007.017	1986.933
243.045	19.468	2011.952	2015.940
244.059	19.792	2008.936	2016.465
245.074	17.466	2001.218	1981.291
246.088	16.852	1996.899	1969.618
247.103	16.945	1995.247	1968.833
248.117	16.914	1994.254	1967.257
249.132	16.730	1992.166	1962.818
250.147	16.716	1990.071	1960.361
251.161	16.666	1988.809	1958.298
252.176	16.881	1988.048	1959.817
253.190	17.083	1985.855	1959.758
254.205	17.019	1983.415	1956.370
255.220	16.963	1983.150	1955.235
256.234	16.906	1981.527	1952.734
257.249	16.762	1980.533	1949.863
258.263	16.690	1979.225	1947.506
259.278	16.791	1977.891	1947.131
260.293	16.624	1975.317	1942.430
261.307	16.562	1974.290	1940.476
262.322	16.485	1972.463	1937.561
263.336	16.393	1971.148	1934.978
264.351	16.482	1968.379	1933.050
265.366	16.514	1967.441	1932.260
266.380	16.461	1966.410	1930.413
267.395	16.365	1965.836	1928.511
268.409	16.552	1963.445	1928.084
269.424	16.535	1961.278	1925.528
270.439	16.679	1960.946	1926.620
271.453	17.482	1963.356	1937.945
272.468	19.773	1968.300	1968.849
273.482	20.043	1963.955	1967.350
274.497	17.537	1956.276	1930.895
275.512	16.576	1951.492	1915.011
276.526	16.570	1949.058	1912.327
277.541	16.595	1947.320	1910.677
278.555	16.436	1946.621	1907.960
279.570	16.373	1944.140	1904.582
280.585	16.493	1942.839	1904.437
281.599	16.530	1941.166	1902.991
282.614	16.728	1940.542	1904.392
283.628	16.850	1940.622	1905.618
284.643	16.918	1940.193	1905.742
285.657	17.051	1939.247	1906.078
286.672	17.155	1937.086	1904.903
287.687	17.072	1935.626	1902.299
288.701	17.011	1934.466	1900.247
289.716	16.972	1932.693	1897.835
290.730	16.918	1931.394	1895.730
291.745	16.983	1929.948	1894.812
292.760	16.955	1928.946	1893.293
293.774	16.741	1928.345	1890.070
294.789	16.822	1925.866	1888.328
295.803	16.694	1924.204	1885.032
296.818	16.671	1922.644	1883.027
297.833	16.794	1921.239	1882.803
298.847	16.844	1919.950	1881.867
299.862	16.752	1918.894	1879.577
300.876	17.351	1919.912	1887.032
301.891	19.923	1924.843	1920.376
302.906	20.284	1922.885	1922.215
303.920	17.625	1915.424	1884.991
304.935	16.855	1911.617	1872.479
305.949	16.871	1909.205	1870.072
306.964	16.865	1907.361	1867.967
307.979	16.932	1906.406	1867.555
308.993	17.064	1905.058	1867.469
310.008	17.279	1903.639	1868.233
311.022	17.149	1902.951	1865.895
312.037	17.084	1900.566	1862.621
313.052	17.119	1898.546	1860.801
314.066	17.183	1897.758	1860.507
315.081	17.055	1896.424	1857.573
316.095	17.118	1895.041	1856.681
317.110	17.072	1892.730	1853.698
318.125	16.823	1890.728	1848.780
319.139	16.765	1890.285	1847.488
320.154	16.973	1888.242	1847.554
321.168	16.847	1887.028	1844.758
322.183	16.762	1886.023	1842.628
323.197	16.525	1884.383	1838.216
324.212	16.536	1882.435	1836.215
325.227	16.412	1881.123	1833.366
326.241	16.528	1879.109	1832.448
327.256	16.491	1877.495	1830.251
328.270	16.450	1877.049	1829.153
329.285	16.445	1876.637	1828.481
330.300	17.386	1880.530	1842.300
331.314	20.070	1885.725	1876.425
332.329	20.056	1879.655	1870.003
333.343	17.533	1871.807	1834.690
334.358	16.545	1869.754	1821.764
335.373	16.478	1866.909	1818.051
336.387	16.326	1865.065	1814.397
337.402	16.410	1863.240	1813.303
338.416	16.504	1861.975	1812.874
339.431	16.592	1861.195	1812.848
340.446	16.563	1860.007	1811.157
341.460	16.695	1858.601	1810.993
342.475	16.896	1856.810	1811.185
343.489	16.884	1856.044	1810.091
344.504	16.930	1854.934	1809.289
345.519	17.009	1853.909	1808.919
346.533	17.003	1852.534	1807.298
347.548	17.118	1851.689	1807.491
348.562	17.000	1850.433	1804.786
349.577	17.161	1849.155	1805.039
350.592	17.129	1847.785	1803.142
351.606	17.318	1846.507	1803.701
352.621	17.224	1844.695	1800.714
353.635	17.054	1843.253	1797.274
354.650	16.963	1841.782	1794.656
355.665	16.948	1840.018	1792.567
356.679	16.831	1838.702	1789.832
357.694	16.853	1837.107	1788.294
358.708	16.884	1835.659	1787.002
359.723	17.981	1839.220	1801.890
360.738	20.337	1842.853	1830.238
361.752	19.656	1838.049	1818.044
362.767	17.356	1831.857	1787.436
363.781	16.796	1828.986	1778.508
364.796	16.680	1827.508	1775.633
365.810	16.702	1825.823	1774.021
366.825	16.786	1824.676	1773.571
367.840	16.865	1824.165	1773.698
368.854	16.939	1823.489	1773.608
369.869	16.870	1820.736	1769.994
370.883	16.671	1819.598	1766.583
371.898	16.715	1818.290	1765.564
372.913	16.720	1817.654	1764.794
373.927	16.866	1815.800	1764.309
374.942	16.816	1815.607	1763.385
375.956	16.953	1813.671	1762.722
376.971	16.844	1811.113	1758.889
377.986	16.790	1809.919	1756.954
379.000	16.695	1808.356	1754.240
380.015	16.861	1806.807	1754.250
381.029	16.605	1805.177	1749.804
382.044	16.404	1802.983	1745.383
383.059	16.388	1801.346	1743.416
384.073	16.443	1800.479	1742.941
385.088	16.621	1799.109	1743.251
386.102	16.573	1797.593	1741.075
387.117	16.525	1795.255	1738.107
388.132	16.491	1795.138	1737.430
389.146	17.497	1798.906	1751.281
390.161	20.072	1803.768	1782.468
391.175	20.002	1796.521	1774.366
392.190	17.260	1788.943	1738.523
393.205	16.681	1785.881	1729.391
394.219	16.660	1784.382	1727.520
395.234	16.718	1783.519	1727.071
396.248	16.573	1781.983	1723.893
397.263	16.410	1780.001	1720.102
398.278	16.585	1777.970	1719.719
399.292	16.605	1776.761	1718.551
400.307	16.575	1776.736	1718.008
401.321	16.482	1776.331	1716.465
402.336	16.689	1773.818	1715.941
403.350	16.736	1772.832	1715.255
404.365	16.926	1771.746	1715.935
405.380	17.230	1771.071	1718.169
406.394	17.224	1770.779	1717.617
407.409	17.157	1768.423	1714.446
408.423	17.107	1767.534	1712.876
409.438	17.060	1765.666	1710.376
410.453	17.033	1765.108	1709.361
411.467	17.210	1763.251	1709.152
412.482	17.042	1761.773	1705.813
413.496	16.986	1760.003	1703.329
414.511	16.946	1758.197	1700.973
415.526	16.864	1756.144	1697.959
416.540	16.818	1754.602	1695.809
417.555	16.801	1754.334	1695.168
418.569	16.874	1755.234	1696.576
419.584	16.919	1754.676	1696.277
420.599	17.069	1753.560	1696.509
421.613	16.808	1752.334	1692.499
422.628	16.740	1750.710	1690.041
423.642	16.695	1748.415	1687.171
424.657	16.833	1747.681	1687.651
425.672	16.990	1745.557	1686.962
426.686	16.847	1744.664	1684.470
427.701	16.776	1743.336	1682.282
428.715	16.854	1741.783	1681.353
429.730	17.158	1739.780	1682.249
430.745	17.019	1739.454	1680.346
431.759	16.946	1739.500	1679.469
432.774	17.189	1739.440	1681.620
433.788	17.426	1738.896	1683.248
434.803	17.836	1738.053	1686.311
435.818	17.552	1738.204	1683.435
436.832	17.464	1736.859	1681.052
437.847	16.373	1729.788	1663.215
438.861	9.053	1709.546	1571.735
439.876	1.672	1695.802	1486.631
440.890	0.394	1692.259	1470.823
441.905	0.227	1691.225	1468.117
442.920	0.288	1689.638	1467.161
443.934	0.200	1688.412	1465.058
444.949	0.138	1687.153	1463.185
445.963	0.177	1686.939	1463.208
446.978	0.126	1686.550	1462.199
447.993	0.128	1684.745	1460.478
449.007	0.212	1682.444	1459.122
450.022	0.183	1680.251	1456.768
451.036	0.150	1679.407	1455.539
452.051	1.055	1683.281	1467.536
453.066	8.425	1698.720	1553.030
454.080	15.639	1710.628	1634.469
455.095	17.222	1712.860	1651.895
456.109	17.613	1711.861	1654.544
457.124	17.682	1710.904	1654.095
458.139	17.667	1710.627	1653.482
459.153	17.668	1709.931	1652.628
460.168	17.917	1707.891	1652.874
461.182	17.754	1706.333	1649.589
462.197	17.609	1704.529	1646.242
463.212	17.518	1702.826	1643.509
464.226	17.662	1701.390	1643.330
465.241	17.553	1701.285	1641.974
466.255	17.598	1700.426	1641.385
467.270	17.762	1698.443	1640.854
468.285	17.542	1696.971	1637.111
469.299	17.622	1695.711	1636.471
470.314	17.709	1693.477	1634.962
471.328	17.586	1693.036	1633.153
472.343	17.694	1691.809	1632.811
473.358	17.787	1690.757	1632.499
474.372	17.606	1689.813	1629.650
475.387	17.650	1687.882	1628.018
476.401	17.630	1686.246	1626.051
477.416	17.676	1684.718	1624.826
478.430	17.641	1684.116	1623.718
479.445	17.634	1682.802	1622.184
480.460	17.503	1681.689	1619.665
481.474	17.622	1679.985	1618.971
482.489	17.724	1678.936	1618.735
483.503	17.646	1677.879	1616.779
484.518	17.742	1676.891	1616.546
485.533	17.745	1675.107	1614.670
486.547	17.581	1674.695	1612.512
487.562	17.874	1673.507	1613.959
488.576	17.880	1671.373	1611.767
489.591	17.813	1671.288	1610.860
490.606	17.803	1668.991	1608.357
491.620	17.835	1667.045	1606.587
492.635	17.960	1665.671	1606.253
493.649	17.907	1664.902	1604.820
494.664	17.714	1663.558	1601.508
495.679	17.419	1662.392	1597.417
496.693	17.475	1660.885	1596.306
497.708	17.729	1659.964	1597.617
498.722	17.755	1659.245	1596.985
499.737	17.858	1657.129	1595.725
500.752	17.640	1655.622	1592.028
501.766	17.617	1653.858	1589.926
502.781	17.710	1652.744	1589.537
503.795	17.771	1651.360	1588.587
504.810	17.684	1650.706	1586.959
505.825	17.719	1650.834	1587.215
506.839	17.763	1648.569	1585.259
507.854	17.965	1646.766	1585.220
508.868	17.884	1645.857	1583.400
509.883	17.878	1644.560	1581.913
510.898	17.935	1643.917	1581.634
511.912	17.771	1642.694	1578.741
512.927	17.678	1640.271	1575.359
513.941	17.686	1639.070	1574.093
514.956	17.879	1636.908	1573.612
515.971	17.742	1636.119	1571.400
516.985	17.700	1635.585	1570.307
518.000	17.825	1634.771	1570.493
519.014	17.909	1633.605	1569.964
520.029	17.840	1632.669	1568.240
521.043	17.835	1630.870	1566.276
522.058	17.943	1629.478	1565.746
523.073	17.947	1628.947	1565.089
524.087	18.087	1628.257	1565.530
525.102	17.905	1626.983	1562.438
526.116	17.771	1625.630	1559.722
527.131	17.704	1624.457	1557.797
528.146	17.863	1623.291	1557.945
529.160	18.074	1621.831	1558.291
530.175	18.011	1621.122	1556.846
531.189	18.054	1620.437	1556.398
532.204	17.994	1618.429	1553.739
533.219	17.840	1617.322	1551.080
534.233	17.886	1615.942	1549.994
535.248	18.012	1615.831	1550.849
536.262	18.089	1614.531	1550.119
537.277	18.041	1613.287	1548.304
538.292	17.948	1611.525	1545.576
539.306	17.993	1609.422	1543.785
540.321	18.019	1607.761	1542.246
541.335	17.835	1607.112	1539.765
542.350	17.981	1605.471	1539.331
543.365	18.045	1603.747	1538.079
544.379	18.116	1602.352	1537.192
545.394	18.218	1601.009	1536.639
546.408	18.019	1600.164	1533.853
547.423	17.812	1598.655	1530.360
548.438	17.783	1598.334	1529.601
549.452	17.960	1597.602	1530.316
550.467	17.974	1596.042	1528.763
551.481	17.985	1594.280	1526.990
552.496	17.997	1593.997	1526.649
553.511	18.074	1593.199	1526.394
554.525	18.092	1591.972	1525.191
555.540	18.118	1591.723	1525.009
556.554	18.176	1590.551	1524.221
557.569	18.088	1588.847	1521.613
558.583	18.015	1587.180	1519.184
559.598	18.136	1585.605	1518.572
560.613	18.130	1584.381	1517.173
561.627	18.120	1583.360	1515.921
562.642	18.178	1581.945	1514.901
563.656	18.220	1581.344	1514.515
564.671	18.272	1579.768	1513.290
565.686	18.197	1578.128	1510.875
566.700	18.047	1577.358	1508.623
567.715	17.930	1576.324	1506.416
568.729	17.903	1574.069	1503.844
569.744	18.074	1571.912	1503.110
570.759	17.918	1571.248	1500.914
571.773	18.025	1571.045	1501.493
572.788	18.016	1569.913	1500.150
573.802	18.000	1568.604	1498.577
574.817	18.086	1566.778	1497.414
575.832	18.161	1566.257	1497.395
576.846	18.217	1564.735	1496.253
577.861	18.170	1562.917	1493.925
578.875	18.333	1562.393	1494.671
579.890	18.291	1562.039	1493.789
580.905	18.276	1560.974	1492.461
581.919	18.235	1561.254	1492.184
582.934	18.227	1560.407	1491.131
583.948	18.388	1558.037	1490.092
584.963	18.334	1555.941	1487.439
585.978	18.238	1554.639	1485.179
586.992	18.333	1553.639	1484.872
588.007	18.410	1553.283	1485.025
589.021	18.282	1551.971	1482.478
590.036	18.021	1551.195	1479.294
591.051	18.199	1549.189	1478.748
592.065	18.245	1547.797	1477.639
593.080	18.351	1546.253	1476.912
594.094	18.250	1545.346	1474.991
595.109	18.171	1543.054	1471.946
596.123	17.925	1542.090	1468.719
597.138	18.209	1541.325	1470.269
598.153	18.223	1539.947	1468.905
599.167	18.338	1538.018	1467.876
600.182	18.262	1537.590	1466.635
601.196	18.313	1536.986	1466.321
602.211	18.251	1536.310	1464.972
603.226	18.309	1534.488	1463.553
604.240	18.405	1532.960	1462.750
605.255	18.498	1531.602	1462.076
606.269	18.490	1531.384	1461.626
607.284	18.339	1530.412	1459.226
608.299	18.469	1528.487	1458.327
609.313	18.432	1527.251	1456.660
610.328	18.535	1525.426	1455.626
611.342	18.432	1524.637	1453.820
612.357	18.315	1524.815	1452.814
613.372	18.509	1523.513	1453.055
614.386	18.320	1521.965	1449.798
615.401	18.486	1521.519	1450.610
616.415	18.487	1520.769	1449.730
617.430	18.544	1519.925	1449.235
618.445	18.670	1518.415	1448.686
619.459	18.527	1517.097	1446.045
620.474	18.224	1516.272	1442.517
621.488	18.115	1514.873	1440.096
622.503	17.980	1513.371	1437.351
623.518	18.242	1512.375	1438.445
624.532	18.351	1511.442	1438.307
625.547	18.449	1510.759	1438.310
626.561	18.690	1509.663	1439.126
627.576	18.621	1509.070	1437.806
628.591	18.317	1507.221	1433.319
629.605	18.144	1505.724	1430.270
630.620	18.181	1504.338	1429.088
631.634	18.120	1503.499	1427.614
632.649	18.083	1502.095	1425.796
633.663	18.246	1501.286	1426.227
634.678	18.387	1500.113	1426.123
635.693	18.632	1498.789	1426.742
636.707	18.636	1497.438	1425.313
637.722	18.686	1496.358	1424.535
638.736	18.722	1495.870	1424.201
639.751	18.593	1494.837	1421.970
640.766	18.596	1493.044	1420.116
641.780	18.663	1491.717	1419.247
642.795	18.602	1490.872	1417.766
643.809	18.524	1491.068	1417.136
644.824	18.726	1489.927	1417.553
645.839	18.583	1488.514	1414.851
646.853	18.473	1487.165	1412.496
647.868	18.699	1485.308	1412.427
648.882	18.447	1484.543	1409.449
649.897	18.643	1483.086	1409.514
650.912	18.515	1482.318	1407.560
651.926	18.548	1480.275	1405.724
652.941	18.499	1479.172	1404.105
653.955	18.438	1476.724	1401.113
654.970	18.303	1475.541	1398.710
655.985	18.247	1474.246	1396.860
656.999	18.255	1473.696	1396.236
658.014	18.524	1472.228	1396.882
659.028	18.508	1471.604	1395.988
660.043	18.667	1471.128	1396.675
661.058	18.711	1469.309	1395.142
662.072	18.613	1469.083	1393.957
663.087	18.471	1468.933	1392.486
664.101	18.550	1466.874	1391.014
665.116	18.663	1465.880	1390.822
666.131	18.606	1464.931	1389.293
667.145	18.580	1463.961	1387.996
668.160	18.768	1462.964	1388.411
669.174	18.770	1461.182	1386.575
670.189	18.642	1460.139	1384.378
671.204	18.661	1459.392	1383.655
672.218	18.701	1458.688	1383.148
673.233	18.729	1457.303	1381.896
674.247	18.849	1456.447	1381.889
675.262	18.875	1455.428	1380.966
676.276	18.930	1454.154	1380.035
677.291	18.745	1453.771	1378.019
678.306	18.714	1451.478	1375.431
679.320	18.592	1450.385	1373.246
680.335	18.761	1450.416	1374.472
681.349	18.793	1450.104	1374.268
682.364	18.788	1447.759	1371.840
683.379	18.824	1446.823	1371.080
684.393	18.660	1445.623	1368.464
685.408	18.833	1444.216	1368.350
686.422	18.788	1443.099	1366.772
687.437	18.668	1443.557	1366.079
688.452	18.887	1442.990	1367.132
689.466	18.855	1440.485	1364.338
690.481	18.717	1438.723	1361.409
691.495	18.532	1438.384	1359.451
692.510	18.392	1435.870	1355.796
693.525	18.330	1434.275	1353.637
694.539	18.384	1434.069	1353.704
695.554	18.508	1434.311	1354.760
696.568	18.767	1433.564	1355.949
697.583	18.876	1432.848	1355.970
698.598	18.887	1431.641	1354.758
699.612	18.842	1430.444	1353.105
700.627	18.842	1429.173	1351.740
701.641	18.799	1428.219	1350.339
702.656	18.932	1426.776	1349.861
703.671	18.982	1426.253	1349.596
704.685	18.944	1426.014	1348.911
705.700	18.881	1424.201	1346.536
706.714	19.044	1421.738	1345.328
707.729	18.938	1420.546	1343.208
708.744	18.794	1419.481	1340.908
709.758	18.677	1418.927	1339.311
710.773	18.656	1417.970	1338.084
711.787	18.549	1416.203	1335.412
712.802	18.625	1414.993	1334.712
713.816	18.787	1414.023	1334.902
714.831	18.724	1413.512	1333.762
715.846	18.900	1412.254	1333.791
716.860	18.880	1411.840	1333.084
717.875	18.831	1410.561	1331.334
718.889	18.979	1409.006	1330.863
719.904	19.032	1407.449	1329.646
720.919	18.961	1406.838	1328.355
721.933	19.058	1406.356	1328.495
722.948	19.065	1405.331	1327.419
723.962	19.169	1403.805	1326.623
724.977	19.172	1402.384	1325.146
725.992	19.111	1402.214	1324.356
727.006	19.064	1400.607	1322.318
728.021	19.154	1399.426	1321.741
729.035	19.180	1398.429	1320.840
730.050	19.002	1397.732	1318.650
731.065	18.948	1396.909	1317.302
732.079	19.073	1395.599	1316.870
733.094	19.098	1394.291	1315.666
734.108	18.858	1392.606	1312.083
735.123	19.114	1391.476	1312.825
736.138	18.857	1391.232	1310.467
737.152	18.857	1389.532	1308.702
738.167	19.085	1389.484	1310.252
739.181	19.090	1388.223	1308.944
740.196	19.187	1386.922	1308.302
741.211	19.002	1385.923	1305.785
742.225	19.028	1385.665	1305.585
743.240	19.018	1384.318	1304.087
744.254	19.018	1382.702	1302.405
745.269	19.008	1381.425	1300.975
746.284	19.053	1380.181	1299.988
747.298	18.811	1379.447	1297.301
748.313	18.811	1377.761	1295.562
749.327	18.475	1377.128	1292.267
750.342	18.318	1376.133	1289.986
751.356	18.212	1374.737	1287.721
752.371	18.286	1374.313	1287.734
753.386	18.732	1373.312	1290.010
754.400	19.035	1372.350	1291.237
755.415	19.245	1371.269	1291.644
756.429	19.242	1370.052	1290.323
757.444	19.042	1369.004	1287.682
758.459	19.123	1368.631	1287.784
759.473	19.218	1367.896	1287.650
760.488	19.178	1366.462	1285.843
761.502	19.180	1365.675	1284.968
762.517	19.200	1364.163	1283.539
763.532	19.141	1362.698	1281.566
764.546	18.951	1361.318	1278.698
765.561	18.750	1360.700	1276.457
766.575	18.618	1360.095	1274.753
767.590	18.610	1358.520	1273.063
768.605	18.735	1356.765	1272.201
769.619	19.037	1355.845	1273.434
770.634	19.022	1354.793	1272.176
771.648	19.211	1354.152	1272.832
772.663	19.241	1354.369	1273.106
773.678	19.169	1353.847	1271.930
774.692	19.149	1352.798	1270.638
775.707	19.214	1352.305	1270.506
776.721	19.190	1351.211	1269.149
777.736	19.244	1349.361	1267.659
778.751	19.256	1348.773	1267.041
779.765	19.197	1347.504	1265.261
780.780	19.178	1346.791	1264.300
781.794	19.130	1345.980	1263.035
782.809	19.124	1344.487	1261.441
783.824	18.976	1343.542	1259.310
784.838	18.694	1342.178	1255.810
785.853	18.550	1340.149	1252.707
786.867	18.583	1339.711	1252.386
787.882	18.720	1339.752	1253.279
788.897	18.896	1339.058	1253.770
789.911	19.064	1337.696	1253.574
790.926	19.043	1336.519	1252.173
791.940	19.229	1334.990	1251.946
792.955	19.120	1334.229	1250.287
793.969	19.124	1333.639	1249.615
794.984	19.102	1332.636	1248.366
795.999	19.259	1331.656	1248.444
797.013	19.233	1329.931	1246.486
798.028	19.122	1328.812	1244.483
799.042	19.275	1328.158	1244.834
800.057	19.490	1326.598	1244.775
801.072	19.343	1325.324	1242.372
802.086	19.339	1324.484	1241.404
803.101	19.284	1323.907	1240.314
804.115	19.378	1323.017	1240.012
805.130	19.263	1321.855	1237.947
806.145	19.438	1320.279	1237.581
807.159	19.345	1318.822	1235.402
808.174	19.334	1317.225	1233.679
809.188	19.143	1316.312	1231.299
810.203	19.146	1314.525	1229.506
811.218	19.043	1313.006	1227.195
812.232	18.884	1311.603	1224.597
813.247	18.796	1311.028	1223.290
814.261	18.873	1311.197	1223.847
815.276	19.177	1309.803	1224.575
816.291	19.226	1308.686	1223.734
817.305	19.372	1307.653	1223.664
818.320	19.227	1306.814	1221.700
819.334	19.262	1305.959	1221.003
820.349	19.343	1303.831	1219.444
821.364	19.366	1303.161	1218.832
822.378	19.406	1301.697	1217.601
823.393	19.340	1300.577	1215.944
824.407	19.226	1299.343	1213.832
825.422	19.247	1298.635	1213.174
826.437	19.307	1297.347	1212.250
827.451	19.056	1295.334	1208.451
828.466	18.749	1294.064	1204.959
829.480	18.630	1292.540	1202.561
830.495	18.801	1290.976	1202.165
831.509	18.859	1290.675	1202.144
832.524	19.135	1289.804	1203.130
833.539	19.255	1288.512	1202.623
834.553	19.238	1287.689	1201.594
835.568	19.226	1286.857	1200.586
836.582	19.290	1286.334	1200.406
837.597	19.462	1284.026	1199.308
838.612	19.492	1281.820	1197.309
839.626	19.331	1281.090	1195.364
840.641	19.206	1280.179	1193.505
841.655	18.998	1279.549	1191.325
842.670	18.875	1278.285	1189.147
843.685	18.922	1276.646	1187.809
844.699	19.036	1275.787	1187.659
845.714	19.093	1274.882	1187.066
846.728	19.397	1274.333	1188.520
847.743	19.378	1273.915	1187.857
848.758	19.387	1272.554	1186.506
849.772	19.436	1270.782	1185.054
850.787	19.529	1269.497	1184.355
851.801	19.376	1268.821	1182.526
852.816	19.172	1267.585	1179.827
853.831	19.393	1265.446	1179.218
854.845	19.241	1263.982	1176.669
855.860	19.189	1262.627	1174.908
856.874	19.028	1262.145	1173.217
857.889	18.869	1260.653	1170.600
858.904	18.804	1258.497	1168.016
859.918	18.620	1256.963	1165.194
860.933	18.537	1255.914	1163.514
861.947	18.628	1255.456	1163.573
862.962	18.967	1253.829	1164.236
863.977	19.133	1253.350	1164.778
864.991	19.072	1253.427	1164.294
866.006	19.112	1252.604	1163.659
867.020	19.327	1251.166	1163.647
868.035	19.277	1250.361	1162.420
869.049	19.260	1249.410	1161.279
870.064	19.487	1248.000	1161.365
871.079	19.469	1247.429	1160.575
872.093	19.525	1247.065	1160.478
873.108	19.534	1245.564	1159.000
874.122	19.484	1243.722	1156.812
875.137	19.227	1243.613	1154.840
876.152	19.086	1242.498	1152.720
877.166	19.129	1240.747	1151.247
878.181	19.256	1240.166	1151.421
879.195	19.299	1239.871	1151.300
880.210	19.378	1239.219	1151.086
881.225	19.586	1237.690	1150.922
882.239	19.627	1236.925	1150.346
883.254	19.437	1236.168	1148.232
884.268	19.508	1234.988	1147.476
885.283	19.566	1233.349	1146.198
886.298	19.536	1232.010	1144.621
887.312	19.454	1231.555	1143.510
888.327	19.476	1229.912	1141.997
889.341	19.618	1228.479	1141.471
890.356	19.391	1228.068	1139.449
891.371	19.453	1228.075	1139.728
892.385	19.216	1227.274	1137.272
893.400	19.142	1226.300	1135.744
894.414	19.073	1224.645	1133.620
895.429	19.140	1222.480	1131.928
896.444	18.640	1220.724	1126.861
897.458	18.550	1219.585	1125.085
898.473	18.754	1219.520	1126.231
899.487	19.151	1218.807	1128.057
900.502	19.302	1217.991	1128.159
901.517	19.279	1217.211	1127.152
902.531	19.403	1216.253	1126.945
903.546	19.560	1215.017	1126.690
904.560	19.616	1214.209	1126.173
905.575	19.646	1213.633	1125.705
906.589	19.511	1212.948	1124.051
907.604	19.488	1212.452	1123.306
