DTS Sentinel unit serial number:	SN409020Multiplexer serial number:	ORYXHardware model number:	OX4-SRSoftware version number:	ORYX F/W v3.00 Oryx Data Collector v3.7.2.0data status	okinstallation	HaddamTimeLapsedifferential loss correction	single-endedforward channel	channel 3reverse channel	N/Adate	2011/06/22time	04:21:17forward acquisition time	30.00reverse acquisition time	0.00gamma	498.7831k internal	0.1752k external	0.1752temperature offset calibration	1.0074default loss term (dB/km)	0.3790temperature slope calibration	1.3530multiplexer offset coefficient	1.0000multiplexer slope coefficient	1.0000fibre end	0.00T internal ref (°C)	22.62T ext. ref 1 (°C)	18.25T ext. ref 2 (°C)	0.10length (m)	temperature (°C)	Stokes	anti-Stokes-747.200	18.594	-0.347	-0.369
-746.185	-64.435	0.147	0.079
-745.171	800.000	-0.126	0.507
-744.156	21.770	-0.391	0.423
-743.142	244.510	-0.183	0.409
-742.127	-80.044	0.659	0.292
-741.112	-200.000	0.002	-0.414
-740.098	113.189	0.095	-0.154
-739.083	95.667	0.282	-0.427
-738.069	-121.067	-0.710	0.157
-737.054	-46.640	0.107	0.069
-736.039	26.583	-0.547	-0.608
-735.025	183.154	0.280	-0.551
-734.010	-86.703	0.248	0.100
-732.996	-37.142	-0.094	-0.066
-731.981	36.692	0.139	-0.162
-730.966	-200.000	0.021	0.212
-729.952	24.308	0.156	0.171
-728.937	-84.840	0.555	-0.230
-727.923	385.721	-0.089	-0.244
-726.908	-99.303	-0.545	0.181
-725.894	254.937	0.197	-0.450
-724.879	15.509	-0.173	0.180
-723.864	-105.655	0.014	0.004
-722.850	193.856	0.172	0.347
-721.835	74.262	-0.219	0.306
-720.821	39.778	0.282	-0.336
-719.806	-12.016	-0.484	-0.420
-718.791	-13.773	0.131	-0.112
-717.777	-53.871	-0.284	0.171
-716.762	418.469	-0.231	0.657
-715.748	-120.367	-0.492	0.110
-714.733	149.049	-0.152	-0.274
-713.718	236.848	-0.105	0.231
-712.704	-62.414	0.486	0.267
-711.689	-152.578	-0.305	-0.029
-710.675	-30.856	-0.190	0.142
-709.660	-96.248	-0.542	-0.189
-708.645	-200.000	0.003	0.260
-707.631	-200.000	0.027	-0.444
-706.616	-200.000	0.032	-0.571
-705.602	-142.077	-0.229	-0.030
-704.587	-102.662	0.390	0.123
-703.572	-38.917	0.369	-0.257
-702.558	38.374	-0.423	-0.500
-701.543	32.151	0.292	-0.333
-700.529	-37.654	0.075	-0.053
-699.514	-113.631	0.443	-0.114
-698.499	-62.791	0.468	-0.256
-697.485	800.000	-0.075	0.336
-696.470	-71.847	-0.572	-0.281
-695.456	-153.828	-0.418	-0.037
-694.441	800.000	-0.224	0.876
-693.426	-131.135	0.329	-0.058
-692.412	47.158	-0.301	0.371
-691.397	-17.593	-0.152	-0.127
-690.383	-98.500	0.311	0.105
-689.368	800.000	-0.087	0.328
-688.354	-156.622	-0.119	-0.010
-687.339	114.159	-0.076	0.123
-686.324	-79.244	0.172	0.077
-685.310	-200.000	0.073	-0.503
-684.295	52.296	0.394	-0.498
-683.281	-200.000	0.052	-0.498
-682.266	-145.641	-0.438	-0.051
-681.251	204.108	0.146	0.301
-680.237	95.998	0.344	0.522
-679.222	-138.618	0.545	-0.078
-678.208	800.000	-0.113	0.424
-677.193	119.282	-0.049	0.080
-676.178	141.554	-0.063	-0.111
-675.164	-109.599	-0.338	-0.094
-674.149	99.039	0.314	0.481
-673.135	-153.215	0.087	-0.008
-672.120	-48.867	0.281	0.178
-671.105	-79.718	0.477	0.212
-670.091	431.078	-0.041	0.119
-669.076	33.300	0.071	-0.082
-668.062	-114.670	0.270	-0.068
-667.047	-10.169	-0.267	0.234
-666.032	349.438	-0.093	0.245
-665.018	19.155	0.383	0.407
-664.003	484.292	-0.059	-0.180
-662.989	-105.748	-0.173	0.051
-661.974	-50.765	-0.254	-0.158
-660.959	-200.000	0.013	0.175
-659.945	-61.523	-0.171	0.095
-658.930	-36.657	-0.557	0.395
-657.916	-23.105	-0.286	0.227
-656.901	800.000	0.091	-0.366
-655.886	260.878	-0.212	-0.487
-654.872	-137.714	0.546	0.080
-653.857	-200.000	0.022	0.438
-652.843	251.816	-0.058	-0.132
-651.828	800.000	0.028	-0.155
-650.814	-149.720	-0.249	0.026
-649.799	46.228	-0.362	-0.445
-648.784	195.797	-0.186	-0.375
-647.770	-69.906	0.130	0.065
-646.755	512.887	-0.215	-0.665
-645.741	34.241	-0.124	0.143
-644.726	-132.693	-0.361	-0.061
-643.711	800.000	0.034	0.153
-642.697	-39.533	0.287	0.199
-641.682	-56.844	0.414	-0.241
-640.668	-36.065	-0.935	-0.666
-639.653	789.960	0.053	0.195
-638.638	132.641	0.038	-0.065
-637.624	-123.525	-0.481	-0.100
-636.609	-200.000	0.002	0.033
-635.595	-200.000	-0.023	0.165
-634.580	-145.040	0.380	-0.045
-633.565	183.475	-0.124	-0.243
-632.551	-200.000	0.022	0.141
-631.536	-132.376	0.084	-0.014
-630.522	33.796	0.139	0.160
-629.507	211.224	-0.246	-0.513
-628.492	-150.816	0.139	0.014
-627.478	-89.620	0.124	-0.048
-626.463	-46.158	0.345	-0.224
-625.449	-21.738	0.377	0.303
-624.434	800.000	0.039	0.195
-623.419	34.826	-0.236	-0.273
-622.405	-127.165	-0.284	-0.054
-621.390	466.921	0.074	-0.222
-620.376	800.000	-0.023	0.119
-619.361	-119.871	-0.360	-0.081
-618.346	800.000	-0.058	-0.228
-617.332	800.000	-0.092	-0.391
-616.317	800.000	-0.039	-0.185
-615.303	336.604	0.217	0.559
-614.288	-132.588	-0.419	-0.070
-613.273	-59.966	-0.233	-0.131
-612.259	800.000	-0.106	0.457
-611.244	150.440	0.121	0.218
-610.230	-50.541	-0.296	-0.184
-609.215	-44.138	0.197	-0.130
-608.201	-153.882	-0.195	0.017
-607.186	-200.000	-0.335	0.001
-606.171	56.143	-0.263	0.338
-605.157	150.837	-0.285	-0.513
-604.142	13.746	-0.258	-0.264
-603.128	5.480	-0.271	0.264
-602.113	-48.763	0.417	-0.264
-601.098	-200.000	0.014	-0.220
-600.084	-126.016	0.489	-0.096
-599.069	-3.784	0.235	0.215
-598.055	177.410	-0.207	0.398
-597.040	145.340	0.274	0.485
-596.025	53.205	-0.208	0.263
-595.011	337.238	0.061	-0.158
-593.996	-154.066	0.725	0.064
-592.982	-200.000	-0.045	-0.656
-591.967	800.000	0.063	-0.358
-590.952	-200.000	0.008	-0.246
-589.938	-32.035	-0.414	0.305
-588.923	-16.348	0.391	0.327
-587.909	800.000	0.078	0.397
-586.894	275.506	0.092	0.216
-585.879	529.101	0.165	0.515
-584.865	17.385	-0.034	0.036
-583.850	-200.000	-0.015	0.089
-582.836	-113.445	-0.507	0.130
-581.821	-148.318	-0.127	-0.014
-580.806	-112.904	-0.463	-0.120
-579.792	-109.546	0.174	-0.048
-578.777	-175.251	0.441	0.016
-577.763	-159.252	-0.272	0.020
-576.748	11.936	0.052	0.053
-575.733	800.000	0.109	-0.400
-574.719	-94.480	-0.324	-0.116
-573.704	153.483	0.025	0.045
-572.690	-58.624	-0.145	0.083
-571.675	107.957	-0.214	-0.337
-570.661	341.636	0.076	0.197
-569.646	-11.395	-0.299	0.259
-568.631	-27.417	-0.155	0.119
-567.617	182.093	-0.068	0.133
-566.602	-25.449	-0.261	0.203
-565.588	-200.000	-0.046	-0.512
-564.573	800.000	0.050	-0.213
-563.558	-197.132	-0.690	0.006
-562.544	-17.048	0.253	0.210
-561.529	186.906	-0.130	0.256
-560.515	-146.796	-0.062	0.007
-559.500	-140.139	-0.264	0.036
-558.485	664.267	-0.025	-0.084
-557.471	-120.868	0.709	0.156
-556.456	-200.000	-0.025	0.259
-555.442	546.049	0.134	-0.423
-554.427	-21.361	-0.418	0.336
-553.412	219.727	-0.185	0.391
-552.398	-200.000	0.028	0.618
-551.383	-70.284	-0.330	0.164
-550.369	800.000	-0.113	0.469
-549.354	800.000	0.110	0.521
-548.339	89.179	-0.388	-0.570
-547.325	-27.889	0.367	0.280
-546.310	269.875	0.119	-0.277
-545.296	-59.337	-0.715	-0.404
-544.281	-134.618	-0.245	0.039
-543.266	67.437	-0.272	-0.366
-542.252	-96.932	-0.339	-0.117
-541.237	569.142	-0.118	-0.380
-540.223	270.664	-0.091	-0.212
-539.208	84.958	-0.198	-0.286
-538.193	-80.955	-0.368	-0.160
-537.179	-148.038	-0.193	0.021
-536.164	-82.820	0.262	-0.111
-535.150	-82.231	0.279	-0.119
-534.135	800.000	0.145	0.606
-533.121	-116.246	0.145	0.035
-532.106	-94.843	-0.423	0.150
-531.091	-38.161	-0.213	-0.148
-530.077	-14.045	0.525	0.446
-529.062	-44.310	-0.612	0.402
-528.048	-125.103	-0.240	-0.048
-527.033	335.741	0.056	-0.144
-526.018	-104.867	-0.089	-0.027
-525.004	-29.527	0.291	-0.218
-523.989	-200.000	0.008	0.284
-522.975	131.409	0.177	0.301
-521.960	320.032	0.124	-0.311
-520.945	-45.317	-0.340	-0.222
-519.931	2.382	-0.100	0.095
-518.916	800.000	0.041	-0.189
-517.902	565.420	0.052	-0.168
-516.887	71.315	-0.099	0.135
-515.872	-71.285	-0.263	-0.129
-514.858	8.672	0.101	0.101
-513.843	43.226	0.113	0.135
-512.829	89.987	0.314	0.463
-511.814	39.767	0.364	-0.429
-510.799	-144.695	-0.120	0.014
-509.785	139.216	-0.252	-0.437
-508.770	-36.870	-0.035	0.024
-507.756	-66.483	-0.415	-0.216
-506.741	-39.635	-0.325	-0.223
-505.726	-108.204	0.212	-0.060
-504.712	-200.000	0.030	0.436
-503.697	-125.811	-0.040	0.008
-502.683	-28.504	-0.500	-0.379
-501.668	330.275	0.149	0.378
-500.653	541.942	-0.094	0.296
-499.639	-99.163	0.440	0.145
-498.624	607.135	0.086	0.284
-497.610	-31.220	-0.093	-0.069
-496.595	26.256	-0.310	-0.341
-495.581	-142.288	0.198	-0.025
-494.566	800.000	0.099	0.390
-493.551	-38.068	-0.263	0.183
-492.537	686.101	-0.066	-0.229
-491.522	-200.000	-0.011	0.395
-490.508	-19.328	-0.163	-0.133
-489.493	-200.000	0.017	-0.560
-488.478	-47.133	0.165	0.105
-487.464	-108.473	-0.296	-0.083
-486.449	-44.627	0.065	-0.043
-485.435	-131.852	0.240	0.041
-484.420	-68.024	0.046	0.023
-483.405	26.018	0.302	-0.331
-482.391	-92.337	-0.792	0.291
-481.376	213.620	0.134	-0.279
-480.362	145.753	0.202	0.357
-479.347	47.606	-0.342	-0.420
-478.332	-56.803	0.170	-0.099
-477.318	62.395	0.094	-0.124
-476.303	-200.000	-0.029	-0.201
-475.289	-100.686	0.386	-0.124
-474.274	-91.091	-0.057	-0.021
-473.259	572.821	-0.100	0.321
-472.245	22.864	-0.061	0.066
-471.230	-72.040	0.221	0.107
-470.216	32.726	0.034	-0.039
-469.201	-115.340	0.246	0.061
-468.186	132.993	0.129	0.219
-467.172	-143.906	-0.449	-0.055
-466.157	-200.000	-0.006	0.050
-465.143	38.144	-0.036	0.042
-464.128	111.694	0.052	0.082
-463.113	170.976	0.177	-0.334
-462.099	-200.000	0.035	-0.385
-461.084	-66.970	0.535	-0.276
-460.070	104.364	0.150	-0.233
-459.055	-71.884	0.110	-0.053
-458.040	-61.187	0.426	0.235
-457.026	-76.320	-0.628	-0.289
-456.011	-15.917	-0.540	-0.450
-454.997	27.824	0.180	-0.199
-453.982	-76.308	0.194	0.089
-452.968	31.502	-0.192	0.217
-451.953	107.735	-0.196	0.306
-450.938	-0.984	-0.138	-0.129
-449.924	-67.817	0.146	-0.075
-448.909	-7.710	0.250	-0.221
-447.895	39.235	0.032	-0.038
-446.880	279.371	-0.012	-0.029
-445.865	20.221	-0.226	0.239
-444.851	-66.712	-0.243	0.126
-443.836	137.920	-0.074	-0.128
-442.822	-181.095	0.529	0.014
-441.807	800.000	-0.111	-0.476
-440.792	-144.512	0.193	-0.023
-439.778	-62.818	0.141	-0.076
-438.763	-70.898	-0.614	0.302
-437.749	-90.072	0.386	0.147
-436.734	-143.948	-0.099	0.012
-435.719	-69.731	0.153	-0.076
-434.705	-200.000	-0.001	-0.282
-433.690	8.523	-0.142	0.140
-432.676	-102.988	-0.066	0.020
-431.661	-78.845	-0.118	-0.053
-430.646	42.235	-0.194	-0.231
-429.632	-200.000	0.017	-0.411
-428.617	-200.000	0.012	-0.349
-427.603	61.327	-0.175	0.228
-426.588	-155.526	0.549	-0.046
-425.573	-200.000	-0.010	0.344
-424.559	2.314	-0.570	-0.540
-423.544	168.412	-0.124	-0.231
-422.530	69.775	-0.225	0.304
-421.515	-88.576	0.616	-0.239
-420.500	180.550	0.158	-0.306
-419.486	-162.772	0.262	0.017
-418.471	800.000	0.059	-0.343
-417.457	15.757	-0.280	-0.289
-416.442	49.007	0.216	-0.266
-415.428	-75.963	-0.504	-0.233
-414.413	10.904	0.429	-0.429
-413.398	110.060	0.104	-0.164
-412.384	-128.482	-0.209	-0.039
-411.369	-150.222	-0.381	-0.038
-410.355	41.758	0.125	0.149
-409.340	-71.736	-0.306	-0.149
-408.325	175.318	-0.081	-0.155
-407.311	-13.580	-0.166	-0.141
-406.296	-200.000	0.043	0.595
-405.282	240.603	0.097	0.213
-404.267	-23.625	-0.135	0.106
-403.252	-84.742	0.400	0.164
-402.238	-173.480	-0.193	0.008
-401.223	-110.410	0.310	0.084
-400.209	-110.049	0.300	-0.082
-399.194	800.000	-0.109	-0.498
-398.179	800.000	0.150	-0.650
-397.165	146.714	0.069	0.122
-396.150	52.523	0.175	-0.220
-395.136	3.327	0.216	0.206
-394.121	268.585	-0.132	0.305
-393.106	-116.917	0.272	0.065
-392.092	56.568	0.225	0.287
-391.077	34.670	-0.292	0.335
-390.063	-200.000	0.020	0.458
-389.048	40.952	0.134	0.158
-388.033	108.718	-0.085	0.134
-387.019	78.040	-0.239	-0.334
-386.004	109.821	-0.164	-0.259
-384.990	-200.000	-0.000	0.029
-383.975	309.290	-0.053	0.131
-382.960	-68.665	0.361	-0.182
-381.946	24.802	-0.523	-0.568
-380.931	-72.723	-0.348	-0.167
-379.917	17.195	-0.534	0.554
-378.902	251.378	0.165	-0.369
-377.888	-200.000	-0.071	-0.435
-376.873	-73.386	-0.202	-0.096
-375.858	358.932	0.081	0.213
-374.844	-200.000	-0.112	0.800
-373.829	-182.293	-0.287	0.007
-372.815	-55.147	-0.149	0.087
-371.800	-24.862	0.433	0.336
-370.785	-49.103	-0.061	0.038
-369.771	-92.189	-0.097	-0.036
-368.756	-200.000	-0.089	-0.796
-367.742	-200.000	-0.021	-0.131
-366.727	197.213	-0.173	0.346
-365.712	-200.000	0.007	0.113
-364.698	-58.556	0.331	-0.188
-363.683	173.249	0.181	-0.342
-362.669	349.084	0.150	0.390
-361.654	-200.000	0.041	0.301
-360.639	-200.000	-0.013	0.426
-359.625	-197.976	0.551	-0.004
-358.610	800.000	-0.110	-0.610
-357.596	800.000	0.019	-0.085
-356.581	800.000	0.076	-0.338
-355.566	161.012	-0.155	0.284
-354.552	-43.211	-0.180	-0.119
-353.537	319.500	0.123	0.307
-352.523	590.652	0.064	-0.208
-351.508	103.073	-0.049	-0.075
-350.493	103.297	0.090	-0.138
-349.479	-100.645	-0.533	-0.171
-348.464	-115.823	0.397	0.096
-347.450	-143.115	-0.189	-0.024
-346.435	-82.798	-0.305	0.128
-345.420	-20.693	-0.362	0.290
-344.406	-152.975	0.175	0.016
-343.391	-164.188	-0.292	-0.017
-342.377	-164.000	0.156	0.009
-341.362	-32.440	0.114	-0.083
-340.348	384.386	0.177	0.480
-339.333	-31.348	0.460	0.338
-338.318	-153.812	0.454	-0.040
-337.304	342.326	0.116	-0.298
-336.289	-152.698	0.402	-0.037
-335.275	-200.000	-0.010	-0.434
-334.260	-106.286	0.280	-0.081
-333.245	-200.000	0.008	-0.314
-332.231	-2.564	-0.158	0.144
-331.216	221.845	0.080	-0.170
-330.202	-77.796	0.124	-0.056
-329.187	-171.365	-0.354	-0.015
-328.172	-112.704	0.261	-0.067
-327.158	-81.176	-0.237	-0.102
-326.143	800.000	-0.096	0.355
-325.129	-107.662	0.287	-0.081
-324.114	-111.495	0.445	0.117
-323.099	-21.126	0.180	0.143
-322.085	143.585	0.175	0.305
-321.070	-116.303	-0.294	-0.071
-320.056	259.610	-0.090	-0.203
-319.041	16.711	0.057	0.059
-318.026	800.000	0.057	0.302
-317.012	-56.707	-0.290	0.167
-315.997	613.589	0.065	0.212
-314.983	-50.797	0.480	0.294
-313.968	-67.946	-0.376	0.191
-312.953	-42.222	-0.332	0.221
-311.939	-200.000	-0.057	0.372
-310.924	800.000	-0.147	0.670
-309.910	-200.000	-0.002	-0.338
-308.895	-47.194	0.296	0.188
-307.880	-60.689	0.661	-0.365
-306.866	43.865	0.216	0.258
-305.851	36.970	0.189	-0.219
-304.837	-200.000	-0.008	0.167
-303.822	703.712	-0.052	0.180
-302.807	800.000	0.087	-0.360
-301.793	30.818	0.325	0.363
-300.778	59.672	0.254	0.327
-299.764	-200.000	0.264	-0.000
-298.749	-88.719	0.277	-0.107
-297.735	-82.414	0.317	-0.134
-296.720	-134.891	0.293	-0.046
-295.705	-78.738	-0.407	-0.180
-294.691	-200.000	0.012	-0.135
-293.676	-119.950	-0.214	0.048
-292.662	-63.994	-0.323	-0.172
-291.647	-200.000	0.014	-0.419
-290.632	251.704	0.051	-0.114
-289.618	36.222	-0.251	0.289
-288.603	86.788	0.250	0.360
-287.589	-57.226	-0.463	-0.265
-286.574	635.950	0.094	0.313
-285.559	-145.922	0.149	-0.017
-284.545	-155.003	0.560	0.047
-283.530	-24.947	0.408	-0.315
-282.516	-31.166	-0.143	-0.105
-281.501	-98.330	0.425	0.141
-280.486	-192.390	0.226	-0.003
-279.472	-68.335	0.243	-0.122
-278.457	-126.499	0.306	0.059
-277.443	111.578	-0.090	-0.142
-276.428	15.845	-0.114	0.117
-275.413	-200.000	0.279	-0.001
-274.399	-200.000	-0.004	-0.531
-273.384	-200.000	0.001	-0.100
-272.370	-143.694	-0.269	0.033
-271.355	-193.707	-0.130	0.001
-270.340	53.214	0.079	-0.098
-269.326	-37.119	-0.360	-0.251
-268.311	-92.278	0.317	0.116
-267.297	-94.618	-0.418	0.147
-266.282	-51.745	-0.388	-0.235
-265.267	8.851	0.286	0.281
-264.253	41.906	0.166	-0.196
-263.238	-148.429	-0.225	0.024
-262.224	190.213	0.186	0.364
-261.209	294.891	0.055	0.131
-260.195	-128.610	-0.374	0.068
-259.180	-136.844	-0.372	0.055
-258.165	6.249	0.314	0.303
-257.151	-43.014	0.300	-0.198
-256.136	667.973	0.117	-0.398
-255.122	-200.000	0.041	-0.571
-254.107	-200.000	0.019	0.178
-253.092	129.288	0.118	-0.196
-252.078	369.408	0.224	0.594
-251.063	527.222	0.148	-0.457
-250.049	-200.000	0.001	-0.090
-249.034	154.329	0.110	-0.197
-248.019	27.303	0.154	0.169
-247.005	4.648	-0.329	0.314
-245.990	800.000	-0.112	0.606
-244.976	-113.864	0.221	-0.056
-243.961	-122.370	0.108	-0.023
-242.946	-35.802	0.355	0.250
-241.932	-35.197	-0.361	0.256
-240.917	72.135	-0.194	0.263
-239.903	-22.558	0.297	0.234
-238.888	18.263	-0.146	-0.152
-237.873	-200.000	0.016	0.246
-236.859	-167.247	-0.129	0.007
-235.844	-200.000	0.312	0.002
-234.830	800.000	0.117	0.439
-233.815	-78.432	-0.285	0.126
-232.800	-55.684	0.326	0.189
-231.786	800.000	-0.040	0.216
-230.771	376.051	-0.169	0.450
-229.757	552.902	-0.093	0.291
-228.742	88.217	-0.138	0.200
-227.727	332.025	0.080	0.201
-226.713	83.717	-0.114	0.162
-225.698	800.000	0.047	-0.189
-224.684	110.642	-0.132	0.206
-223.669	-5.534	0.051	0.046
-222.655	-64.709	0.269	0.141
-221.640	-200.000	-0.068	-0.427
-220.625	282.493	0.204	-0.477
-219.611	10.832	-0.144	-0.143
-218.596	222.080	-0.196	-0.411
-217.582	-200.000	-0.008	-0.084
-216.567	158.929	-0.151	0.274
-215.552	-72.474	0.066	0.032
-214.538	-200.000	0.017	-0.166
-213.523	-109.657	0.534	-0.145
-212.509	-200.000	-0.015	-0.452
-211.494	800.000	-0.085	0.371
-210.479	-1.349	0.356	-0.326
-209.465	-161.888	0.359	-0.023
-208.450	-10.919	-0.441	0.378
-207.436	-103.844	-0.090	-0.027
-206.421	220.535	0.243	0.508
-205.406	800.000	-0.036	-0.189
-204.392	-155.520	-0.331	0.027
-203.377	24.345	0.054	0.058
-202.363	-59.699	0.326	0.181
-201.348	-6.201	0.117	0.104
-200.333	-134.900	-0.249	-0.039
-199.319	-19.917	-0.228	-0.183
-198.304	-200.000	-0.060	0.564
-197.290	-100.660	0.609	-0.194
-196.275	23.478	-0.049	-0.053
-195.260	-27.559	-0.139	-0.104
-194.246	-1.009	0.162	-0.148
-193.231	-52.000	-0.184	-0.111
-192.217	800.000	0.075	0.282
-191.202	800.000	0.143	0.552
-190.187	-116.265	0.169	-0.040
-189.173	-150.962	-0.873	-0.085
-188.158	-64.145	-0.082	-0.044
-187.144	-120.757	-0.059	-0.013
-186.129	108.901	0.116	-0.181
-185.114	-76.533	0.497	0.226
-184.100	-88.505	0.398	-0.153
-183.085	-66.030	0.203	0.105
-182.071	164.144	0.205	0.377
-181.056	-140.712	-0.442	-0.059
-180.042	-72.363	0.540	-0.258
-179.027	434.193	-0.136	0.386
-178.012	98.741	-0.160	0.240
-176.998	23.658	0.281	-0.300
-175.983	800.000	0.178	0.681
-174.969	-200.000	-0.001	0.116
-173.954	-104.971	-0.483	0.143
-172.939	191.028	-0.261	-0.512
-171.925	-200.000	0.008	-0.167
-170.910	-143.303	0.239	-0.029
-169.896	-113.588	0.648	-0.163
-168.881	-80.620	-0.198	-0.085
-167.866	153.854	0.136	-0.242
-166.852	-64.334	0.196	0.103
-165.837	37.402	0.082	0.094
-164.823	-18.498	-0.072	-0.058
-163.808	71.820	-0.177	-0.239
-162.793	-200.000	-0.034	0.466
-161.779	-101.193	-0.188	0.059
-160.764	21.796	0.104	-0.110
-159.750	65.088	-0.059	-0.077
-158.735	686.012	0.011	0.037
-157.720	-12.866	-0.277	0.234
-156.706	-71.463	0.466	-0.225
-155.691	-56.652	0.312	0.179
-154.677	-200.000	-0.048	0.300
-153.662	-2.012	0.376	-0.342
-152.647	32.744	-0.063	-0.070
-151.633	-200.000	0.004	0.297
-150.618	-89.246	-0.195	-0.074
-149.604	800.000	-0.036	0.142
-148.589	-7.310	0.135	0.118
-147.574	-40.196	0.156	0.105
-146.560	29.416	0.219	0.241
-145.545	209.579	0.128	-0.262
-144.531	-200.000	0.021	0.204
-143.516	-75.521	0.240	0.110
-142.502	15.884	0.504	-0.514
-141.487	-27.762	0.221	-0.166
-140.472	-200.000	0.004	-0.043
-139.458	57.587	0.342	-0.434
-138.443	211.999	-0.070	0.143
-137.429	-25.231	-0.346	-0.265
-136.414	-200.000	-0.018	0.371
-135.399	-12.657	-0.302	0.255
-134.385	-20.540	-0.051	-0.041
-133.370	-143.003	-0.387	-0.048
-132.356	-26.144	-0.248	0.189
-131.341	-125.827	-0.517	-0.100
-130.326	200.749	-0.259	-0.518
-129.312	-160.597	0.163	-0.011
-128.297	106.440	0.204	0.315
-127.283	800.000	0.121	0.443
-126.268	800.000	-0.055	-0.239
-125.253	-115.186	-0.109	0.026
-124.239	-200.000	0.025	-0.303
-123.224	-144.282	-0.471	0.056
-122.210	155.153	0.017	0.030
-121.195	800.000	0.057	0.324
-120.180	37.508	-0.304	-0.350
-119.166	-80.500	-0.367	0.158
-118.151	-200.000	-0.003	-0.064
-117.137	-130.057	0.235	0.041
-116.122	3.623	-0.220	0.208
-115.107	261.824	-0.168	0.380
-114.093	674.157	0.100	0.339
-113.078	800.000	-0.056	-0.289
-112.064	5.888	-0.333	-0.319
-111.049	5.404	-0.164	-0.156
-110.034	89.020	-0.120	-0.174
-109.020	-20.542	0.334	-0.265
-108.005	-101.178	-0.138	-0.044
-106.991	-63.223	-0.044	-0.023
-105.976	29.777	-0.032	0.035
-104.962	-200.000	-0.023	0.158
-103.947	27.276	-0.312	-0.339
-102.932	461.922	0.027	0.079
-101.918	-200.000	-0.015	0.160
-100.903	10.593	-0.289	0.286
-99.889	-32.948	-0.121	-0.087
-98.874	-103.535	0.536	-0.162
-97.859	-92.482	0.280	0.101
-96.845	-66.814	-0.325	-0.166
-95.830	-118.317	-0.790	0.180
-94.816	-200.000	0.035	-0.419
-93.801	34.405	-0.062	-0.070
-92.786	-31.437	-0.332	-0.241
-91.772	-22.426	0.215	-0.168
-90.757	-200.000	0.007	0.278
-89.743	147.136	-0.047	0.082
-88.728	-71.697	-0.498	-0.239
-87.713	-200.000	0.013	0.116
-86.699	-77.046	-0.385	0.173
-85.684	-63.922	-0.076	-0.040
-84.670	-200.000	-0.006	0.251
-83.655	800.000	-0.115	-0.584
-82.640	-130.559	-0.224	-0.039
-81.626	-77.949	-0.460	-0.204
-80.611	800.000	0.023	0.091
-79.597	-153.702	-0.417	0.037
-78.582	-200.000	-0.053	0.303
-77.567	-200.000	-0.004	0.028
-76.553	-140.266	0.586	-0.078
-75.538	-64.186	0.105	-0.055
-74.524	122.801	0.186	-0.302
-73.509	-200.000	0.012	0.697
-72.494	-40.521	-0.464	-0.311
-71.480	17.601	0.316	-0.325
-70.465	-49.868	0.464	-0.284
-69.451	-118.446	0.122	0.028
-68.436	-113.359	0.526	-0.133
-67.422	29.796	0.188	-0.207
-66.407	-110.621	-0.198	-0.053
-65.392	-200.000	-0.031	-0.230
-64.378	-22.558	0.145	-0.113
-63.363	-9.292	-0.152	0.131
-62.349	-171.233	-0.448	0.019
-61.334	10.609	-2.409	-2.373
-60.319	13.960	1.436	1.444
-59.305	243.987	-3.426	-7.461
-58.290	61.814	3.498	4.509
-57.276	325.574	4.006	9.950
-56.261	-200.000	24.128	316.259
-55.246	357.692	1298.428	3364.216
-54.232	53.411	2839.354	3521.401
-53.217	51.672	2658.644	3270.295
-52.203	32.086	2388.324	2662.021
-51.188	27.900	2054.887	2238.829
-50.173	24.481	1940.694	2074.470
-49.159	23.402	1929.250	2049.616
-48.144	23.044	1924.452	2040.286
-47.130	22.784	1923.012	2035.668
-46.115	22.763	1920.875	2033.083
-45.100	22.862	1918.799	2031.951
-44.086	22.677	1917.942	2028.827
-43.071	22.775	1916.857	2028.732
-42.057	22.685	1915.379	2026.039
-41.042	22.788	1913.197	2024.839
-40.027	22.719	1912.197	2022.908
-39.013	22.868	1909.881	2022.089
-37.998	22.765	1908.815	2019.694
-36.984	22.810	1907.659	2018.918
-35.969	22.765	1906.154	2016.718
-34.954	22.761	1905.410	2015.812
-33.940	22.690	1904.523	2013.976
-32.925	22.747	1902.820	2012.746
-31.911	22.664	1901.959	2010.809
-30.896	22.673	1900.342	2009.123
-29.881	22.678	1898.966	2007.649
-28.867	22.656	1897.411	2005.664
-27.852	22.713	1895.418	2004.135
-26.838	22.586	1895.014	2002.174
-25.823	22.610	1893.493	2000.759
-24.809	22.614	1892.150	1999.310
-23.794	22.632	1891.292	1998.529
-22.779	22.583	1889.690	1996.203
-21.765	22.594	1887.895	1994.356
-20.750	22.650	1886.443	1993.378
-19.736	22.698	1886.090	1993.473
-18.721	22.539	1885.799	1991.274
-17.706	22.523	1884.620	1989.771
-16.692	22.579	1882.647	1988.239
-15.677	22.558	1880.831	1986.006
-14.663	22.603	1879.321	1984.839
-13.648	22.693	1877.594	1983.958
-12.633	22.531	1877.560	1982.011
-11.619	22.542	1876.215	1980.636
-10.604	22.532	1874.690	1978.837
-9.590	22.561	1874.012	1978.368
-8.575	22.489	1872.611	1975.996
-7.560	22.537	1870.983	1974.748
-6.546	22.550	1869.972	1973.748
-5.531	22.477	1869.794	1972.661
-4.517	22.436	1868.289	1970.534
-3.502	22.492	1867.337	1970.077
-2.487	22.582	1865.779	1969.362
-1.473	22.581	1861.491	1964.751
-0.458	22.375	1844.384	1944.326
0.556	19.233	1990.352	2048.452
1.571	17.883	2194.242	2240.219
2.586	18.646	2233.468	2290.240
3.600	18.597	2236.814	2292.738
4.615	18.713	2234.915	2292.078
5.629	18.737	2232.719	2289.870
6.644	18.757	2230.562	2287.647
7.659	18.605	2228.594	2283.323
8.673	18.654	2227.470	2282.553
9.688	18.381	2235.827	2287.173
10.702	17.339	2315.964	2354.386
11.717	16.096	2379.688	2401.094
12.731	7.813	2360.954	2263.841
13.746	1.156	2342.658	2151.317
14.761	0.174	2338.596	2133.342
15.775	0.125	2336.306	2130.306
16.790	0.079	2335.199	2128.383
17.804	0.105	2333.619	2127.059
18.819	0.049	2332.871	2125.322
19.834	0.051	2331.290	2123.667
20.848	-0.014	2329.839	2121.162
21.863	-0.013	2328.335	2119.556
22.877	-0.038	2326.168	2116.975
23.892	0.055	2324.325	2116.356
24.907	0.058	2321.266	2113.363
25.921	-0.015	2320.836	2111.684
26.936	-0.102	2318.401	2107.997
27.950	-0.091	2315.831	2105.560
28.965	0.097	2312.418	2104.847
29.980	0.076	2311.670	2103.616
30.994	0.085	2310.323	2102.266
32.009	4.276	2322.576	2172.252
33.023	13.731	2349.662	2331.459
34.038	17.499	2356.024	2390.780
35.053	17.798	2352.887	2391.512
36.067	17.804	2351.261	2389.664
37.082	17.753	2350.009	2387.388
38.096	17.813	2347.170	2385.054
39.111	17.857	2345.210	2383.406
40.126	17.954	2342.948	2382.176
41.140	18.082	2340.954	2381.663
42.155	18.090	2340.017	2380.531
43.169	18.091	2338.006	2378.217
44.184	17.895	2335.420	2372.563
45.199	17.959	2333.145	2370.858
46.213	17.909	2332.701	2369.429
47.228	18.062	2330.592	2369.129
48.242	18.122	2329.064	2368.132
49.257	18.114	2327.547	2366.195
50.271	18.083	2324.539	2362.422
51.286	17.943	2322.830	2358.455
52.301	17.863	2320.791	2354.998
53.315	18.225	2322.958	2361.944
54.330	20.079	2325.605	2390.072
55.344	21.174	2325.297	2404.639
56.359	21.208	2321.988	2401.403
57.374	21.305	2321.983	2402.449
58.388	21.496	2319.203	2401.927
59.403	21.346	2316.041	2396.297
60.417	21.225	2313.189	2391.386
61.432	21.452	2311.052	2392.011
62.447	21.538	2310.617	2392.461
63.461	21.549	2308.650	2390.291
64.476	21.690	2306.315	2389.514
65.490	21.507	2304.928	2385.284
66.505	20.971	2301.884	2374.520
67.520	19.677	2295.862	2350.337
68.534	18.474	2288.871	2326.499
69.549	18.044	2286.197	2317.642
70.563	18.069	2284.361	2315.839
71.578	18.019	2282.354	2312.857
72.593	17.985	2281.597	2311.340
73.607	18.234	2279.467	2312.291
74.622	18.212	2277.083	2309.306
75.636	18.032	2273.978	2303.441
76.651	17.943	2272.457	2300.415
77.666	18.079	2269.696	2299.183
78.680	18.097	2267.151	2296.572
79.695	18.061	2265.629	2294.264
80.709	17.991	2264.643	2292.054
81.724	17.984	2262.958	2289.983
82.739	17.935	2260.521	2286.575
83.753	17.911	2258.766	2284.203
84.768	17.931	2256.039	2281.442
85.782	17.909	2255.438	2280.273
86.797	17.901	2253.731	2278.160
87.812	17.993	2251.359	2276.724
88.826	17.926	2248.912	2273.080
89.841	17.961	2246.471	2270.804
90.855	18.000	2244.850	2269.415
91.870	17.849	2243.587	2265.858
92.884	17.913	2241.110	2263.935
93.899	18.045	2239.496	2263.796
94.914	18.319	2241.138	2268.834
95.928	19.748	2245.737	2292.268
96.943	20.284	2243.322	2296.668
97.957	18.847	2236.245	2270.074
98.972	18.134	2231.184	2255.222
99.987	17.899	2228.272	2248.891
101.001	17.838	2226.055	2245.582
102.016	18.002	2223.586	2244.991
103.030	17.902	2222.326	2242.124
104.045	17.918	2220.240	2239.961
105.060	18.065	2217.679	2239.055
106.074	18.004	2215.932	2236.214
107.089	17.935	2214.518	2233.610
108.103	17.903	2213.651	2232.049
109.118	18.036	2212.447	2232.319
110.133	18.076	2210.754	2230.866
111.147	18.014	2208.651	2227.662
112.162	18.134	2206.853	2227.155
113.176	18.095	2204.228	2223.735
114.191	17.921	2203.567	2220.524
115.206	17.955	2200.973	2218.086
116.220	17.886	2199.347	2215.290
117.235	17.957	2197.419	2213.999
118.249	17.858	2196.080	2211.093
119.264	18.142	2193.510	2211.935
120.279	18.080	2192.977	2210.327
121.293	17.911	2190.938	2205.820
122.308	18.103	2188.520	2205.611
123.322	17.971	2188.164	2203.272
124.337	18.339	2187.305	2206.911
125.352	19.945	2192.411	2232.641
126.366	20.271	2191.304	2235.462
127.381	18.633	2182.807	2205.389
128.395	18.034	2178.934	2193.477
129.410	17.963	2176.346	2189.694
130.424	17.964	2175.520	2188.619
131.439	18.027	2173.058	2186.687
132.454	17.974	2171.808	2184.488
133.468	18.015	2169.596	2182.530
134.483	18.003	2167.506	2180.004
135.497	17.984	2166.379	2178.370
136.512	17.987	2164.134	2175.891
137.527	18.030	2162.787	2174.826
138.541	18.002	2160.778	2172.190
139.556	17.902	2160.219	2170.087
140.570	17.828	2159.220	2167.883
141.585	17.786	2157.418	2165.276
142.600	17.827	2156.079	2164.192
143.614	17.933	2154.319	2163.516
144.629	17.869	2152.701	2160.818
145.643	17.890	2150.165	2158.288
146.658	17.831	2148.406	2155.509
147.673	17.834	2146.689	2153.567
148.687	17.881	2145.524	2152.733
149.702	17.879	2145.308	2152.241
150.716	17.947	2143.685	2151.213
151.731	17.994	2143.080	2150.939
152.746	18.043	2141.590	2149.809
153.760	18.402	2141.954	2154.461
154.775	19.782	2147.397	2177.146
155.789	20.407	2145.272	2182.628
156.804	18.865	2136.696	2154.230
157.819	18.021	2130.945	2137.574
158.833	18.004	2128.406	2134.547
159.848	18.061	2126.579	2133.173
160.862	18.151	2125.221	2132.692
161.877	18.131	2125.371	2132.332
162.892	18.065	2124.458	2130.335
163.906	18.097	2122.382	2128.396
164.921	18.084	2119.591	2125.189
165.935	18.071	2118.159	2123.326
166.950	18.007	2116.689	2120.806
167.964	18.093	2113.767	2118.693
168.979	17.831	2112.422	2113.834
169.994	17.938	2111.317	2113.808
171.008	17.961	2109.075	2111.591
172.023	17.906	2108.637	2110.220
173.037	17.889	2108.043	2109.162
174.052	17.972	2105.448	2107.341
175.067	18.005	2102.901	2104.942
176.081	18.027	2101.559	2103.630
177.096	17.950	2101.159	2102.020
178.110	17.993	2098.929	2100.071
179.125	18.002	2097.374	2098.377
180.140	18.068	2096.167	2097.722
181.154	17.950	2095.716	2095.570
182.169	17.912	2094.364	2093.504
183.183	18.323	2095.828	2099.775
184.198	20.185	2098.837	2125.507
185.213	20.539	2097.135	2127.882
186.227	18.837	2090.523	2100.024
187.242	18.108	2087.205	2087.499
188.256	18.180	2084.616	2085.537
189.271	18.104	2083.343	2083.093
190.286	18.038	2082.374	2081.059
191.300	17.954	2079.067	2076.487
192.315	17.892	2077.278	2073.683
193.329	18.071	2076.841	2075.191
194.344	18.137	2076.330	2075.231
195.359	18.187	2074.197	2073.469
196.373	18.045	2072.629	2069.915
197.388	18.016	2069.569	2066.258
198.402	17.967	2067.614	2063.475
199.417	17.938	2065.115	2060.381
200.432	18.000	2063.557	2059.332
201.446	17.977	2062.839	2058.086
202.461	17.971	2061.385	2056.314
203.475	17.954	2059.307	2053.787
204.490	18.012	2057.400	2052.339
205.504	17.850	2055.749	2048.499
206.519	17.952	2052.566	2046.312
207.534	17.972	2051.426	2045.170
208.548	17.950	2051.299	2044.529
209.563	18.007	2050.090	2043.766
210.577	18.002	2048.153	2041.527
211.592	17.979	2047.866	2040.725
212.607	18.788	2050.936	2053.264
213.621	20.890	2054.815	2082.179
214.636	20.368	2049.678	2070.465
215.650	18.594	2043.528	2042.796
216.665	18.091	2040.325	2033.336
217.680	18.079	2038.810	2031.430
218.694	18.104	2037.253	2029.942
219.709	17.941	2036.323	2026.824
220.723	18.065	2034.004	2025.753
221.738	18.016	2033.024	2023.953
222.753	17.839	2030.735	2019.318
223.767	18.049	2029.531	2020.376
224.782	17.992	2026.885	2016.832
225.796	18.018	2024.995	2015.011
226.811	18.066	2024.413	2014.767
227.826	18.067	2023.424	2013.555
228.840	18.028	2022.435	2011.868
229.855	18.003	2020.917	2009.822
230.869	18.003	2018.510	2007.180
231.884	17.961	2016.972	2004.920
232.899	17.965	2015.222	2002.981
233.913	17.877	2014.985	2001.471
234.928	18.027	2013.632	2001.659
235.942	18.151	2011.044	2000.302
236.957	18.070	2009.552	1997.627
237.972	18.033	2008.573	1995.980
238.986	17.967	2008.049	1994.441
240.001	18.069	2006.182	1993.542
241.015	17.968	2004.642	1990.596
242.030	18.385	2005.999	1996.591
243.045	20.003	2008.178	2017.483
244.059	20.158	2005.962	2016.831
245.074	18.628	1999.546	1992.292
246.088	18.102	1995.597	1981.992
247.103	18.133	1994.398	1980.917
248.117	18.058	1993.692	1979.115
249.132	18.037	1991.226	1976.179
250.147	18.163	1989.094	1975.295
251.161	17.996	1988.049	1972.077
252.176	18.153	1987.177	1972.798
253.190	18.376	1984.788	1972.773
254.205	18.310	1982.887	1969.889
255.220	18.191	1982.073	1967.470
256.234	18.125	1981.127	1965.528
257.249	18.021	1980.240	1963.210
258.263	18.022	1979.474	1962.230
259.278	17.998	1978.392	1960.640
260.293	18.090	1975.798	1958.894
261.307	18.025	1973.083	1955.224
262.322	17.987	1971.622	1953.105
263.336	17.814	1970.259	1949.533
264.351	17.833	1968.235	1947.512
265.366	17.861	1967.417	1946.790
266.380	17.904	1966.726	1946.371
267.395	17.904	1964.977	1944.413
268.409	17.944	1962.559	1942.240
269.424	17.995	1961.748	1941.783
270.439	18.038	1961.294	1941.599
271.453	18.551	1961.966	1947.885
272.468	20.152	1964.677	1968.635
273.482	20.262	1961.324	1966.293
274.497	18.651	1954.960	1941.374
275.512	18.095	1951.758	1931.650
276.526	18.041	1948.865	1927.939
277.541	17.835	1948.219	1924.732
278.555	17.953	1947.065	1924.696
279.570	17.804	1945.134	1920.878
280.585	17.975	1942.706	1920.179
281.599	18.100	1941.251	1919.921
282.614	18.153	1940.695	1919.739
283.628	18.115	1940.309	1918.703
284.643	18.114	1939.407	1917.570
285.657	18.232	1938.635	1917.909
286.672	18.430	1935.434	1916.739
287.687	18.209	1934.412	1913.008
288.701	18.166	1933.807	1911.698
289.716	18.117	1931.622	1908.766
290.730	18.204	1930.054	1907.956
291.745	18.299	1928.279	1907.039
292.760	18.291	1927.540	1905.995
293.774	18.075	1927.076	1902.886
294.789	18.261	1925.345	1903.033
295.803	18.251	1922.574	1899.948
296.818	17.999	1922.182	1896.523
297.833	18.036	1920.474	1895.022
298.847	18.062	1919.625	1894.248
299.862	18.033	1918.885	1892.966
300.876	18.321	1918.852	1895.917
301.891	20.214	1921.012	1918.895
302.906	20.502	1920.352	1921.208
303.920	18.798	1914.794	1896.518
304.935	18.167	1910.451	1885.000
305.949	18.150	1908.224	1882.399
306.964	18.032	1907.458	1880.107
307.979	18.069	1905.701	1878.564
308.993	18.107	1904.577	1877.651
310.008	18.276	1902.351	1877.089
311.022	18.191	1901.534	1875.123
312.037	18.283	1899.490	1873.899
313.052	18.362	1897.972	1873.048
314.066	18.182	1896.991	1869.874
315.081	18.158	1895.860	1868.272
316.095	18.129	1894.614	1866.499
317.110	18.090	1892.257	1863.525
318.125	18.009	1890.984	1861.163
319.139	18.090	1890.085	1860.942
320.154	18.094	1888.698	1859.396
321.168	18.248	1887.055	1859.236
322.183	18.109	1885.615	1856.079
323.197	17.978	1884.828	1853.653
324.212	17.837	1882.328	1849.441
325.227	17.889	1880.507	1848.000
326.241	17.759	1880.266	1846.124
327.256	18.088	1877.949	1847.206
328.270	18.094	1876.496	1845.617
329.285	17.959	1876.433	1843.863
330.300	18.638	1879.621	1854.159
331.314	20.562	1881.903	1877.088
332.329	20.308	1878.175	1870.398
333.343	18.553	1871.940	1845.000
334.358	18.126	1868.685	1836.960
335.373	17.998	1867.617	1834.305
336.387	17.979	1864.984	1831.296
337.402	17.844	1864.582	1829.231
338.416	17.922	1862.347	1827.660
339.431	18.010	1861.238	1827.291
340.446	18.121	1859.824	1826.876
341.460	18.168	1858.863	1826.222
342.475	18.292	1856.992	1825.496
343.489	18.257	1855.567	1823.506
344.504	18.254	1854.659	1822.362
345.519	18.262	1852.797	1820.398
346.533	18.251	1851.524	1818.810
347.548	18.332	1850.621	1818.573
348.562	18.216	1849.518	1816.033
349.577	18.374	1847.757	1815.770
350.592	18.449	1846.767	1815.377
351.606	18.352	1845.322	1812.702
352.621	18.200	1843.462	1809.052
353.635	18.052	1842.552	1806.360
354.650	17.955	1840.416	1803.028
355.665	17.885	1838.998	1800.677
356.679	18.025	1837.174	1800.157
357.694	18.173	1835.497	1799.863
358.708	17.965	1835.109	1797.071
359.723	18.730	1837.573	1807.370
360.738	20.495	1840.450	1828.667
361.752	20.073	1835.777	1819.357
362.767	18.468	1830.275	1796.780
363.781	18.090	1828.001	1790.359
364.796	17.977	1827.386	1788.345
365.810	17.975	1825.238	1786.015
366.825	18.043	1823.776	1785.079
367.840	18.112	1823.390	1785.210
368.854	18.053	1823.730	1784.709
369.869	18.038	1820.758	1781.438
370.883	17.989	1818.426	1778.423
371.898	17.953	1817.782	1777.212
372.913	18.086	1817.292	1777.907
373.927	17.966	1816.362	1775.525
374.942	17.911	1814.905	1773.323
375.956	18.180	1812.695	1773.747
376.971	18.026	1811.101	1770.382
377.986	17.930	1808.471	1766.597
379.000	17.976	1807.799	1766.210
380.015	18.125	1806.202	1765.977
381.029	18.222	1805.363	1765.960
382.044	18.139	1803.413	1762.981
383.059	17.961	1801.942	1759.488
384.073	17.891	1800.601	1757.244
385.088	17.930	1799.382	1756.239
386.102	17.955	1798.196	1755.138
387.117	17.866	1795.946	1751.810
388.132	17.744	1796.713	1751.090
389.146	18.443	1798.617	1759.958
390.161	20.513	1800.437	1782.889
391.175	20.243	1795.270	1774.789
392.190	18.384	1788.719	1749.029
393.205	17.957	1785.808	1741.601
394.219	18.005	1784.237	1740.353
395.234	18.041	1783.315	1739.617
396.248	18.071	1781.331	1737.775
397.263	18.009	1779.673	1735.323
398.278	17.962	1777.860	1732.866
399.292	17.984	1777.196	1732.234
400.307	18.199	1776.675	1733.705
401.321	18.149	1775.839	1732.181
402.336	18.199	1774.125	1730.808
403.350	18.106	1773.275	1728.822
404.365	18.205	1771.589	1727.983
405.380	18.389	1770.928	1728.992
406.394	18.374	1769.569	1727.309
407.409	18.045	1768.545	1722.773
408.423	18.426	1766.461	1724.387
409.438	18.371	1764.811	1722.014
410.453	18.303	1763.576	1719.917
411.467	18.272	1763.110	1718.944
412.482	18.223	1760.913	1716.101
413.496	18.143	1759.958	1714.155
414.511	18.202	1757.264	1711.927
415.526	18.048	1755.722	1708.668
416.540	17.984	1754.695	1706.824
417.555	18.111	1753.648	1706.869
418.569	17.990	1753.247	1705.069
419.584	18.111	1753.105	1705.938
420.599	17.988	1752.977	1704.377
421.613	18.008	1751.545	1702.982
422.628	18.023	1749.986	1701.405
423.642	18.134	1748.620	1700.986
424.657	17.944	1747.290	1697.588
425.672	17.914	1745.219	1695.074
426.686	17.865	1744.665	1693.847
427.701	17.853	1743.213	1692.110
428.715	17.917	1741.256	1690.653
429.730	17.927	1740.157	1689.478
430.745	18.029	1737.928	1688.129
431.759	18.097	1737.773	1688.450
432.774	18.164	1737.903	1689.034
433.788	18.147	1736.820	1687.610
434.803	18.164	1736.627	1687.395
435.818	17.962	1735.827	1684.409
436.832	17.987	1735.000	1683.654
437.847	17.176	1728.037	1668.689
438.861	9.920	1708.397	1578.467
439.876	1.884	1693.179	1485.718
440.890	0.266	1689.470	1466.468
441.905	0.147	1687.842	1463.713
442.920	0.103	1686.757	1462.167
443.934	0.061	1685.752	1460.716
444.949	0.189	1684.294	1460.525
445.963	0.095	1682.978	1458.287
446.978	0.027	1683.127	1457.584
447.993	0.066	1680.946	1455.898
449.007	0.110	1679.399	1454.812
450.022	0.169	1677.167	1453.276
451.036	0.137	1675.844	1451.643
452.051	1.223	1680.527	1466.082
453.066	9.176	1698.013	1558.985
454.080	16.561	1709.925	1642.044
455.095	17.847	1711.198	1655.613
456.109	18.061	1710.239	1656.572
457.124	18.037	1709.705	1655.630
458.139	18.000	1708.968	1654.358
459.153	18.047	1707.759	1653.442
460.168	18.062	1705.656	1651.352
461.182	18.035	1704.417	1649.699
462.197	18.009	1702.335	1647.227
463.212	17.998	1700.730	1645.370
464.226	18.063	1699.476	1644.592
465.241	17.994	1698.750	1643.027
466.255	18.119	1697.176	1642.513
467.270	18.006	1696.225	1640.311
468.285	17.968	1695.469	1639.017
469.299	18.005	1694.219	1637.968
470.314	17.958	1692.154	1635.323
471.328	18.038	1691.001	1634.775
472.343	18.099	1689.475	1633.693
473.358	18.254	1687.833	1633.402
474.372	18.020	1687.768	1630.899
475.387	17.945	1686.458	1628.713
476.401	18.155	1684.096	1628.249
477.416	18.071	1683.505	1626.680
478.430	18.178	1682.692	1626.726
479.445	17.957	1680.922	1622.706
480.460	18.004	1679.378	1621.466
481.474	17.966	1679.003	1620.546
482.489	18.154	1677.223	1620.425
483.503	18.105	1675.405	1618.016
484.518	18.120	1674.211	1616.808
485.533	18.177	1672.800	1615.791
486.547	18.272	1671.008	1614.766
487.562	18.259	1670.964	1614.408
488.576	18.199	1669.580	1612.308
489.591	18.152	1668.476	1610.607
490.606	18.125	1666.668	1608.410
491.620	18.138	1664.959	1606.693
492.635	18.155	1663.715	1605.463
493.649	18.178	1662.668	1604.479
494.664	18.030	1661.610	1601.873
495.679	18.078	1659.499	1600.096
496.693	18.089	1658.972	1599.502
497.708	18.005	1658.282	1597.856
498.722	18.084	1656.415	1596.599
499.737	18.137	1655.162	1595.700
500.752	18.006	1654.153	1593.311
501.766	18.038	1652.147	1591.484
502.781	17.987	1650.245	1588.992
503.795	18.082	1649.638	1589.099
504.810	18.020	1648.093	1586.840
505.825	18.010	1647.893	1586.364
506.839	18.198	1645.570	1585.689
507.854	18.191	1644.095	1584.014
508.868	18.124	1643.641	1582.768
509.883	17.983	1642.756	1580.412
510.898	18.064	1641.700	1579.961
511.912	18.095	1639.085	1577.546
512.927	18.063	1637.543	1575.571
513.941	18.058	1636.184	1574.033
514.956	18.140	1635.553	1573.990
515.971	18.059	1634.523	1572.063
516.985	18.143	1632.691	1570.892
518.000	18.088	1632.028	1569.558
519.014	17.998	1631.847	1568.368
520.029	18.135	1629.174	1566.870
521.043	18.138	1627.890	1565.475
522.058	17.996	1626.989	1563.120
523.073	18.217	1626.149	1564.153
524.087	18.196	1625.269	1562.927
525.102	18.262	1623.563	1561.701
526.116	18.094	1622.676	1559.120
527.131	18.120	1621.826	1558.362
528.146	18.202	1621.146	1558.268
529.160	18.266	1619.549	1557.136
530.175	18.268	1617.950	1555.431
531.189	18.095	1617.488	1553.215
532.204	18.144	1616.466	1552.498
533.219	18.129	1615.190	1550.948
534.233	17.967	1614.402	1548.527
535.248	18.209	1612.760	1548.977
536.262	18.217	1612.211	1548.334
537.277	18.296	1610.042	1546.783
538.292	18.210	1608.718	1544.545
539.306	18.280	1606.997	1543.342
540.321	18.226	1605.952	1541.666
541.335	18.226	1604.645	1540.229
542.350	18.299	1602.914	1539.039
543.365	18.156	1602.014	1536.699
544.379	18.224	1600.419	1535.603
545.394	18.227	1599.961	1535.005
546.408	18.341	1597.959	1533.924
547.423	18.140	1596.909	1530.923
548.438	18.172	1595.390	1529.571
549.452	18.258	1594.492	1529.302
550.467	18.327	1593.287	1528.584
551.481	18.175	1592.458	1526.238
552.496	18.250	1592.208	1526.488
553.511	18.337	1590.454	1525.407
554.525	18.255	1589.510	1523.582
555.540	18.294	1588.692	1522.964
556.554	18.378	1587.601	1522.487
557.569	18.222	1585.929	1519.310
558.583	18.298	1584.117	1518.069
559.598	18.130	1583.617	1515.911
560.613	18.047	1582.749	1514.164
561.627	18.178	1581.651	1514.093
562.642	18.189	1579.371	1511.832
563.656	18.338	1578.154	1511.806
564.671	18.269	1577.392	1510.284
565.686	18.111	1576.363	1507.713
566.700	18.264	1574.097	1506.725
567.715	18.304	1572.526	1505.393
568.729	18.094	1571.433	1502.307
569.744	18.183	1570.977	1502.481
570.759	18.220	1569.141	1500.873
571.773	18.192	1567.964	1499.315
572.788	18.066	1567.536	1497.618
573.802	18.157	1565.237	1496.048
574.817	18.163	1564.953	1495.646
575.832	18.285	1562.881	1494.562
576.846	18.200	1561.823	1492.619
577.861	18.202	1560.712	1491.397
578.875	18.287	1559.911	1491.196
579.890	18.451	1559.257	1491.833
580.905	18.450	1557.862	1490.308
581.919	18.344	1557.490	1488.847
582.934	18.417	1556.415	1488.278
583.948	18.390	1555.285	1486.784
584.963	18.302	1553.817	1484.437
585.978	18.155	1552.865	1482.069
586.992	18.447	1551.212	1482.857
588.007	18.410	1551.110	1482.257
589.021	18.387	1550.050	1480.871
590.036	18.274	1548.715	1478.435
591.051	18.391	1547.073	1477.707
592.065	18.372	1545.618	1475.972
593.080	18.327	1544.250	1474.105
594.094	18.585	1541.799	1473.814
595.109	18.380	1540.280	1470.415
596.123	18.222	1539.112	1467.765
597.138	18.256	1538.633	1467.427
598.153	18.461	1537.056	1467.511
599.167	18.350	1535.836	1465.217
600.182	18.231	1535.156	1463.366
601.196	18.459	1534.415	1464.445
602.211	18.244	1533.321	1461.380
603.226	18.310	1532.420	1460.908
604.240	18.338	1530.969	1459.594
605.255	18.442	1528.948	1458.378
606.269	18.267	1528.574	1456.358
607.284	18.293	1527.810	1455.677
608.299	18.345	1526.557	1454.753
609.313	18.387	1524.907	1453.359
610.328	18.405	1522.883	1451.416
611.342	18.291	1521.981	1449.411
612.357	18.247	1521.643	1448.535
613.372	18.386	1520.345	1448.313
614.386	18.180	1519.388	1445.479
615.401	18.453	1518.048	1446.347
616.415	18.381	1518.105	1445.616
617.430	18.357	1516.790	1443.989
618.445	18.485	1515.305	1443.482
619.459	18.322	1514.079	1440.766
620.474	18.318	1513.217	1439.735
621.488	18.185	1511.995	1437.282
622.503	18.236	1510.664	1436.275
623.518	18.206	1510.178	1435.382
624.532	18.204	1508.968	1434.046
625.547	18.263	1507.065	1432.564
626.561	18.396	1506.690	1433.150
627.576	18.375	1505.330	1431.509
628.591	18.280	1504.450	1429.705
629.605	18.380	1502.305	1428.334
630.620	18.450	1500.947	1427.458
631.634	18.359	1500.631	1426.224
632.649	18.426	1499.422	1425.468
633.663	18.320	1498.225	1423.274
634.678	18.355	1497.125	1422.347
635.693	18.408	1495.358	1420.942
636.707	18.385	1494.479	1419.746
637.722	18.554	1493.359	1419.914
638.736	18.424	1492.951	1418.275
639.751	18.528	1491.320	1417.423
640.766	18.580	1489.518	1415.975
641.780	18.551	1488.711	1414.794
642.795	18.379	1488.952	1413.426
643.809	18.628	1486.968	1413.436
644.824	18.410	1487.136	1411.626
645.839	18.512	1485.531	1410.771
646.853	18.513	1484.103	1409.254
647.868	18.512	1482.688	1407.738
648.882	18.483	1481.776	1406.462
649.897	18.465	1480.424	1404.861
650.912	18.475	1479.773	1404.156
651.926	18.355	1477.678	1401.015
652.941	18.516	1476.643	1401.189
653.955	18.480	1475.412	1399.556
654.970	18.352	1473.922	1396.929
655.985	18.554	1471.811	1396.418
656.999	18.542	1470.975	1395.353
658.014	18.644	1469.986	1395.085
659.028	18.512	1468.930	1392.836
660.043	18.497	1468.210	1391.866
661.058	18.497	1467.186	1390.727
662.072	18.453	1466.411	1389.467
663.087	18.695	1464.428	1389.389
664.101	18.460	1464.426	1387.314
665.116	18.533	1463.114	1386.495
666.131	18.440	1462.195	1384.703
667.145	18.556	1460.346	1383.726
668.160	18.446	1459.560	1381.930
669.174	18.685	1457.491	1381.740
670.189	18.513	1456.794	1379.523
671.204	18.509	1456.165	1378.729
672.218	18.414	1455.745	1377.393
673.233	18.540	1454.150	1376.739
674.247	18.596	1453.077	1376.011
675.262	18.778	1451.887	1376.187
676.276	18.611	1451.230	1374.053
677.291	18.565	1449.945	1372.301
678.306	18.646	1448.167	1371.106
679.320	18.605	1447.603	1370.081
680.335	18.549	1447.094	1368.982
681.349	18.667	1445.956	1368.687
682.364	18.508	1444.795	1366.154
683.379	18.522	1443.705	1365.072
684.393	18.517	1442.077	1363.327
685.408	18.442	1441.651	1362.165
686.422	18.615	1440.263	1362.065
687.437	18.498	1440.206	1360.916
688.452	18.491	1438.971	1359.529
689.466	18.447	1437.489	1357.621
690.481	18.398	1435.993	1355.652
691.495	18.398	1434.920	1354.478
692.510	18.327	1433.405	1352.321
693.525	18.360	1431.552	1350.670
694.539	18.333	1431.553	1350.302
695.554	18.280	1431.100	1349.288
696.568	18.534	1430.137	1350.230
697.583	18.392	1429.145	1348.010
698.598	18.446	1428.587	1347.747
699.612	18.518	1426.659	1346.340
700.627	18.740	1425.148	1346.502
701.641	18.580	1424.571	1344.534
702.656	18.577	1423.496	1343.333
703.671	18.647	1423.389	1343.626
704.685	18.714	1422.531	1343.182
705.700	18.601	1421.510	1341.166
706.714	18.530	1419.826	1338.857
707.729	18.567	1418.634	1337.862
708.744	18.574	1417.018	1336.237
709.758	18.575	1415.764	1334.898
710.773	18.494	1415.280	1333.652
711.787	18.592	1413.151	1332.252
712.802	18.432	1412.237	1329.983
713.816	18.539	1411.390	1329.864
714.831	18.525	1410.960	1329.187
715.846	18.701	1409.348	1328.877
716.860	18.720	1408.093	1327.684
717.875	18.732	1406.774	1326.378
718.889	18.697	1406.051	1325.264
719.904	18.811	1404.646	1324.666
720.919	18.716	1403.704	1322.881
721.933	18.722	1403.188	1322.285
722.948	18.670	1402.578	1321.149
723.962	18.726	1401.181	1320.108
724.977	18.878	1399.608	1319.637
725.992	18.825	1398.335	1317.874
727.006	18.642	1397.395	1315.421
728.021	18.672	1395.814	1314.002
729.035	18.689	1394.799	1313.019
730.050	18.807	1393.830	1312.856
731.065	18.641	1393.410	1311.028
732.079	18.738	1392.196	1310.477
733.094	18.744	1390.708	1308.963
734.108	18.645	1389.771	1307.164
735.123	18.825	1387.732	1306.470
736.138	18.767	1387.342	1305.503
737.152	18.804	1386.357	1304.704
738.167	18.748	1385.238	1303.067
739.181	18.893	1384.477	1303.296
740.196	18.853	1383.411	1301.833
741.211	18.655	1383.187	1299.963
742.225	18.684	1381.911	1298.829
743.240	18.651	1380.454	1297.052
744.254	18.558	1379.439	1295.237
745.269	18.708	1378.153	1295.012
746.284	18.549	1378.338	1293.825
747.298	18.473	1377.020	1291.858
748.313	18.440	1375.222	1289.762
749.327	18.354	1374.272	1288.069
750.342	18.354	1374.065	1287.721
751.356	18.363	1372.210	1285.901
752.371	18.321	1371.430	1284.692
753.386	18.629	1370.120	1285.634
754.400	18.646	1369.522	1285.051
755.415	18.775	1368.225	1284.646
756.429	18.674	1367.622	1283.171
757.444	18.552	1366.438	1280.987
758.459	18.855	1364.702	1281.475
759.473	18.784	1364.083	1280.215
760.488	18.801	1362.835	1279.013
761.502	18.838	1361.940	1278.298
762.517	18.810	1361.024	1277.074
763.532	18.748	1359.242	1274.792
764.546	18.634	1359.156	1273.706
765.561	18.695	1357.889	1272.819
766.575	18.582	1356.798	1270.804
767.590	18.694	1354.942	1269.748
768.605	18.749	1353.906	1269.029
769.619	18.654	1353.035	1267.354
770.634	18.742	1352.044	1266.932
771.648	18.793	1350.955	1266.135
772.663	18.807	1350.362	1265.533
773.678	18.811	1349.937	1265.008
774.692	18.660	1349.420	1263.255
775.707	18.828	1348.742	1263.715
776.721	18.974	1347.246	1263.244
777.736	18.863	1346.893	1261.942
778.751	18.814	1345.855	1260.453
779.765	18.739	1344.721	1258.692
780.780	18.627	1344.111	1257.145
781.794	18.775	1342.665	1256.726
782.809	18.796	1341.354	1255.506
783.824	18.665	1340.498	1253.594
784.838	18.470	1338.592	1250.230
785.853	18.253	1338.162	1248.089
786.867	18.408	1337.232	1248.202
787.882	18.509	1336.817	1248.405
788.897	18.459	1335.813	1246.951
789.911	18.461	1335.302	1246.347
790.926	18.595	1334.066	1246.020
791.940	18.509	1332.652	1243.926
792.955	18.714	1330.890	1243.624
793.969	18.763	1329.594	1242.618
794.984	18.697	1329.001	1241.433
795.999	18.754	1328.256	1241.008
797.013	18.861	1326.257	1239.767
798.028	18.784	1324.607	1237.520
799.042	18.822	1324.637	1237.674
800.057	18.843	1324.024	1237.101
801.072	18.807	1321.858	1234.671
802.086	18.854	1320.933	1234.000
803.101	18.860	1320.138	1233.149
804.115	18.825	1319.280	1231.951
805.130	18.852	1318.347	1231.127
806.145	18.838	1317.072	1229.683
807.159	18.994	1315.378	1229.078
808.174	18.840	1314.761	1227.251
809.188	18.795	1313.131	1225.257
810.203	18.751	1311.955	1223.701
811.218	18.818	1310.241	1222.435
812.232	18.680	1309.212	1220.344
813.247	18.688	1308.491	1219.581
814.261	18.683	1307.416	1218.396
815.276	18.784	1306.922	1218.512
816.291	18.859	1306.304	1218.326
817.305	18.907	1305.254	1217.537
818.320	18.704	1304.400	1215.153
819.334	18.733	1302.849	1213.767
820.349	18.781	1301.632	1212.828
821.364	18.927	1299.681	1211.899
822.378	18.933	1298.364	1210.568
823.393	18.823	1296.878	1208.260
824.407	18.798	1296.213	1207.323
825.422	18.704	1296.087	1206.395
826.437	18.744	1294.868	1205.401
827.451	18.760	1292.600	1203.255
828.466	18.453	1291.342	1199.779
829.480	18.477	1289.541	1198.136
830.495	18.535	1287.410	1196.417
831.509	18.622	1287.181	1196.672
832.524	18.695	1286.661	1196.553
833.539	18.647	1285.338	1194.846
834.553	18.853	1284.257	1195.136
835.568	18.799	1283.303	1193.733
836.582	18.792	1282.619	1192.903
837.597	18.899	1281.162	1192.153
838.612	18.897	1279.380	1190.337
839.626	18.829	1278.748	1189.130
840.641	18.784	1277.944	1187.930
841.655	18.940	1276.832	1187.840
842.670	18.799	1275.966	1185.908
843.685	18.638	1274.486	1183.275
844.699	18.687	1274.118	1183.134
845.714	18.832	1272.661	1182.644
846.728	18.816	1271.358	1181.177
847.743	18.858	1271.114	1181.103
848.758	18.801	1269.775	1179.325
849.772	18.930	1267.635	1178.081
850.787	18.889	1266.472	1176.580
851.801	18.860	1265.578	1175.407
852.816	18.802	1264.314	1173.695
853.831	18.772	1262.422	1171.596
854.845	18.733	1260.590	1169.482
855.860	18.710	1259.825	1168.477
856.874	18.626	1258.903	1166.906
857.889	18.600	1257.818	1165.587
858.904	18.642	1255.774	1163.835
859.918	18.455	1254.244	1161.005
860.933	18.355	1253.497	1159.498
861.947	18.506	1252.674	1159.620
862.962	18.641	1251.115	1158.959
863.977	18.492	1250.426	1157.170
864.991	18.648	1249.983	1157.678
866.006	18.737	1249.540	1157.733
867.020	18.881	1248.075	1157.216
868.035	18.771	1247.424	1155.725
869.049	18.870	1245.967	1154.906
870.064	19.007	1244.592	1154.418
871.079	18.864	1243.877	1152.656
872.093	19.080	1243.053	1153.204
873.108	18.897	1242.737	1151.543
874.122	18.848	1241.521	1149.948
875.137	18.914	1240.953	1149.730
876.152	18.880	1239.430	1147.953
877.166	18.871	1238.384	1146.789
878.181	19.002	1237.217	1146.443
879.195	19.159	1236.225	1146.437
880.210	18.944	1235.836	1144.506
881.225	18.988	1234.629	1143.546
882.239	18.982	1233.871	1142.661
883.254	19.061	1232.746	1142.011
884.268	18.977	1231.716	1140.360
885.283	18.941	1230.623	1138.976
886.298	18.916	1229.250	1137.404
887.312	18.944	1228.300	1136.573
888.327	19.019	1227.285	1135.997
889.341	18.930	1226.289	1134.345
890.356	18.728	1225.609	1132.240
891.371	18.891	1225.033	1132.651
892.385	18.865	1224.289	1131.661
893.400	18.826	1223.019	1130.093
894.414	18.857	1221.673	1128.917
895.429	18.727	1219.732	1126.128
896.444	18.567	1217.989	1123.336
897.458	18.485	1217.242	1121.970
898.473	18.780	1216.778	1123.347
899.487	18.721	1216.358	1122.436
900.502	18.952	1214.807	1122.386
901.517	19.073	1213.718	1122.043
902.531	18.934	1213.333	1120.638
903.546	18.973	1213.101	1120.547
904.560	18.962	1212.662	1119.937
905.575	19.134	1211.151	1119.531
906.589	19.153	1209.887	1118.350
907.604	19.160	1209.466	1117.875
