DTS Sentinel unit serial number:	SN409020Multiplexer serial number:	ORYXHardware model number:	OX4-SRSoftware version number:	ORYX F/W v3.00 Oryx Data Collector v3.7.2.0data status	okinstallation	HaddamTimeLapsedifferential loss correction	single-endedforward channel	channel 3reverse channel	N/Adate	2011/06/22time	01:56:17forward acquisition time	30.00reverse acquisition time	0.00gamma	498.7831k internal	0.1751k external	0.1751temperature offset calibration	1.0074default loss term (dB/km)	0.3790temperature slope calibration	1.3530multiplexer offset coefficient	1.0000multiplexer slope coefficient	1.0000fibre end	0.00T internal ref (°C)	22.44T ext. ref 1 (°C)	17.71T ext. ref 2 (°C)	0.01length (m)	temperature (°C)	Stokes	anti-Stokes-747.200	182.312	-0.197	-0.387
-746.185	-200.000	0.022	0.430
-745.171	800.000	-0.031	-0.159
-744.156	-189.684	-0.137	0.002
-743.142	-166.082	-0.212	0.012
-742.127	-166.688	0.323	0.018
-741.112	-72.531	0.172	0.084
-740.098	-187.201	-0.313	-0.006
-739.083	119.259	0.112	0.184
-738.069	223.354	0.248	0.532
-737.054	-19.570	-0.105	-0.086
-736.039	-185.886	0.193	-0.004
-735.025	67.812	-0.032	-0.044
-734.010	116.145	0.197	0.321
-732.996	-60.087	-0.149	0.084
-731.981	-162.650	-0.360	0.023
-730.966	152.002	0.223	-0.405
-729.952	-113.865	-0.416	-0.107
-728.937	64.586	0.271	-0.363
-727.923	-37.118	0.066	0.047
-726.908	-86.564	0.274	-0.111
-725.894	2.723	-0.094	0.090
-724.879	5.656	0.404	-0.396
-723.864	316.307	-0.015	-0.037
-722.850	-106.197	-0.532	0.157
-721.835	-162.681	-0.322	0.021
-720.821	250.919	0.043	0.097
-719.806	426.121	0.081	-0.233
-718.791	619.748	0.066	-0.220
-717.777	124.465	0.180	-0.301
-716.762	-34.321	0.149	0.108
-715.748	81.040	-0.064	0.092
-714.733	-200.000	0.115	0.693
-713.718	20.302	-0.176	-0.189
-712.704	434.809	-0.077	0.224
-711.689	215.914	0.102	0.215
-710.675	-96.880	0.223	-0.077
-709.660	-78.376	-0.178	-0.080
-708.645	699.935	0.102	-0.357
-707.631	61.286	0.226	-0.299
-706.616	9.322	-0.419	-0.420
-705.602	97.121	0.189	-0.288
-704.587	-108.925	-0.372	0.105
-703.572	-115.488	-0.515	-0.128
-702.558	-200.000	-0.016	-0.299
-701.543	218.981	0.100	-0.212
-700.529	177.015	0.262	0.508
-699.514	418.025	0.010	0.028
-698.499	-32.404	0.328	-0.242
-697.485	163.485	-0.331	-0.619
-696.470	108.215	0.129	0.205
-695.456	-113.053	-0.288	0.075
-694.441	-137.057	-0.445	0.067
-693.426	28.080	0.160	-0.179
-692.412	139.812	0.213	0.373
-691.397	-101.542	0.119	-0.038
-690.383	173.686	-0.070	-0.135
-689.368	92.280	0.087	0.131
-688.354	106.552	-0.037	-0.058
-687.339	-200.000	-0.019	-0.328
-686.324	-101.063	-0.416	0.134
-685.310	-71.887	-0.251	0.124
-684.295	-77.698	-0.276	0.126
-683.281	-189.364	0.166	0.003
-682.266	521.047	0.059	-0.186
-681.251	-200.000	-0.008	0.288
-680.237	-200.000	-0.011	0.491
-679.222	44.643	-0.119	-0.146
-678.208	-67.652	0.323	-0.167
-677.193	103.517	0.160	-0.250
-676.178	249.607	-0.223	-0.502
-675.164	-16.118	0.314	0.264
-674.149	63.626	-0.275	-0.366
-673.135	47.843	0.437	-0.541
-672.120	-181.451	-0.385	-0.010
-671.105	-160.797	-0.161	-0.011
-670.091	-200.000	0.041	-0.315
-669.076	-22.677	0.306	-0.244
-668.062	-2.110	0.197	0.183
-667.047	-95.047	-0.159	0.057
-666.032	-10.040	0.319	0.280
-665.018	390.417	-0.072	-0.199
-664.003	-50.931	0.151	0.093
-662.989	-176.587	-0.514	0.017
-661.974	800.000	0.099	-0.545
-660.959	42.671	0.264	0.319
-659.945	46.076	-0.392	-0.482
-658.930	61.925	-0.050	0.065
-657.916	-15.336	0.280	0.236
-656.901	76.012	-0.138	-0.193
-655.886	-186.240	-0.495	0.009
-654.872	800.000	-0.060	0.255
-653.857	88.915	-0.196	-0.289
-652.843	800.000	0.030	-0.140
-651.828	33.923	-0.224	-0.258
-650.814	-88.122	-0.339	0.134
-649.799	196.880	-0.057	-0.115
-648.784	-152.528	0.394	-0.037
-647.770	176.929	-0.257	0.497
-646.755	-57.890	0.305	0.176
-645.741	-3.459	-0.135	-0.125
-644.726	-200.000	0.024	0.478
-643.711	58.984	-0.378	-0.493
-642.697	1.588	0.174	0.166
-641.682	49.913	-0.229	-0.286
-640.668	-200.000	0.046	-0.319
-639.653	91.190	0.196	0.291
-638.638	-122.044	0.484	0.104
-637.624	800.000	0.082	0.374
-636.609	-6.727	0.022	-0.020
-635.595	173.337	-0.060	-0.115
-634.580	132.558	-0.047	-0.080
-633.565	-9.725	-0.122	0.107
-632.551	-200.000	-0.026	0.245
-631.536	-171.886	0.215	-0.009
-630.522	800.000	0.055	0.296
-629.507	-199.815	-0.344	0.002
-628.492	-12.523	-0.111	-0.096
-627.478	-43.134	-0.357	-0.239
-626.463	9.099	-0.224	-0.224
-625.449	-184.856	-0.149	0.003
-624.434	56.095	-0.264	-0.339
-623.419	185.279	-0.081	0.160
-622.405	76.841	-0.136	0.190
-621.390	-43.278	0.188	-0.126
-620.376	420.347	0.141	0.400
-619.361	-13.416	0.207	-0.177
-618.346	-109.625	0.314	-0.087
-617.332	-96.396	-0.053	0.018
-616.317	800.000	0.042	0.159
-615.303	-144.618	-0.132	0.016
-614.288	42.131	-0.216	0.259
-613.273	800.000	0.080	-0.318
-612.259	-186.339	-0.127	0.002
-611.244	-101.584	0.352	0.112
-610.230	-113.946	-0.454	-0.116
-609.215	-200.000	-0.003	0.069
-608.201	118.755	-0.162	0.265
-607.186	-200.000	-0.020	0.199
-606.171	-9.558	0.144	-0.127
-605.157	-200.000	-0.016	-0.170
-604.142	-200.000	0.018	0.166
-603.128	-42.816	0.235	-0.158
-602.113	131.665	0.449	-0.764
-601.098	-81.485	-0.207	-0.090
-600.084	-119.645	-0.108	0.024
-599.069	-56.858	0.063	-0.037
-598.055	-100.155	-0.493	0.161
-597.040	104.486	0.028	0.044
-596.025	179.101	0.264	0.512
-595.011	45.746	-0.504	0.616
-593.996	-51.183	-0.267	0.165
-592.982	224.660	0.227	0.487
-591.967	-200.000	0.018	0.196
-590.952	-143.014	0.131	0.017
-589.938	204.207	0.022	0.045
-588.923	-54.608	-0.170	-0.102
-587.909	-104.882	0.679	0.204
-586.894	-37.819	0.215	0.151
-585.879	-61.466	-0.069	-0.038
-584.865	178.275	0.104	0.201
-583.850	22.851	-0.271	-0.293
-582.836	-48.690	0.424	0.268
-581.821	-96.211	0.559	-0.195
-580.806	-34.940	0.093	0.067
-579.792	106.845	-0.118	0.185
-578.777	-66.477	0.244	-0.128
-577.763	-72.849	0.288	0.139
-576.748	-117.510	-0.119	0.028
-575.733	81.152	-0.090	0.129
-574.719	-87.144	0.339	0.135
-573.704	-141.426	0.017	-0.002
-572.690	-158.542	-0.446	0.034
-571.675	-144.730	-0.437	0.052
-570.661	440.629	-0.127	-0.369
-569.646	286.896	0.216	0.516
-568.631	-127.666	-0.085	-0.016
-567.617	84.739	-0.478	-0.692
-566.602	154.476	0.059	-0.107
-565.588	-104.025	0.258	0.079
-564.573	-39.730	0.302	-0.208
-563.558	-85.048	-0.314	0.129
-562.544	-54.432	-0.224	-0.134
-561.529	-56.303	0.282	0.165
-560.515	68.921	0.061	0.083
-559.500	-157.308	0.523	-0.041
-558.485	-84.226	0.186	-0.077
-557.471	-136.596	-0.199	0.030
-556.456	117.800	0.091	0.148
-555.442	-200.000	-0.008	0.119
-554.427	-28.229	-0.148	-0.112
-553.412	-160.616	0.182	0.013
-552.398	-127.003	-0.235	-0.045
-551.383	545.457	0.067	-0.211
-550.369	-71.750	0.392	-0.192
-549.354	13.620	-0.102	0.104
-548.339	-87.704	0.243	-0.096
-547.325	-51.514	0.096	0.059
-546.310	55.355	-0.066	0.084
-545.296	-17.264	0.516	-0.428
-544.281	-162.071	-0.236	0.015
-543.266	-75.064	0.447	0.210
-542.252	-62.364	-0.178	-0.097
-541.237	319.710	0.139	-0.349
-540.223	-82.130	0.526	-0.225
-539.208	319.724	0.187	0.470
-538.193	-101.925	0.109	-0.034
-537.179	-121.962	-0.249	-0.053
-536.164	-200.000	0.021	0.159
-535.150	-152.940	-0.140	0.013
-534.135	-200.000	-0.152	1.119
-533.121	-82.138	-0.374	0.160
-532.106	-24.621	-0.524	0.410
-531.091	-119.427	-0.298	0.068
-530.077	-139.522	0.414	0.058
-529.062	247.200	0.088	0.196
-528.048	-200.000	-0.018	0.320
-527.033	61.923	0.272	-0.357
-526.018	441.070	0.042	-0.122
-525.004	-109.854	0.347	-0.095
-523.989	-195.191	0.364	-0.004
-522.975	-64.576	0.095	0.050
-521.960	-200.000	0.058	-0.381
-520.945	75.883	-0.087	0.121
-519.931	-38.223	0.454	-0.316
-518.916	-200.000	-0.052	-0.398
-517.902	59.076	-0.150	0.194
-516.887	80.439	0.148	0.210
-515.872	37.849	-0.104	0.122
-514.858	-108.262	-0.174	-0.049
-513.843	86.451	-0.446	0.648
-512.829	427.353	0.216	0.617
-511.814	-200.000	-0.010	0.312
-510.799	800.000	-0.117	0.670
-509.785	8.339	-0.175	-0.173
-508.770	-112.918	-0.206	-0.053
-507.756	-6.704	-0.190	0.170
-506.741	-69.968	0.281	0.140
-505.726	-103.765	-0.234	0.072
-504.712	-109.725	-0.255	0.070
-503.697	87.544	0.025	-0.036
-502.683	711.368	-0.060	-0.212
-501.668	80.397	0.192	0.272
-500.653	-103.793	-0.422	-0.129
-499.639	-67.247	0.553	-0.285
-498.624	202.287	0.202	-0.412
-497.610	-54.511	0.288	0.171
-496.595	33.348	0.525	0.600
-495.581	12.366	-0.104	0.106
-494.566	-107.156	0.336	0.097
-493.551	-139.567	0.290	0.040
-492.537	1.292	-0.087	-0.082
-491.522	-49.176	0.233	-0.146
-490.508	-170.379	0.162	-0.007
-489.493	331.291	-0.235	-0.599
-488.478	-54.484	-0.320	-0.190
-487.464	-48.225	0.157	-0.100
-486.449	-170.777	0.095	-0.004
-485.435	240.240	-0.025	-0.055
-484.420	204.251	0.100	0.204
-483.405	16.739	0.310	0.323
-482.391	-172.951	0.171	-0.007
-481.376	800.000	-0.033	0.148
-480.362	-151.717	-0.700	0.067
-479.347	-144.393	-0.391	-0.047
-478.332	-168.494	0.322	-0.016
-477.318	-31.812	-0.288	-0.212
-476.303	-153.115	0.433	-0.039
-475.289	800.000	-0.080	-0.330
-474.274	117.009	-0.173	-0.280
-473.259	-113.760	-0.300	0.076
-472.245	-46.487	-0.534	-0.344
-471.230	75.349	-0.066	-0.091
-470.216	-178.197	0.497	-0.015
-469.201	-113.862	0.504	0.128
-468.186	224.064	0.165	-0.351
-467.172	-134.796	0.155	0.024
-466.157	278.538	0.196	0.461
-465.143	-172.333	-0.230	0.009
-464.128	-0.671	0.356	0.331
-463.113	800.000	-0.103	0.440
-462.099	-110.188	0.316	-0.086
-461.084	-200.000	0.023	-0.184
-460.070	518.648	-0.094	-0.291
-459.055	-153.139	-0.350	-0.032
-458.040	-102.781	-0.158	0.049
-457.026	467.124	0.055	0.163
-456.011	217.137	0.179	0.377
-454.997	-179.209	-0.129	-0.004
-453.982	37.615	-0.261	-0.305
-452.968	-71.075	0.434	0.213
-451.953	-200.000	-0.041	0.267
-450.938	-144.196	0.092	0.011
-449.924	-165.051	0.540	-0.031
-448.909	668.701	0.068	0.232
-447.895	-72.245	-0.244	0.118
-446.880	150.877	-0.013	-0.023
-445.865	420.825	0.107	-0.304
-444.851	-55.633	0.404	-0.236
-443.836	23.962	0.241	0.261
-442.822	61.856	0.092	0.120
-441.807	350.670	0.170	0.443
-440.792	800.000	-0.083	0.363
-439.778	112.477	-0.062	-0.098
-438.763	-144.582	-0.130	0.016
-437.749	-28.675	-0.263	-0.198
-436.734	-160.666	-0.090	0.006
-435.719	-142.316	0.213	-0.027
-434.705	-155.570	0.181	0.015
-433.690	38.016	-0.343	0.401
-432.676	50.744	-0.337	-0.419
-431.661	142.983	-0.183	-0.320
-430.646	268.193	0.138	-0.317
-429.632	800.000	-0.018	-0.101
-428.617	-200.000	0.023	-0.141
-427.603	-140.638	0.409	0.055
-426.588	-12.511	0.379	-0.325
-425.573	-36.331	0.153	-0.108
-424.559	606.032	0.077	-0.255
-423.544	272.809	-0.079	-0.183
-422.530	-111.675	-0.602	0.159
-421.515	696.020	-0.042	-0.146
-420.500	-95.012	-0.216	0.076
-419.486	800.000	-0.072	0.265
-418.471	800.000	-0.031	0.129
-417.457	-96.598	-0.033	0.011
-416.442	348.837	0.138	0.359
-415.428	77.688	-0.208	-0.292
-414.413	-200.000	0.069	0.530
-413.398	-67.754	0.345	0.176
-412.384	19.045	0.274	0.288
-411.369	-200.000	0.034	0.571
-410.355	-119.292	0.092	-0.021
-409.340	-76.247	0.138	-0.064
-408.325	238.111	-0.126	0.276
-407.311	800.000	-0.066	-0.284
-406.296	37.413	-0.047	-0.055
-405.282	84.745	-0.148	-0.212
-404.267	-107.528	-0.209	0.060
-403.252	-12.345	0.191	0.163
-402.238	-160.504	-0.292	0.020
-401.223	-134.767	0.434	-0.068
-400.209	-80.579	0.169	-0.073
-399.194	800.000	-0.040	-0.182
-398.179	-69.206	-0.518	-0.260
-397.165	-87.480	0.307	-0.121
-396.150	800.000	0.052	-0.294
-395.136	362.758	-0.030	0.080
-394.121	177.842	0.220	0.421
-393.106	-19.972	0.137	-0.110
-392.092	-52.369	0.123	-0.075
-391.077	151.408	0.109	-0.195
-390.063	282.032	0.106	0.249
-389.048	-156.133	0.304	0.025
-388.033	-200.000	0.011	0.096
-387.019	-151.645	-0.420	0.040
-386.004	-114.443	-0.634	-0.159
-384.990	-137.972	-0.210	-0.030
-383.975	46.887	0.109	0.133
-382.960	-156.642	-0.682	-0.055
-381.946	-46.508	0.281	-0.180
-380.931	-70.763	0.393	0.193
-379.917	26.749	-0.052	-0.057
-378.902	-95.752	-0.723	-0.252
-377.888	584.812	-0.066	0.213
-376.873	-171.349	-0.231	0.010
-375.858	-58.613	0.312	-0.176
-374.844	327.735	-0.132	0.332
-373.829	-54.951	0.340	0.200
-372.815	-200.000	-0.057	-0.583
-371.800	-0.488	-0.124	-0.115
-370.785	289.910	0.291	-0.693
-369.771	-50.577	-0.265	-0.163
-368.756	161.265	-0.072	-0.132
-367.742	800.000	0.099	0.529
-366.727	452.256	0.119	-0.346
-365.712	-145.454	-0.335	-0.039
-364.698	753.285	-0.023	-0.082
-363.683	-200.000	0.026	0.246
-362.669	-21.267	0.457	-0.365
-361.654	-140.351	0.158	-0.021
-360.639	638.464	-0.092	-0.307
-359.625	-46.036	-0.188	-0.121
-358.610	520.543	-0.172	0.529
-357.596	441.922	0.137	0.394
-356.581	-78.461	0.596	0.266
-355.566	-200.000	-0.010	0.478
-354.552	-59.012	-0.129	0.073
-353.537	-102.261	-0.259	0.081
-352.523	-94.059	0.409	0.146
-351.508	-11.822	0.277	-0.237
-350.493	-200.000	0.013	0.127
-349.479	800.000	-0.068	0.336
-348.464	523.568	0.106	0.328
-347.450	-200.000	-0.099	-0.656
-346.435	800.000	-0.011	0.050
-345.420	-10.767	-0.173	0.150
-344.406	-25.143	0.267	-0.206
-343.391	760.268	-0.041	0.145
-342.377	-130.229	-0.846	0.149
-341.362	-200.000	0.033	0.304
-340.348	157.861	0.163	0.296
-339.333	-45.101	-0.402	-0.260
-338.318	-139.007	-0.683	0.096
-337.304	-152.840	0.249	-0.023
-336.289	-142.185	0.147	0.019
-335.275	318.686	-0.129	-0.321
-334.260	-200.000	-0.007	-0.517
-333.245	-35.793	-0.266	-0.188
-332.231	159.952	-0.214	-0.390
-331.216	-114.138	0.248	0.062
-330.202	209.690	-0.164	-0.336
-329.187	-113.652	0.369	0.093
-328.172	89.372	0.184	0.269
-327.158	22.377	-0.214	0.228
-326.143	-47.127	0.240	0.153
-325.129	-200.000	-0.001	0.021
-324.114	-109.287	-0.189	0.052
-323.099	172.559	-0.153	0.288
-322.085	-132.061	-0.118	0.020
-321.070	780.844	-0.100	0.360
-320.056	-117.356	0.175	0.041
-319.041	304.981	-0.156	-0.380
-318.026	249.303	-0.174	-0.388
-317.012	329.819	-0.105	-0.265
-315.997	-29.424	-0.183	-0.136
-314.983	129.837	0.193	-0.323
-313.968	262.226	0.182	-0.413
-312.953	142.130	-0.243	-0.423
-311.939	-130.487	-0.162	-0.028
-310.924	-85.294	0.656	-0.266
-309.910	164.086	0.248	-0.458
-308.895	-95.317	-0.301	0.105
-307.880	-61.859	-0.601	0.327
-306.866	-88.377	0.164	-0.063
-305.851	5.523	-0.175	0.169
-304.837	-91.950	0.202	-0.074
-303.822	-28.096	-0.242	-0.183
-302.807	-145.228	0.280	-0.033
-301.793	800.000	0.063	0.262
-300.778	-57.728	0.320	0.182
-299.764	-49.035	0.197	-0.122
-298.749	-27.188	-0.176	0.133
-297.735	-76.347	-0.624	0.285
-296.720	25.627	-0.289	-0.314
-295.705	-114.132	-0.844	0.211
-294.691	123.051	0.175	0.286
-293.676	221.553	0.118	0.248
-292.662	21.143	0.345	-0.366
-291.647	-25.705	0.142	0.109
-290.632	-71.454	-0.322	0.157
-289.618	-11.037	-0.233	0.200
-288.603	-98.813	0.234	0.077
-287.589	24.798	0.152	0.165
-286.574	-200.000	-0.037	-0.272
-285.559	-113.948	-0.348	0.087
-284.545	-9.262	-0.217	-0.189
-283.530	800.000	0.018	-0.086
-282.516	-1.072	-0.069	0.063
-281.501	49.608	-0.201	0.247
-280.486	-165.528	-0.052	0.003
-279.472	-178.215	-0.140	-0.004
-278.457	44.759	-0.252	-0.303
-277.443	404.889	0.060	0.165
-276.428	-200.000	-0.029	-0.374
-275.413	159.722	0.139	-0.253
-274.399	-66.872	0.484	0.249
-273.384	8.597	-0.138	0.136
-272.370	66.186	-0.192	0.255
-271.355	800.000	-0.022	-0.123
-270.340	-155.575	0.114	-0.009
-269.326	-150.874	0.305	-0.030
-268.311	-29.514	0.167	-0.124
-267.297	-85.911	0.220	0.089
-266.282	-112.249	0.484	0.126
-265.267	800.000	0.154	-0.647
-264.253	-93.724	-0.379	-0.136
-263.238	-140.472	0.385	-0.052
-262.224	-41.876	0.244	-0.163
-261.209	153.433	-0.325	-0.582
-260.195	-69.505	0.274	-0.136
-259.180	87.523	-0.221	0.319
-258.165	128.524	0.062	-0.103
-257.151	-62.043	-0.156	-0.085
-256.136	-180.354	-0.095	-0.003
-255.122	-183.239	-0.311	0.007
-254.107	736.071	0.101	0.355
-253.092	141.812	-0.072	0.125
-252.078	435.802	0.076	0.217
-251.063	-123.942	0.197	-0.040
-250.049	239.921	0.121	-0.264
-249.034	525.674	0.129	-0.398
-248.019	44.250	0.089	-0.107
-247.005	-120.732	0.287	0.063
-245.990	-93.836	0.070	0.025
-244.976	47.532	-0.095	-0.116
-243.961	-97.221	0.178	-0.060
-242.946	-38.628	-0.115	-0.079
-241.932	800.000	0.054	-0.210
-240.917	800.000	0.036	0.165
-239.903	78.249	-0.315	-0.438
-238.888	71.400	-0.362	-0.490
-237.873	-200.000	-0.009	0.078
-236.859	-168.871	0.370	0.018
-235.844	-200.000	-0.055	0.405
-234.830	800.000	-0.050	0.207
-233.815	-30.470	0.233	-0.172
-232.800	-59.720	0.258	0.143
-231.786	-125.619	-0.329	0.064
-230.771	140.601	-0.178	-0.307
-229.757	19.066	0.163	0.170
-228.742	25.434	-0.350	-0.379
-227.727	708.776	-0.220	-0.761
-226.713	800.000	0.047	0.197
-225.698	-57.947	0.131	-0.074
-224.684	-146.860	0.130	0.014
-223.669	-104.239	0.079	-0.024
-222.655	800.000	-0.027	0.108
-221.640	800.000	0.054	-0.286
-220.625	106.142	-0.316	0.488
-219.611	-106.151	-0.314	0.091
-218.596	33.738	-0.334	0.378
-217.582	-77.859	-0.158	-0.071
-216.567	487.381	0.054	-0.161
-215.552	-99.885	-0.214	0.069
-214.538	-79.044	-0.422	-0.186
-213.523	-69.776	0.262	0.130
-212.509	85.543	0.341	-0.488
-211.494	-56.994	-0.346	-0.198
-210.479	131.915	0.340	0.570
-209.465	-15.764	0.358	0.296
-208.450	87.303	-0.313	0.451
-207.436	-38.931	0.262	0.179
-206.421	79.539	0.073	-0.102
-205.406	-55.856	0.157	-0.091
-204.392	168.620	0.343	-0.637
-203.377	-158.627	-0.530	0.039
-202.363	800.000	0.109	-0.598
-201.348	-18.858	0.236	-0.191
-200.333	800.000	-0.061	-0.326
-199.319	-200.000	0.022	-0.142
-198.304	-95.619	-0.538	-0.186
-197.290	-200.000	0.067	-0.416
-196.275	-102.227	0.217	-0.067
-195.260	436.113	0.045	-0.128
-194.246	-200.000	-0.029	-0.326
-193.231	-106.275	0.304	0.088
-192.217	-200.000	0.017	0.359
-191.202	-54.626	-0.230	-0.135
-190.187	-2.350	-0.058	-0.052
-189.173	27.575	-0.176	0.193
-188.158	117.952	-0.422	0.678
-187.144	532.492	-0.107	0.331
-186.129	800.000	0.093	0.496
-185.114	19.574	-0.347	0.363
-184.100	800.000	0.044	-0.205
-183.085	800.000	-0.101	-0.564
-182.071	45.291	0.065	0.078
-181.056	-37.304	0.122	-0.084
-180.042	-97.782	0.250	-0.083
-179.027	103.748	0.430	-0.658
-178.012	229.714	-0.136	-0.289
-176.998	25.852	-0.266	-0.289
-175.983	52.733	0.139	0.173
-174.969	800.000	0.018	0.080
-173.954	-153.793	-0.160	-0.014
-172.939	-150.576	0.731	-0.072
-171.925	-24.807	-0.195	-0.150
-170.910	156.831	0.216	-0.389
-169.896	55.008	0.327	-0.411
-168.881	-85.623	0.339	-0.136
-167.866	12.025	0.288	-0.288
-166.852	-58.117	-0.431	0.243
-165.837	-89.489	-0.275	0.104
-164.823	-86.194	-0.536	-0.214
-163.808	-53.855	0.634	0.374
-162.793	-45.639	-0.394	0.253
-161.779	-200.000	-0.081	0.548
-160.764	-108.715	-0.756	0.209
-159.750	-200.000	-0.432	0.002
-158.735	-25.605	-0.322	-0.247
-157.720	-40.054	-0.404	0.272
-156.706	-74.220	0.437	0.204
-155.691	-23.894	-0.054	-0.042
-154.677	-123.331	-0.149	-0.031
-153.662	-39.654	-0.505	-0.343
-152.647	114.521	-0.099	0.157
-151.633	99.804	0.170	-0.257
-150.618	800.000	0.056	0.309
-149.604	-63.299	-0.322	-0.171
-148.589	320.183	0.128	-0.318
-147.574	20.471	0.303	-0.317
-146.560	148.387	-0.058	-0.102
-145.545	55.709	0.327	0.412
-144.531	-156.471	0.596	0.048
-143.516	-69.340	0.130	-0.064
-142.502	196.697	0.087	-0.173
-141.487	183.624	0.250	0.482
-140.472	-31.266	0.031	0.023
-139.458	-39.881	0.374	0.253
-138.443	140.285	0.242	-0.415
-137.429	-35.686	0.699	-0.490
-136.414	-103.239	0.388	-0.118
-135.399	-200.000	-0.013	0.935
-134.385	-200.000	-0.059	0.413
-133.370	357.928	0.294	0.766
-132.356	-200.000	-0.032	0.254
-131.341	86.615	-0.267	-0.383
-130.326	-59.538	0.084	0.047
-129.312	263.800	0.059	-0.133
-128.297	-51.196	-0.374	-0.227
-127.283	-96.823	-0.289	-0.098
-126.268	161.518	-0.250	0.455
-125.253	-34.908	0.214	-0.151
-124.239	232.240	-0.010	0.022
-123.224	-72.786	-0.362	0.172
-122.210	186.761	0.083	0.160
-121.195	712.873	-0.148	0.511
-120.180	-112.092	-0.275	-0.071
-119.166	-72.950	0.244	-0.116
-118.151	-7.009	0.322	-0.283
-117.137	-120.749	0.142	-0.031
-116.122	800.000	-0.063	-0.339
-115.107	-50.463	0.324	0.198
-114.093	-192.430	0.299	0.004
-113.078	106.341	-0.063	-0.097
-112.064	-200.000	-0.001	0.129
-111.049	755.672	0.067	-0.235
-110.034	-95.100	-0.321	0.112
-109.020	5.834	-0.429	0.411
-108.005	119.707	0.125	-0.200
-106.991	-58.875	-0.361	-0.202
-105.976	-94.119	0.085	0.030
-104.962	800.000	-0.100	0.412
-103.947	-32.365	-0.429	-0.309
-102.932	-132.245	-0.436	-0.072
-101.918	108.897	-0.211	-0.327
-100.903	57.297	-0.153	0.194
-99.889	-10.184	-0.163	-0.140
-98.874	64.578	0.204	0.267
-97.859	-73.852	0.340	-0.159
-96.845	-83.307	-0.286	0.118
-95.830	-105.552	-0.353	0.103
-94.816	-123.924	-0.628	0.127
-93.801	800.000	-0.096	-0.393
-92.786	90.497	0.191	-0.278
-91.772	-120.585	0.304	-0.066
-90.757	106.147	0.236	-0.362
-89.743	-70.819	-0.244	-0.119
-88.728	-28.578	0.243	-0.181
-87.713	0.843	-0.447	-0.414
-86.699	-153.917	-0.295	0.026
-85.684	-81.855	-0.113	-0.048
-84.670	-47.685	0.328	0.206
-83.655	25.422	-0.085	-0.091
-82.640	-94.292	-0.350	0.123
-81.626	-170.168	-0.341	-0.015
-80.611	698.426	-0.050	0.171
-79.597	-74.454	0.161	0.075
-78.582	800.000	0.085	0.465
-77.567	-136.126	0.174	-0.026
-76.553	-62.277	0.244	0.131
-75.538	-200.000	-0.033	0.369
-74.524	406.408	0.086	0.235
-73.509	-15.420	-0.144	-0.119
-72.494	-17.754	-0.054	0.044
-71.480	-125.679	-0.560	0.109
-70.465	-96.009	0.121	0.042
-69.451	-200.000	0.032	-0.296
-68.436	21.617	-0.491	-0.517
-67.422	-24.996	0.421	-0.323
-66.407	23.243	0.324	-0.345
-65.392	4.917	0.524	-0.498
-64.378	221.157	0.196	-0.408
-63.363	-126.767	-0.317	-0.060
-62.349	-200.000	0.010	-0.241
-61.334	70.744	-2.372	-3.180
-60.319	-34.229	1.642	1.164
-59.305	340.379	-3.252	-8.245
-58.290	32.259	4.157	4.641
-57.276	346.467	4.049	10.348
-56.261	-200.000	24.396	322.609
-55.246	350.533	1309.401	3363.653
-54.232	52.352	2848.993	3517.582
-53.217	50.985	2661.025	3264.201
-52.203	31.291	2391.759	2655.815
-51.188	27.451	2057.935	2237.710
-50.173	24.199	1943.943	2075.667
-49.159	23.338	1932.057	2052.871
-48.144	22.900	1926.385	2041.669
-47.130	22.604	1925.292	2037.001
-46.115	22.695	1923.046	2035.592
-45.100	22.685	1922.139	2034.437
-44.086	22.641	1921.072	2032.718
-43.071	22.616	1919.389	2030.563
-42.057	22.531	1917.640	2027.650
-41.042	22.597	1915.771	2026.358
-40.027	22.645	1914.634	2025.631
-39.013	22.647	1913.367	2024.232
-37.998	22.615	1911.918	2022.247
-36.984	22.563	1911.134	2020.743
-35.969	22.545	1909.259	2018.474
-34.954	22.573	1907.711	2017.076
-33.940	22.577	1905.490	2014.693
-32.925	22.558	1905.743	2014.661
-31.911	22.550	1904.320	2012.989
-30.896	22.581	1902.975	2011.840
-29.881	22.601	1902.124	2011.088
-28.867	22.437	1900.471	2007.391
-27.852	22.424	1899.481	2006.110
-26.838	22.467	1897.654	2004.592
-25.823	22.507	1895.402	2002.597
-24.809	22.468	1893.786	2000.363
-23.794	22.494	1893.513	2000.289
-22.779	22.546	1891.584	1998.764
-21.765	22.402	1891.398	1996.844
-20.750	22.420	1890.150	1995.661
-19.736	22.411	1888.391	1993.622
-18.721	22.492	1887.847	1993.889
-17.706	22.289	1886.891	1990.484
-16.692	22.398	1884.889	1989.529
-15.677	22.299	1884.148	1987.549
-14.663	22.276	1883.032	1986.028
-13.648	22.400	1881.265	1985.492
-12.633	22.402	1880.134	1984.243
-11.619	22.441	1878.937	1983.351
-10.604	22.245	1877.482	1979.512
-9.590	22.324	1876.471	1979.259
-8.575	22.261	1875.368	1977.312
-7.560	22.320	1874.333	1976.803
-6.546	22.293	1873.691	1975.745
-5.531	22.250	1872.490	1973.917
-4.517	22.266	1870.023	1971.411
-3.502	22.373	1869.847	1972.358
-2.487	22.319	1868.548	1970.307
-1.473	22.514	1864.055	1967.674
-0.458	22.103	1847.397	1945.438
0.556	18.748	1994.119	2047.533
1.571	17.261	2197.173	2236.105
2.586	18.109	2236.187	2286.939
3.600	18.132	2238.462	2289.298
4.615	18.156	2237.150	2288.011
5.629	18.023	2236.579	2285.365
6.644	18.118	2233.829	2283.558
7.659	18.035	2232.522	2280.825
8.673	18.034	2230.454	2278.433
9.688	17.956	2238.900	2285.740
10.702	16.985	2319.993	2354.693
11.717	15.401	2384.812	2397.461
12.731	7.178	2365.749	2260.444
13.746	0.917	2348.702	2154.505
14.761	0.194	2345.619	2141.092
15.775	0.140	2342.772	2137.472
16.790	0.107	2341.458	2135.542
17.804	0.063	2340.349	2133.650
18.819	0.029	2339.694	2132.304
19.834	0.008	2338.309	2130.487
20.848	-0.040	2336.965	2128.332
21.863	0.011	2334.857	2126.881
22.877	-0.018	2333.551	2125.030
23.892	0.012	2331.345	2123.182
24.907	0.029	2328.200	2120.315
25.921	-0.017	2326.138	2117.522
26.936	0.038	2324.434	2116.505
27.950	-0.037	2321.391	2112.422
28.965	0.107	2318.707	2111.753
29.980	0.082	2317.978	2110.484
30.994	0.038	2317.007	2108.726
32.009	3.870	2327.255	2171.962
33.023	12.672	2353.723	2321.638
34.038	16.384	2359.257	2379.454
35.053	16.486	2355.424	2376.746
36.067	16.282	2352.715	2370.850
37.082	16.265	2350.807	2368.404
38.096	16.374	2348.583	2367.414
39.111	16.526	2347.946	2368.627
40.126	16.643	2345.123	2367.143
41.140	16.748	2343.659	2366.854
42.155	16.812	2342.878	2366.682
43.169	16.802	2339.616	2362.973
44.184	16.659	2336.376	2357.406
45.199	16.600	2334.770	2354.680
46.213	16.745	2334.109	2355.758
47.228	16.802	2333.401	2355.562
48.242	16.762	2331.074	2352.370
49.257	16.784	2329.785	2351.097
50.271	16.922	2327.525	2350.461
51.286	16.826	2323.678	2344.948
52.301	16.544	2322.815	2339.878
53.315	17.236	2325.904	2352.352
54.330	19.937	2331.953	2395.810
55.344	21.550	2332.467	2418.473
56.359	21.763	2329.492	2418.046
57.374	21.772	2329.649	2418.049
58.388	21.975	2326.797	2417.610
59.403	21.888	2321.750	2410.877
60.417	21.461	2320.002	2402.873
61.432	21.647	2317.544	2402.601
62.447	21.793	2316.760	2403.519
63.461	22.095	2314.699	2405.249
64.476	22.161	2312.937	2404.038
65.490	21.886	2310.607	2397.555
66.505	20.929	2308.420	2381.856
67.520	19.090	2299.944	2347.630
68.534	17.240	2292.553	2314.502
69.549	16.823	2287.727	2303.664
70.563	16.644	2285.640	2298.842
71.578	16.711	2283.639	2297.467
72.593	16.901	2281.123	2297.254
73.607	16.864	2280.027	2295.364
74.622	16.858	2277.828	2292.789
75.636	16.714	2276.049	2288.778
76.651	16.617	2273.681	2284.803
77.666	16.673	2271.065	2282.656
78.680	16.621	2269.272	2279.881
79.695	16.574	2266.301	2275.987
80.709	16.482	2264.888	2273.051
81.724	16.532	2262.740	2271.305
82.739	16.513	2260.377	2268.399
83.753	16.434	2258.599	2265.279
84.768	16.515	2256.732	2264.220
85.782	16.476	2256.264	2262.954
86.797	16.469	2254.645	2260.972
87.812	16.587	2252.463	2260.100
88.826	16.656	2250.720	2259.000
89.841	16.723	2248.040	2256.935
90.855	16.695	2245.271	2253.521
91.870	16.582	2244.858	2251.317
92.884	16.653	2243.187	2250.323
93.899	16.718	2241.306	2249.034
94.914	17.262	2243.993	2258.730
95.928	19.492	2250.773	2295.126
96.943	20.174	2248.548	2301.684
97.957	18.104	2238.759	2263.869
98.972	16.764	2233.734	2240.713
99.987	16.519	2230.566	2234.012
101.001	16.577	2228.234	2232.171
102.016	16.622	2225.646	2229.915
103.030	16.483	2223.780	2225.939
104.045	16.385	2221.726	2222.320
105.060	16.547	2219.341	2221.800
106.074	16.581	2217.380	2220.020
107.089	16.605	2215.315	2218.002
108.103	16.590	2214.557	2216.780
109.118	16.624	2213.410	2215.813
110.133	16.695	2211.853	2214.927
111.147	16.572	2209.115	2210.301
112.162	16.487	2208.390	2208.197
113.176	16.660	2205.670	2207.481
114.191	16.861	2204.031	2208.213
115.206	16.789	2201.736	2204.702
116.220	16.729	2200.671	2202.596
117.235	16.628	2200.083	2200.423
118.249	16.778	2196.577	2198.601
119.264	16.641	2195.607	2195.584
120.279	16.645	2192.973	2192.747
121.293	16.665	2191.943	2191.710
122.308	16.655	2190.508	2189.887
123.322	16.543	2189.181	2186.833
124.337	17.171	2189.935	2195.495
125.352	19.473	2196.989	2232.260
126.366	20.091	2194.259	2237.247
127.381	17.678	2185.274	2196.597
128.395	16.709	2181.145	2179.658
129.410	16.554	2178.594	2174.839
130.424	16.549	2176.567	2172.493
131.439	16.576	2175.168	2171.185
132.454	16.862	2173.014	2172.460
133.468	16.853	2171.367	2170.438
134.483	16.915	2170.055	2169.660
135.497	16.981	2168.413	2168.616
136.512	16.813	2166.363	2164.138
137.527	16.630	2164.704	2159.880
138.541	16.521	2163.096	2156.626
139.556	16.519	2162.762	2156.003
140.570	16.604	2160.517	2154.600
141.585	16.583	2158.632	2152.193
142.600	16.585	2157.080	2150.415
143.614	16.614	2154.843	2148.288
144.629	16.495	2153.571	2145.249
145.643	16.468	2152.268	2143.356
146.658	16.454	2150.425	2141.079
147.673	16.387	2148.244	2137.795
148.687	16.470	2146.947	2137.308
149.702	16.586	2146.311	2137.897
150.716	16.629	2145.083	2136.966
151.731	16.748	2143.018	2136.156
152.746	16.616	2142.387	2133.596
153.760	17.339	2144.923	2145.041
154.775	19.635	2152.406	2181.445
155.789	20.385	2150.043	2188.288
156.804	18.175	2139.451	2149.357
157.819	16.823	2132.858	2125.448
158.833	16.695	2129.452	2120.185
159.848	16.631	2128.082	2117.761
160.862	16.715	2126.549	2117.041
161.877	16.708	2126.305	2116.457
162.892	16.723	2125.374	2115.460
163.906	16.758	2123.518	2113.798
164.921	16.829	2121.322	2112.250
165.935	16.842	2120.112	2110.960
166.950	16.840	2118.209	2108.783
167.964	16.875	2115.830	2106.605
168.979	16.725	2114.107	2102.761
169.994	16.494	2112.626	2098.152
171.008	16.584	2110.389	2096.799
172.023	16.454	2109.715	2094.262
173.037	16.552	2108.228	2093.759
174.052	16.699	2105.633	2092.755
175.067	16.558	2104.994	2090.125
176.081	16.533	2103.370	2087.944
177.096	16.618	2102.174	2087.560
178.110	16.642	2100.382	2085.836
179.125	16.658	2099.086	2084.497
180.140	16.653	2097.564	2082.667
181.154	16.660	2096.299	2081.246
182.169	16.727	2095.841	2081.375
183.183	17.371	2098.288	2091.515
184.198	20.076	2104.407	2130.854
185.213	20.510	2101.306	2132.814
186.227	17.935	2093.159	2092.602
187.242	16.831	2089.213	2074.835
188.256	16.746	2086.309	2070.649
189.271	16.595	2084.006	2066.264
190.286	16.524	2083.120	2064.265
191.300	16.600	2080.778	2062.636
192.315	16.730	2078.991	2062.209
193.329	16.727	2078.252	2061.191
194.344	16.821	2077.181	2061.027
195.359	16.920	2076.446	2061.258
196.373	16.814	2074.114	2057.402
197.388	16.621	2071.351	2052.073
198.402	16.527	2069.213	2048.566
199.417	16.522	2067.195	2046.256
200.432	16.704	2064.782	2045.829
201.446	16.638	2064.418	2044.425
202.461	16.694	2063.214	2043.674
203.475	16.607	2061.432	2040.607
204.490	16.510	2059.600	2037.372
205.504	16.619	2057.076	2035.947
206.519	16.774	2055.333	2035.855
207.534	16.667	2053.356	2032.365
208.548	16.747	2051.872	2031.613
209.563	16.816	2050.736	2031.077
210.577	16.709	2049.757	2028.573
211.592	16.690	2050.168	2028.508
212.607	18.008	2053.642	2047.590
213.621	20.922	2060.932	2089.789
214.636	20.380	2054.409	2076.416
215.650	17.630	2045.533	2034.237
216.665	16.866	2042.547	2021.875
217.680	16.701	2041.087	2018.207
218.694	16.663	2038.915	2015.368
219.709	16.592	2037.556	2012.923
220.723	16.725	2035.969	2012.711
221.738	16.730	2034.706	2011.276
222.753	16.799	2032.261	2009.444
223.767	16.769	2030.336	2006.948
224.782	16.700	2029.269	2004.831
225.796	16.877	2026.937	2004.387
226.811	16.723	2025.275	2000.675
227.826	16.670	2024.405	1998.949
228.840	16.612	2022.789	1996.422
229.855	16.642	2021.541	1995.311
230.869	16.734	2019.390	1994.038
231.884	16.618	2017.760	1990.820
232.899	16.577	2016.842	1989.183
233.913	16.686	2015.455	1988.870
234.928	16.562	2014.793	1986.513
235.942	16.589	2012.733	1984.562
236.957	16.527	2010.859	1981.752
237.972	16.492	2010.410	1980.659
238.986	16.519	2008.221	1978.575
240.001	16.546	2005.921	1976.390
241.015	16.606	2006.039	1976.975
242.030	17.326	2008.291	1987.425
243.045	19.715	2012.441	2019.378
244.059	19.932	2010.387	2019.622
245.074	17.554	2002.119	1983.267
246.088	16.911	1997.214	1970.661
247.103	16.956	1995.350	1969.113
248.117	16.870	1994.666	1967.205
249.132	16.730	1992.724	1963.417
250.147	16.764	1990.975	1961.859
251.161	16.682	1989.505	1959.223
252.176	16.913	1987.970	1960.160
253.190	17.145	1986.422	1961.089
254.205	16.897	1985.072	1956.650
255.220	16.940	1983.716	1955.574
256.234	16.993	1981.378	1953.646
257.249	16.855	1980.482	1950.939
258.263	16.847	1979.942	1950.073
259.278	16.869	1979.146	1949.316
260.293	16.639	1976.983	1944.293
261.307	16.664	1974.593	1941.995
262.322	16.535	1973.104	1938.821
263.336	16.574	1971.255	1937.222
264.351	16.634	1969.060	1935.521
265.366	16.564	1969.237	1934.653
266.380	16.497	1968.304	1932.735
267.395	16.635	1966.318	1932.143
268.409	16.549	1965.487	1930.101
269.424	16.668	1962.924	1928.716
270.439	16.596	1963.116	1927.857
271.453	17.570	1964.779	1940.419
272.468	20.104	1969.465	1973.855
273.482	20.094	1966.582	1970.610
274.497	17.614	1957.538	1933.073
275.512	16.622	1952.610	1916.683
276.526	16.714	1950.148	1915.083
277.541	16.597	1949.337	1912.732
278.555	16.540	1947.905	1910.444
279.570	16.538	1945.406	1907.741
280.585	16.564	1944.706	1907.122
281.599	16.645	1943.608	1906.732
282.614	16.728	1942.321	1906.180
283.628	16.919	1941.078	1906.901
284.643	16.912	1940.987	1906.499
285.657	17.072	1938.654	1905.791
286.672	17.022	1938.193	1904.543
287.687	16.933	1936.127	1901.281
288.701	16.975	1934.429	1899.863
289.716	16.992	1933.054	1898.473
290.730	16.941	1932.078	1896.710
291.745	17.003	1930.386	1895.525
292.760	17.123	1929.497	1895.762
293.774	16.884	1928.262	1891.644
294.789	16.915	1926.585	1890.121
295.803	16.765	1924.465	1886.142
296.818	16.867	1922.821	1885.444
297.833	16.762	1922.238	1883.469
298.847	16.678	1921.172	1881.256
299.862	16.760	1919.377	1880.193
300.876	17.465	1920.237	1888.682
301.891	20.237	1926.029	1925.109
302.906	20.545	1923.790	1926.081
303.920	17.861	1915.272	1887.520
304.935	16.932	1911.732	1873.498
305.949	16.932	1909.978	1871.546
306.964	16.905	1908.831	1869.906
307.979	16.853	1906.743	1867.061
308.993	16.945	1906.056	1867.180
310.008	17.111	1905.108	1867.869
311.022	17.196	1902.641	1866.161
312.037	17.056	1900.889	1862.676
313.052	17.071	1898.844	1860.608
314.066	17.087	1897.912	1859.652
315.081	17.083	1897.136	1858.631
316.095	17.031	1896.138	1856.857
317.110	16.898	1895.166	1854.215
318.125	16.702	1893.321	1850.039
319.139	16.738	1892.313	1849.229
320.154	16.893	1890.529	1848.957
321.168	16.943	1888.445	1847.247
322.183	16.831	1886.407	1843.808
323.197	16.734	1885.013	1841.162
324.212	16.576	1883.224	1837.473
325.227	16.625	1881.716	1836.317
326.241	16.590	1879.621	1833.667
327.256	16.667	1878.169	1832.872
328.270	16.699	1877.989	1832.827
329.285	16.695	1878.112	1832.684
330.300	17.542	1883.003	1846.468
331.314	20.325	1886.980	1880.501
332.329	20.319	1881.894	1875.137
333.343	17.656	1873.323	1837.549
334.358	16.570	1869.939	1822.267
335.373	16.541	1868.357	1820.185
336.387	16.488	1865.971	1817.072
337.402	16.493	1864.424	1815.402
338.416	16.597	1863.170	1815.085
339.431	16.590	1862.487	1814.126
340.446	16.736	1859.604	1812.679
341.460	16.788	1859.021	1812.448
342.475	16.955	1857.710	1812.744
343.489	17.025	1856.109	1811.715
344.504	16.951	1855.700	1810.314
345.519	16.987	1854.415	1809.222
346.533	16.954	1853.358	1807.626
347.548	17.096	1851.978	1807.581
348.562	16.981	1850.278	1804.481
349.577	17.019	1849.833	1804.234
350.592	17.151	1848.465	1804.095
351.606	17.096	1847.766	1802.603
352.621	17.160	1845.317	1800.689
353.635	17.063	1843.441	1797.600
354.650	16.982	1841.897	1795.024
355.665	16.729	1841.193	1791.431
356.679	16.733	1839.212	1789.336
357.694	16.717	1837.399	1787.181
358.708	16.709	1836.704	1786.205
359.723	17.797	1840.231	1800.978
360.738	20.582	1844.281	1834.303
361.752	19.772	1839.187	1820.442
362.767	17.517	1832.783	1790.085
363.781	16.890	1829.116	1779.679
364.796	16.739	1828.423	1777.194
365.810	16.655	1827.324	1775.024
366.825	16.727	1826.246	1774.531
367.840	16.932	1825.126	1775.384
368.854	16.966	1823.645	1774.085
369.869	16.781	1821.969	1770.302
370.883	16.633	1820.121	1766.746
371.898	16.626	1819.192	1765.555
372.913	16.635	1818.358	1764.631
373.927	16.881	1816.886	1765.568
374.942	16.829	1816.193	1764.136
375.956	16.847	1815.383	1763.325
376.971	16.925	1812.034	1760.674
377.986	16.784	1810.703	1757.697
379.000	16.771	1808.756	1755.466
380.015	16.805	1807.768	1754.656
381.029	16.906	1805.200	1752.996
382.044	16.691	1804.466	1749.843
383.059	16.709	1802.393	1747.811
384.073	16.699	1801.211	1746.354
385.088	16.723	1800.708	1745.900
386.102	16.780	1798.340	1743.987
387.117	16.696	1797.437	1742.035
388.132	16.642	1797.476	1741.306
389.146	17.436	1801.301	1753.031
390.161	20.328	1804.891	1786.266
391.175	20.124	1797.965	1777.098
392.190	17.518	1790.689	1742.912
393.205	16.858	1787.791	1733.105
394.219	16.769	1786.003	1730.252
395.234	16.773	1784.528	1728.662
396.248	16.662	1783.415	1726.234
397.263	16.835	1780.344	1724.820
398.278	16.794	1778.722	1722.627
399.292	16.695	1778.660	1721.347
400.307	16.648	1777.514	1719.558
401.321	16.786	1777.060	1720.320
402.336	16.884	1775.547	1719.652
403.350	16.836	1774.662	1718.097
404.365	16.865	1772.647	1716.231
405.380	17.098	1771.839	1717.615
406.394	17.124	1771.313	1717.165
407.409	16.982	1769.590	1713.849
408.423	17.216	1767.832	1714.316
409.438	17.127	1766.916	1712.321
410.453	16.975	1765.969	1709.651
411.467	17.193	1763.963	1709.717
412.482	16.992	1762.453	1706.012
413.496	16.806	1761.688	1703.191
414.511	16.806	1759.593	1700.962
415.526	16.783	1756.908	1697.932
416.540	16.767	1755.681	1696.376
417.555	16.661	1756.099	1695.509
418.569	16.834	1755.503	1696.475
419.584	16.829	1755.391	1696.118
420.599	16.753	1754.125	1693.926
421.613	16.705	1753.161	1692.306
422.628	16.527	1751.254	1688.477
423.642	16.617	1749.660	1687.638
424.657	16.563	1748.144	1685.436
425.672	16.700	1746.587	1685.106
426.686	16.709	1744.887	1683.348
427.701	16.560	1744.704	1681.484
428.715	16.785	1742.621	1681.517
429.730	16.979	1741.400	1682.078
430.745	16.941	1739.604	1679.765
431.759	16.904	1739.736	1679.318
432.774	17.089	1740.384	1681.581
433.788	17.638	1739.921	1686.401
434.803	17.835	1739.880	1688.117
435.818	17.811	1738.748	1686.574
436.832	17.717	1737.771	1684.494
437.847	16.751	1730.754	1667.932
438.861	9.336	1710.882	1575.790
439.876	1.646	1696.848	1487.336
440.890	0.352	1693.133	1471.210
441.905	0.221	1692.065	1468.830
442.920	0.130	1691.700	1467.440
443.934	-0.022	1690.262	1464.529
444.949	0.144	1688.711	1464.634
445.963	0.105	1687.811	1463.302
446.978	0.114	1687.282	1462.754
447.993	0.045	1685.953	1460.749
449.007	0.064	1683.540	1458.671
450.022	0.139	1681.405	1457.379
451.036	0.141	1679.826	1455.856
452.051	1.224	1684.093	1469.926
453.066	8.565	1701.132	1556.644
454.080	16.033	1712.049	1639.726
455.095	17.480	1714.129	1655.684
456.109	17.782	1713.888	1658.202
457.124	17.808	1713.038	1657.437
458.139	17.815	1712.446	1656.737
459.153	18.058	1711.425	1657.914
460.168	18.086	1709.797	1656.415
461.182	17.903	1708.768	1653.437
462.197	17.956	1705.958	1651.037
463.212	17.742	1705.005	1647.841
464.226	17.805	1703.482	1646.780
465.241	17.855	1702.657	1646.274
466.255	18.124	1701.119	1647.189
467.270	18.023	1699.970	1644.905
468.285	17.901	1698.434	1642.035
469.299	17.892	1697.256	1640.619
470.314	18.043	1694.946	1639.640
471.328	17.882	1694.082	1637.057
472.343	18.034	1692.714	1637.008
473.358	18.082	1691.732	1636.319
474.372	17.979	1691.087	1634.512
475.387	17.919	1689.091	1631.810
476.401	17.965	1687.769	1630.785
477.416	17.831	1686.872	1628.434
478.430	17.891	1686.600	1628.549
479.445	17.707	1684.938	1624.994
480.460	17.722	1682.931	1622.998
481.474	17.854	1681.869	1623.045
482.489	17.857	1681.212	1622.243
483.503	18.005	1679.520	1621.829
484.518	18.007	1677.945	1620.140
485.533	18.036	1676.898	1619.210
486.547	18.024	1675.774	1617.813
487.562	18.213	1674.845	1618.523
488.576	18.205	1672.899	1616.370
489.591	18.175	1671.721	1614.752
490.606	18.125	1670.397	1612.810
491.620	18.008	1669.632	1610.771
492.635	18.167	1667.706	1610.222
493.649	18.187	1666.794	1609.336
494.664	18.076	1664.911	1606.275
495.679	17.785	1663.075	1601.564
496.693	17.768	1662.710	1600.863
497.708	18.023	1661.723	1602.128
498.722	18.075	1660.633	1601.369
499.737	18.275	1659.007	1601.496
500.752	18.134	1656.930	1597.975
501.766	17.982	1654.924	1594.425
502.781	17.982	1654.198	1593.532
503.795	18.019	1652.468	1592.020
504.810	17.953	1652.321	1591.069
505.825	18.149	1651.916	1592.324
506.839	18.150	1650.146	1590.442
507.854	18.080	1648.644	1588.143
508.868	18.263	1647.043	1588.122
509.883	18.174	1646.227	1586.315
510.898	18.243	1645.773	1586.331
511.912	18.249	1643.411	1583.919
512.927	18.044	1641.677	1580.154
513.941	18.074	1640.702	1579.308
514.956	17.994	1639.016	1576.751
515.971	18.041	1637.845	1575.869
516.985	18.074	1636.740	1574.927
518.000	18.139	1636.287	1574.906
519.014	18.224	1635.301	1574.553
520.029	18.342	1634.159	1574.351
521.043	18.389	1631.677	1572.212
522.058	18.409	1630.714	1571.277
523.073	18.424	1630.337	1570.860
524.087	18.520	1629.569	1570.814
525.102	18.403	1627.637	1567.687
526.116	18.213	1625.987	1564.169
527.131	18.160	1625.029	1562.578
528.146	18.424	1624.054	1563.870
529.160	18.528	1623.550	1564.152
530.175	18.286	1622.450	1560.692
531.189	18.451	1621.360	1560.963
532.204	18.407	1620.345	1559.398
533.219	18.236	1618.388	1555.766
534.233	18.086	1617.989	1553.829
535.248	18.327	1616.889	1554.786
536.262	18.617	1615.314	1555.728
537.277	18.537	1614.136	1553.674
538.292	18.162	1613.595	1549.554
539.306	18.328	1611.256	1548.636
540.321	18.443	1609.626	1547.928
541.335	18.358	1608.330	1545.724
542.350	18.338	1606.792	1543.882
543.365	18.391	1606.131	1543.533
544.379	18.565	1604.610	1543.469
545.394	18.583	1603.573	1542.447
546.408	18.333	1601.247	1537.769
547.423	18.156	1600.927	1535.683
548.438	18.173	1599.514	1534.294
549.452	18.374	1598.369	1534.821
550.467	18.384	1597.153	1533.556
551.481	18.323	1596.218	1531.928
552.496	18.363	1596.022	1531.922
553.511	18.614	1594.454	1532.487
554.525	18.541	1593.706	1530.930
555.540	18.512	1593.549	1530.330
556.554	18.683	1591.651	1529.859
557.569	18.546	1590.347	1527.196
558.583	18.447	1588.415	1524.270
559.598	18.497	1587.369	1523.530
560.613	18.475	1586.026	1521.869
561.627	18.529	1584.686	1520.876
562.642	18.560	1583.612	1519.938
563.656	18.631	1583.279	1520.074
564.671	18.598	1582.729	1519.070
565.686	18.573	1580.598	1516.616
566.700	18.394	1578.975	1513.294
567.715	18.465	1577.034	1511.876
568.729	18.371	1575.128	1509.038
569.744	18.238	1573.834	1506.443
570.759	18.289	1572.929	1505.846
571.773	18.472	1572.159	1506.545
572.788	18.366	1571.597	1504.891
573.802	18.448	1569.852	1503.766
574.817	18.782	1567.670	1504.437
575.832	18.700	1567.627	1503.492
576.846	18.813	1566.388	1503.114
577.861	18.616	1564.928	1499.803
578.875	18.715	1564.243	1499.841
579.890	18.763	1564.208	1500.042
580.905	18.672	1562.790	1497.704
581.919	18.778	1561.802	1497.515
582.934	18.945	1561.498	1498.503
583.948	18.703	1560.208	1494.971
584.963	18.781	1558.241	1493.589
585.978	18.612	1557.365	1491.090
586.992	18.689	1556.161	1490.436
588.007	18.795	1555.419	1490.470
589.021	18.527	1554.083	1486.670
590.036	18.399	1552.703	1484.065
591.051	18.592	1551.107	1484.034
592.065	18.655	1549.298	1482.677
593.080	18.875	1548.154	1483.310
594.094	18.684	1546.933	1480.313
595.109	18.558	1544.689	1476.894
596.123	18.318	1543.668	1473.667
597.138	18.700	1542.200	1475.390
598.153	18.712	1541.112	1474.269
599.167	18.746	1540.016	1473.346
600.182	18.823	1538.850	1472.713
601.196	18.729	1538.937	1471.808
602.211	18.714	1537.215	1469.855
603.226	18.871	1535.865	1469.741
604.240	18.813	1535.060	1468.296
605.255	19.063	1533.964	1469.218
606.269	18.806	1533.192	1466.097
607.284	18.926	1532.128	1465.935
608.299	18.906	1530.010	1463.563
609.313	18.852	1528.711	1461.678
610.328	18.745	1528.364	1460.257
611.342	18.933	1526.889	1460.280
612.357	18.981	1526.227	1459.886
613.372	18.981	1524.726	1458.270
614.386	18.923	1524.142	1457.045
615.401	18.949	1523.177	1456.170
616.415	18.926	1523.196	1455.814
617.430	19.087	1521.443	1455.340
618.445	19.105	1520.262	1454.188
619.459	19.068	1518.371	1451.888
620.474	18.747	1517.796	1448.442
621.488	18.556	1516.203	1445.136
622.503	18.435	1513.951	1441.790
623.518	18.771	1512.919	1443.473
624.532	18.878	1513.460	1444.720
625.547	18.977	1512.659	1444.619
626.561	19.086	1511.632	1444.385
627.576	19.129	1510.755	1443.740
628.591	18.762	1508.793	1438.597
629.605	18.614	1507.478	1435.924
630.620	18.412	1506.493	1433.119
631.634	18.371	1505.054	1431.233
632.649	18.459	1504.255	1431.044
633.663	18.574	1502.662	1430.321
634.678	19.079	1500.731	1432.538
635.693	19.112	1500.053	1431.992
636.707	19.104	1499.398	1431.133
637.722	19.297	1497.887	1431.133
638.736	19.239	1497.204	1429.818
639.751	19.296	1496.384	1429.338
640.766	19.031	1495.121	1425.755
641.780	19.215	1493.546	1425.618
642.795	19.090	1493.273	1424.146
643.809	19.064	1492.305	1422.835
644.824	19.201	1491.411	1422.947
645.839	19.089	1490.126	1420.625
646.853	19.123	1489.241	1419.890
647.868	19.116	1487.282	1417.795
648.882	19.090	1485.621	1415.828
649.897	19.106	1484.547	1414.767
650.912	19.138	1483.907	1414.250
651.926	19.110	1482.298	1412.321
652.941	18.920	1480.818	1409.171
653.955	18.876	1478.628	1406.564
654.970	18.545	1477.909	1402.989
655.985	18.607	1476.038	1401.548
656.999	18.724	1474.929	1401.289
658.014	18.869	1473.624	1401.073
659.028	18.983	1473.112	1401.353
660.043	19.142	1472.709	1402.103
661.058	19.086	1471.414	1400.244
662.072	19.115	1470.368	1399.313
663.087	19.110	1469.111	1397.912
664.101	19.099	1468.287	1396.871
665.116	19.246	1467.353	1397.013
666.131	19.298	1466.189	1396.161
667.145	19.262	1465.038	1394.609
668.160	19.418	1463.881	1394.607
669.174	19.548	1463.125	1394.772
670.189	19.378	1461.905	1392.064
671.204	19.291	1460.864	1390.199
672.218	19.204	1459.736	1388.255
673.233	19.308	1459.153	1388.375
674.247	19.333	1457.836	1387.159
675.262	19.581	1456.995	1388.194
676.276	19.442	1456.127	1386.086
677.291	19.343	1455.104	1384.146
678.306	19.193	1453.963	1381.682
679.320	19.282	1452.000	1380.367
680.335	19.193	1452.476	1379.944
681.349	19.456	1451.477	1380.944
682.364	19.418	1449.933	1379.001
683.379	19.287	1449.101	1376.994
684.393	19.222	1447.335	1374.630
685.408	19.293	1446.171	1373.924
686.422	19.392	1445.178	1373.612
687.437	19.280	1445.197	1372.571
688.452	19.473	1444.131	1372.933
689.466	19.477	1441.475	1370.282
690.481	19.257	1440.412	1367.348
691.495	19.010	1440.023	1364.848
692.510	18.774	1438.259	1361.129
693.525	18.687	1436.152	1358.283
694.539	18.737	1435.407	1357.815
695.554	18.977	1435.940	1360.066
696.568	19.253	1435.210	1361.402
697.583	19.342	1434.296	1361.078
698.598	19.303	1433.764	1360.101
699.612	19.465	1431.899	1359.454
700.627	19.527	1430.468	1358.418
701.641	19.606	1429.696	1358.147
702.656	19.456	1428.851	1356.003
703.671	19.693	1428.075	1356.971
704.685	19.512	1427.587	1354.919
705.700	19.744	1425.337	1354.449
706.714	19.482	1424.542	1351.466
707.729	19.285	1423.054	1348.342
708.744	19.231	1422.008	1346.770
709.758	19.159	1420.645	1344.750
710.773	19.189	1419.125	1343.383
711.787	19.113	1417.514	1341.102
712.802	19.166	1415.875	1339.807
713.816	19.322	1415.909	1340.899
714.831	19.410	1414.919	1340.489
715.846	19.641	1413.638	1340.917
716.860	19.625	1412.601	1339.646
717.875	19.550	1411.769	1338.114
718.889	19.404	1411.023	1336.113
719.904	19.379	1410.659	1335.413
720.919	19.503	1408.975	1334.625
721.933	19.554	1408.559	1334.468
722.948	19.679	1407.242	1334.029
723.962	19.769	1405.822	1333.223
724.977	19.644	1405.232	1331.534
725.992	19.677	1404.082	1330.536
727.006	19.590	1402.863	1328.548
728.021	19.642	1401.465	1327.473
729.035	19.770	1400.225	1327.123
730.050	19.660	1399.043	1324.994
731.065	19.656	1397.645	1323.484
732.079	19.669	1397.426	1323.213
733.094	19.603	1396.180	1321.375
734.108	19.647	1394.157	1319.635
735.123	19.675	1392.692	1318.302
736.138	19.578	1391.640	1316.414
737.152	19.705	1390.487	1316.133
738.167	19.789	1389.941	1316.101
739.181	19.702	1389.485	1314.844
740.196	19.608	1389.074	1313.583
741.211	19.555	1388.646	1312.613
742.225	19.575	1387.374	1311.410
743.240	19.583	1385.979	1309.997
744.254	19.733	1384.614	1309.693
745.269	19.644	1383.589	1307.883
746.284	19.614	1383.034	1306.979
747.298	19.565	1381.517	1305.015
748.313	19.155	1380.015	1300.329
749.327	18.995	1378.397	1297.431
750.342	18.797	1377.880	1295.288
751.356	18.776	1376.144	1293.347
752.371	18.779	1375.576	1292.679
753.386	19.384	1374.690	1296.267
754.400	19.671	1374.380	1297.982
755.415	19.784	1373.366	1297.723
756.429	19.699	1372.742	1296.340
757.444	19.660	1370.752	1294.012
758.459	19.821	1370.360	1294.697
759.473	19.931	1369.399	1294.464
760.488	19.890	1368.176	1292.840
761.502	19.845	1366.816	1291.064
762.517	19.875	1365.664	1290.044
763.532	19.721	1364.106	1287.269
764.546	19.464	1363.064	1284.209
765.561	19.408	1362.028	1282.660
766.575	19.163	1360.800	1279.519
767.590	19.068	1359.795	1277.710
768.605	19.259	1358.941	1278.181
769.619	19.524	1357.431	1278.585
770.634	19.477	1357.019	1277.690
771.648	19.950	1356.148	1280.232
772.663	19.956	1355.767	1279.768
773.678	19.812	1355.607	1278.390
774.692	19.707	1354.473	1276.391
775.707	19.748	1353.855	1275.959
776.721	19.791	1352.915	1275.240
777.736	19.907	1351.597	1274.702
778.751	19.787	1350.571	1272.699
779.765	19.895	1348.781	1271.651
780.780	19.851	1348.052	1270.488
781.794	19.962	1347.181	1270.338
782.809	19.636	1346.518	1267.152
783.824	19.556	1345.259	1265.230
784.838	19.348	1342.981	1261.406
785.853	18.997	1341.719	1257.491
786.867	19.108	1341.720	1258.156
787.882	19.425	1341.114	1259.767
788.897	19.421	1340.889	1259.373
789.911	19.506	1340.356	1259.347
790.926	19.585	1338.497	1258.024
791.940	19.846	1336.600	1258.004
792.955	19.760	1336.137	1256.790
793.969	19.863	1335.377	1256.671
794.984	19.882	1334.530	1255.864
795.999	19.973	1333.339	1255.254
797.013	20.067	1331.407	1253.973
798.028	19.880	1330.456	1251.565
799.042	19.859	1330.367	1251.181
800.057	19.998	1328.838	1250.604
801.072	19.980	1327.675	1249.228
802.086	19.963	1326.601	1247.942
803.101	19.927	1325.501	1246.495
804.115	20.039	1324.537	1246.250
805.130	19.920	1323.372	1244.146
806.145	20.024	1322.304	1243.745
807.159	20.010	1321.025	1242.296
808.174	19.947	1319.771	1240.509
809.188	19.855	1318.010	1238.042
810.203	19.772	1316.432	1235.819
811.218	19.538	1314.786	1232.450
812.232	19.442	1312.884	1229.827
813.247	19.262	1312.675	1228.199
814.261	19.564	1312.838	1230.364
815.276	19.563	1312.270	1229.677
816.291	19.702	1312.227	1230.486
817.305	19.990	1310.840	1231.093
818.320	20.143	1308.762	1230.086
819.334	20.100	1307.240	1228.205
820.349	20.061	1306.311	1226.905
821.364	20.021	1305.101	1225.338
822.378	20.070	1303.821	1224.339
823.393	20.112	1301.813	1222.605
824.407	19.924	1300.722	1220.105
825.422	19.959	1300.513	1220.011
826.437	20.135	1299.464	1220.122
827.451	19.845	1297.330	1215.923
828.466	19.255	1295.451	1209.857
829.480	19.171	1293.653	1207.437
830.495	19.446	1292.156	1207.830
831.509	19.569	1292.103	1208.508
832.524	19.699	1291.929	1209.113
833.539	19.860	1290.869	1209.102
834.553	19.974	1289.332	1208.323
835.568	19.972	1288.355	1207.249
836.582	20.137	1287.554	1207.508
837.597	20.145	1285.893	1205.861
838.612	20.143	1283.722	1203.670
839.626	20.021	1282.981	1201.975
840.641	19.609	1282.867	1198.850
841.655	19.703	1281.259	1197.860
842.670	19.533	1280.032	1195.385
843.685	19.197	1279.111	1192.047
844.699	19.607	1278.212	1193.915
845.714	19.768	1277.302	1194.042
846.728	19.962	1276.314	1194.318
847.743	19.960	1275.520	1193.421
848.758	20.234	1274.475	1194.197
849.772	20.217	1273.219	1192.758
850.787	19.990	1271.872	1189.782
851.801	20.015	1270.470	1188.502
852.816	20.054	1269.295	1187.533
853.831	19.938	1267.720	1185.115
854.845	19.996	1265.798	1183.576
855.860	19.772	1264.804	1180.972
856.874	19.724	1263.688	1179.455
857.889	19.548	1262.271	1176.787
858.904	19.119	1260.425	1171.989
859.918	19.113	1258.368	1169.896
860.933	19.077	1257.282	1168.501
861.947	19.349	1256.965	1169.920
862.962	19.512	1256.621	1170.574
863.977	19.549	1255.627	1169.756
864.991	19.778	1255.403	1170.969
866.006	19.818	1254.376	1170.146
867.020	19.952	1253.111	1169.732
868.035	20.179	1252.024	1170.116
869.049	20.033	1251.188	1168.205
870.064	19.968	1250.372	1166.864
871.079	20.054	1249.406	1166.403
872.093	20.101	1248.638	1165.868
873.108	20.197	1247.195	1165.029
874.122	19.962	1245.732	1161.936
875.137	19.655	1245.591	1159.595
876.152	19.692	1244.462	1158.658
877.166	19.736	1243.316	1157.745
878.181	19.887	1242.320	1157.694
879.195	20.044	1241.717	1158.048
880.210	20.031	1241.233	1157.375
881.225	20.065	1240.063	1156.374
882.239	20.159	1239.365	1156.212
883.254	20.236	1238.173	1155.477
884.268	20.305	1236.506	1154.245
885.283	20.207	1235.482	1152.497
886.298	20.261	1234.112	1151.439
887.312	20.206	1233.638	1150.497
888.327	20.224	1232.225	1149.161
889.341	20.071	1230.910	1146.775
890.356	20.092	1230.690	1146.576
891.371	19.873	1230.529	1144.829
892.385	19.894	1228.944	1143.356
893.400	19.929	1227.659	1142.261
894.414	19.899	1226.068	1140.444
895.429	19.765	1224.316	1137.788
896.444	19.111	1222.795	1131.920
897.458	19.059	1220.928	1129.712
898.473	19.281	1220.602	1130.738
899.487	19.727	1220.304	1133.270
900.502	19.830	1219.819	1133.358
901.517	19.918	1219.430	1133.440
902.531	20.288	1217.980	1134.393
903.546	20.105	1217.670	1132.763
904.560	20.219	1216.736	1132.505
905.575	20.215	1216.003	1131.662
906.589	20.030	1215.480	1129.827
907.604	20.225	1214.304	1129.877
