DTS Sentinel unit serial number:	SN409020Multiplexer serial number:	ORYXHardware model number:	OX4-SRSoftware version number:	ORYX F/W v3.00 Oryx Data Collector v3.7.2.0data status	okinstallation	HaddamTimeLapsedifferential loss correction	single-endedforward channel	channel 3reverse channel	N/Adate	2011/06/21time	13:16:58forward acquisition time	30.00reverse acquisition time	0.00gamma	498.7831k internal	0.1772k external	0.1772temperature offset calibration	1.2081default loss term (dB/km)	0.3790temperature slope calibration	1.3581multiplexer offset coefficient	1.0000multiplexer slope coefficient	1.0000fibre end	0.00T internal ref (°C)	32.00T ext. ref 1 (°C)	29.75T ext. ref 2 (°C)	0.23length (m)	temperature (°C)	Stokes	anti-Stokes-747.200	311.498	-0.096	-0.238
-746.185	-47.796	-0.441	0.280
-745.171	28.687	-0.340	-0.377
-744.156	-200.000	-0.042	0.436
-743.142	81.409	0.264	0.375
-742.127	307.355	0.295	0.724
-741.112	-41.232	0.327	0.221
-740.098	-81.021	-0.181	0.078
-739.083	121.663	-0.158	-0.259
-738.069	-200.000	0.013	0.485
-737.054	-200.000	-0.049	-0.373
-736.039	-109.700	-0.114	-0.031
-735.025	-200.000	-0.079	-0.579
-734.010	425.566	-0.069	-0.196
-732.996	-149.326	0.388	-0.040
-731.981	-10.206	-0.196	0.170
-730.966	-1.147	0.165	0.153
-729.952	-42.580	0.343	0.228
-728.937	18.244	0.186	-0.195
-727.923	256.512	0.158	-0.358
-726.908	3.724	0.193	0.185
-725.894	-130.971	-0.250	-0.043
-724.879	-24.185	0.205	-0.161
-723.864	-120.028	0.369	-0.082
-722.850	-102.012	-0.410	-0.129
-721.835	593.137	-0.101	-0.330
-720.821	-118.774	-0.347	-0.080
-719.806	-200.000	0.005	0.114
-718.791	144.342	0.040	0.071
-717.777	-200.000	-0.002	0.146
-716.762	-57.060	0.123	0.071
-715.748	-69.089	0.068	-0.034
-714.733	148.133	0.160	-0.284
-713.718	-114.901	0.321	0.080
-712.704	-200.000	-0.031	-0.300
-711.689	800.000	-0.012	-0.063
-710.675	-43.971	-0.092	-0.060
-709.660	194.921	-0.045	-0.089
-708.645	-190.889	-0.296	-0.004
-707.631	97.691	-0.113	-0.171
-706.616	737.238	0.143	0.506
-705.602	-104.799	-0.450	-0.135
-704.587	701.347	0.070	0.242
-703.572	-88.897	0.082	-0.032
-702.558	459.129	0.167	0.490
-701.543	-0.203	0.288	0.268
-700.529	-140.583	-0.420	-0.057
-699.514	800.000	0.029	-0.148
-698.499	-200.000	0.024	0.139
-697.485	-102.663	0.405	0.126
-696.470	800.000	-0.011	-0.060
-695.456	-144.506	0.122	-0.015
-694.441	-76.000	-0.215	0.099
-693.426	579.028	-0.029	0.093
-692.412	-26.304	0.156	0.119
-691.397	-200.000	0.009	0.326
-690.383	-93.484	-0.396	0.143
-689.368	364.966	-0.105	0.279
-688.354	-84.447	-0.269	0.111
-687.339	-82.730	0.732	0.309
-686.324	-35.333	0.260	0.185
-685.310	404.046	-0.141	-0.391
-684.295	246.279	-0.090	0.199
-683.281	-81.640	-0.213	0.091
-682.266	-200.000	0.046	-0.461
-681.251	224.575	0.068	-0.145
-680.237	192.063	-0.136	-0.269
-679.222	-69.215	-0.378	-0.190
-678.208	552.523	0.053	0.169
-677.193	-46.496	0.199	0.128
-676.178	-200.000	0.022	0.357
-675.164	133.043	-0.151	-0.256
-674.149	16.717	-0.352	0.364
-673.135	197.601	0.212	-0.425
-672.120	-19.896	-0.072	0.058
-671.105	21.299	0.507	0.539
-670.091	-143.653	-0.156	-0.019
-669.076	-97.040	-0.518	-0.176
-668.062	-35.903	-0.112	0.079
-667.047	6.494	0.364	-0.354
-666.032	-118.868	-0.292	0.067
-665.018	72.070	0.252	0.343
-664.003	125.579	0.041	0.067
-662.989	800.000	0.086	-0.416
-661.974	-57.862	-0.309	0.176
-660.959	426.772	0.170	-0.483
-659.945	57.965	-0.126	-0.161
-658.930	-153.178	0.206	0.019
-657.916	21.161	0.285	-0.303
-656.901	800.000	-0.043	0.204
-655.886	-200.000	-0.007	0.147
-654.872	-144.789	0.105	-0.012
-653.857	124.394	-0.387	-0.639
-652.843	289.835	0.251	-0.599
-651.828	396.265	0.054	-0.148
-650.814	11.730	0.196	0.197
-649.799	467.386	-0.106	0.312
-648.784	800.000	-0.048	0.176
-647.770	-98.736	-0.480	-0.159
-646.755	-135.330	-0.422	-0.065
-645.741	-25.482	-0.321	-0.248
-644.726	47.555	0.060	-0.073
-643.711	-200.000	0.018	-0.414
-642.697	-115.575	0.294	-0.072
-641.682	306.476	-0.096	-0.235
-640.668	65.397	-0.304	-0.402
-639.653	-58.116	0.219	0.125
-638.638	42.982	0.063	0.075
-637.624	-119.128	0.319	0.072
-636.609	53.156	-0.195	0.244
-635.595	2.145	-0.279	-0.263
-634.580	-118.236	-0.434	-0.100
-633.565	-184.899	-0.440	-0.009
-632.551	-70.243	-0.282	0.140
-631.536	-59.275	-0.260	-0.146
-630.522	-24.859	-0.084	0.065
-629.507	20.346	-0.224	-0.236
-628.492	-165.143	0.307	0.018
-627.478	-92.599	-0.554	-0.202
-626.463	-27.901	0.111	0.084
-625.449	77.485	-0.246	0.343
-624.434	-158.124	0.153	0.012
-623.419	76.420	-0.159	0.221
-622.405	-87.386	0.228	-0.090
-621.390	482.182	-0.064	-0.192
-620.376	-39.479	0.230	-0.157
-619.361	330.144	0.106	-0.267
-618.346	800.000	0.085	0.352
-617.332	-83.252	-0.122	-0.051
-616.317	108.925	0.057	-0.088
-615.303	-200.000	-0.040	0.328
-614.288	-144.473	-0.778	0.093
-613.273	-139.942	-0.322	-0.044
-612.259	19.829	-0.173	0.182
-611.244	-41.831	-0.248	0.166
-610.230	-142.523	0.213	0.027
-609.215	-60.673	0.057	-0.032
-608.201	532.647	-0.081	-0.253
-607.186	-52.297	-0.402	-0.242
-606.171	56.273	-0.196	0.249
-605.157	229.392	0.339	0.725
-604.142	322.461	0.194	-0.484
-603.128	236.454	0.102	-0.220
-602.113	-32.717	0.101	0.073
-601.098	-57.954	0.244	-0.139
-600.084	-200.000	-0.131	-0.916
-599.069	-99.946	0.296	0.096
-598.055	-66.978	0.307	0.158
-597.040	-85.836	0.404	-0.162
-596.025	-60.815	0.315	0.173
-595.011	-200.000	0.049	-0.558
-593.996	18.879	-0.375	-0.392
-592.982	-128.130	-0.465	0.086
-591.967	239.923	-0.158	0.346
-590.952	-143.856	-0.364	0.044
-589.938	-6.730	0.258	-0.229
-588.923	-162.622	-0.368	-0.023
-587.909	-99.435	-0.343	-0.112
-586.894	-28.012	0.233	-0.176
-585.879	-60.275	-0.460	0.255
-584.865	35.876	-0.315	0.361
-583.850	-134.855	0.379	-0.059
-582.836	-41.038	-0.090	0.061
-581.821	683.776	-0.110	-0.376
-580.806	-120.978	-0.285	-0.062
-579.792	-112.443	-0.052	-0.013
-578.777	800.000	-0.040	0.171
-577.763	800.000	-0.083	0.340
-576.748	-137.997	0.286	-0.041
-575.733	-200.000	-0.016	-0.116
-574.719	-155.668	0.302	-0.025
-573.704	800.000	0.056	0.304
-572.690	-84.093	0.200	0.082
-571.675	-200.000	0.013	-0.240
-570.661	-58.554	0.083	0.047
-569.646	-200.000	0.015	0.260
-568.631	-67.815	-0.398	0.202
-567.617	-176.971	-0.423	-0.014
-566.602	-71.292	-0.344	0.167
-565.588	-101.103	-0.454	0.144
-564.573	-68.985	-0.292	0.146
-563.558	-177.218	0.258	-0.008
-562.544	-117.560	0.335	-0.078
-561.529	-2.163	-0.179	-0.164
-560.515	800.000	0.086	0.465
-559.500	21.665	0.159	-0.169
-558.485	406.405	-0.144	-0.397
-557.471	30.252	0.079	0.088
-556.456	-200.000	0.037	-0.251
-555.442	-125.207	-0.499	-0.099
-554.427	-74.281	0.291	-0.136
-553.412	-8.706	-0.144	-0.126
-552.398	133.327	-0.151	0.255
-551.383	-136.327	-0.422	0.063
-550.369	136.142	-0.126	0.215
-549.354	721.567	0.019	-0.066
-548.339	-113.347	-0.239	0.061
-547.325	-82.606	-0.301	0.127
-546.310	-134.798	-0.339	0.053
-545.296	118.810	-0.295	0.476
-544.281	122.260	0.224	-0.365
-543.266	-98.600	-0.222	-0.073
-542.252	800.000	0.061	0.230
-541.237	-200.000	-0.015	-0.144
-540.223	136.375	-0.154	0.262
-539.208	65.996	-0.151	-0.199
-538.193	266.156	0.152	0.348
-537.179	541.430	0.010	-0.032
-536.164	45.395	-0.410	0.493
-535.150	-181.724	0.146	-0.004
-534.135	-52.412	0.264	0.158
-533.121	54.268	-0.096	0.120
-532.106	35.770	0.163	0.187
-531.091	7.699	0.180	-0.175
-530.077	-131.295	0.372	-0.064
-529.062	91.820	0.174	0.256
-528.048	-162.528	-0.401	-0.025
-527.033	-200.000	-0.011	0.439
-526.018	18.729	-0.315	0.328
-525.004	-200.000	0.010	0.097
-523.989	-139.858	-0.156	-0.021
-522.975	-104.106	-0.218	0.066
-521.960	-200.000	0.008	-0.065
-520.945	-54.347	-0.115	0.068
-519.931	-14.737	0.103	-0.086
-518.916	168.456	-0.214	0.397
-517.902	246.026	0.127	-0.280
-516.887	-160.645	-0.569	-0.039
-515.872	398.341	-0.213	-0.582
-514.858	454.233	0.089	-0.259
-513.843	-89.697	0.404	0.153
-512.829	48.798	0.161	0.197
-511.814	-44.335	0.168	-0.109
-510.799	800.000	0.086	0.314
-509.785	-50.711	0.455	-0.278
-508.770	45.247	0.433	-0.520
-507.756	-145.948	-0.227	0.026
-506.741	-200.000	-0.002	0.342
-505.726	-57.519	0.512	0.291
-504.712	-103.327	-0.094	0.029
-503.697	-82.267	0.115	0.048
-502.683	169.295	0.103	0.192
-501.668	128.526	-0.096	0.160
-500.653	-30.458	0.400	-0.294
-499.639	-37.134	-0.165	0.115
-498.624	250.449	-0.110	-0.245
-497.610	26.970	-0.224	-0.244
-496.595	-200.000	0.068	0.473
-495.581	-200.000	0.017	0.683
-494.566	-155.262	0.281	-0.024
-493.551	-200.000	0.010	-0.378
-492.537	-146.698	-0.288	-0.032
-491.522	-146.186	0.305	-0.034
-490.508	800.000	-0.054	-0.297
-489.493	-16.634	0.204	-0.168
-488.478	59.810	0.135	0.174
-487.464	-21.518	0.346	0.274
-486.449	-87.646	-0.669	-0.261
-485.435	-47.171	0.382	-0.241
-484.420	-200.000	0.010	-0.170
-483.405	-34.418	0.147	0.104
-482.391	-189.797	-0.578	-0.008
-481.376	454.398	0.066	0.192
-480.362	433.497	-0.138	0.391
-479.347	-141.967	0.372	0.048
-478.332	-156.481	0.374	0.030
-477.318	-26.325	-0.510	0.388
-476.303	-15.803	0.111	-0.092
-475.289	246.624	0.159	-0.351
-474.274	-200.000	-0.041	-0.315
-473.259	-1.886	0.399	0.364
-472.245	-200.000	0.086	0.583
-471.230	-175.690	-0.097	-0.003
-470.216	35.836	0.275	-0.314
-469.201	-13.684	0.072	0.061
-468.186	139.346	0.227	-0.388
-467.172	-144.200	-0.456	0.055
-466.157	-2.991	0.207	0.188
-465.143	-47.112	-0.248	-0.157
-464.128	800.000	-0.119	-0.433
-463.113	-200.000	0.074	0.440
-462.099	-65.141	0.563	0.294
-461.084	-172.602	0.495	0.020
-460.070	10.683	-0.058	0.058
-459.055	348.067	-0.087	0.225
-458.040	-137.964	0.159	-0.023
-457.026	-128.034	-0.283	-0.052
-456.011	504.550	-0.032	-0.096
-454.997	36.769	-0.388	0.446
-453.982	-200.000	0.049	0.290
-452.968	-45.001	-0.220	-0.142
-451.953	800.000	-0.056	0.308
-450.938	800.000	-0.064	-0.290
-449.924	58.840	0.152	-0.194
-448.909	-200.000	0.055	-0.723
-447.895	800.000	-0.129	-0.474
-446.880	591.160	0.025	0.081
-445.865	-200.000	0.082	0.872
-444.851	-12.337	-0.214	-0.181
-443.836	-86.916	-0.451	-0.178
-442.822	12.173	0.222	0.222
-441.807	-34.101	-0.160	0.114
-440.792	-197.719	-0.432	-0.003
-439.778	93.020	-0.416	0.611
-438.763	86.094	0.399	-0.571
-437.749	7.089	-0.192	0.185
-436.734	12.158	0.042	0.042
-435.719	107.806	-0.131	-0.203
-434.705	-47.737	-0.106	0.067
-433.690	-100.444	0.363	-0.116
-432.676	-98.579	0.286	0.094
-431.661	-106.566	0.371	0.106
-430.646	357.093	-0.144	0.374
-429.632	-74.827	-0.484	0.224
-428.617	-2.119	-0.158	0.144
-427.603	289.573	-0.076	-0.178
-426.588	398.866	0.085	-0.231
-425.573	43.515	0.220	-0.261
-424.559	-57.456	0.350	-0.199
-423.544	-42.377	0.270	-0.178
-422.530	-54.256	0.268	0.157
-421.515	167.999	0.219	0.406
-420.500	-8.869	-0.275	0.238
-419.486	-114.608	-0.241	-0.059
-418.471	-95.926	-0.511	0.175
-417.457	-200.000	0.031	0.647
-416.442	-139.349	0.442	0.061
-415.428	-118.869	0.323	0.073
-414.413	-161.815	0.338	-0.022
-413.398	-135.712	-0.279	-0.042
-412.384	6.205	0.146	-0.140
-411.369	-200.000	0.006	0.179
-410.355	-13.311	-0.183	-0.154
-409.340	-94.749	-0.210	-0.073
-408.325	-36.152	-0.174	0.122
-407.311	363.265	0.157	0.410
-406.296	775.775	0.162	0.578
-405.282	0.536	-0.107	0.099
-404.267	68.239	-0.144	-0.191
-403.252	-136.618	-0.503	-0.075
-402.238	-63.648	0.394	0.208
-401.223	-37.713	-0.088	-0.061
-400.209	68.389	-0.081	-0.108
-399.194	-152.846	-0.137	0.012
-398.179	-110.497	0.063	-0.017
-397.165	66.594	-0.211	0.279
-396.150	800.000	0.033	-0.128
-395.136	800.000	0.063	-0.229
-394.121	42.627	0.240	0.283
-393.106	243.234	-0.113	-0.246
-392.092	-200.000	-0.054	0.354
-391.077	88.929	-0.161	-0.232
-390.063	-0.271	0.536	-0.493
-389.048	404.109	-0.081	0.221
-388.033	3.186	-0.320	0.301
-387.019	-10.646	0.193	-0.165
-386.004	-83.246	-0.107	-0.044
-384.990	-31.926	-0.083	-0.060
-383.975	-25.036	0.500	0.383
-382.960	-114.235	-0.234	-0.058
-381.946	357.697	0.136	0.352
-380.931	192.995	0.219	0.429
-379.917	355.825	0.136	-0.351
-378.902	219.831	-0.087	-0.181
-377.888	-48.102	-0.234	0.146
-376.873	111.848	-0.074	-0.116
-375.858	-55.877	0.205	-0.118
-374.844	33.233	0.080	0.089
-373.829	-134.206	0.395	-0.062
-372.815	45.917	-0.439	0.526
-371.800	-26.604	0.405	-0.306
-370.785	131.167	0.173	0.289
-369.771	-184.104	0.162	0.003
-368.756	122.512	-0.240	0.389
-367.742	-200.000	-0.008	-0.105
-366.727	-29.194	0.403	-0.298
-365.712	-200.000	-0.012	-0.178
-364.698	61.104	-0.112	-0.145
-363.683	26.325	-0.177	-0.191
-362.669	-160.913	0.480	-0.032
-361.654	-54.777	0.164	-0.096
-360.639	206.616	0.021	-0.042
-359.625	-200.000	0.002	0.028
-358.610	-15.606	0.217	-0.179
-357.596	5.546	0.139	0.133
-356.581	800.000	-0.073	0.343
-355.566	-133.739	-0.130	-0.021
-354.552	398.551	0.066	-0.179
-353.537	-91.388	-0.427	0.157
-352.523	-9.461	-0.172	0.148
-351.508	-47.920	0.388	-0.242
-350.493	312.620	0.017	0.041
-349.479	-32.824	-0.321	-0.230
-348.464	-15.533	-0.474	-0.390
-347.450	-34.145	-0.203	-0.144
-346.435	112.234	-0.203	-0.318
-345.420	-94.782	0.369	-0.129
-344.406	-123.945	-0.266	0.054
-343.391	446.910	-0.051	0.145
-342.377	-200.000	-0.002	0.037
-341.362	-89.050	0.354	-0.135
-340.348	800.000	0.170	0.803
-339.333	149.004	0.252	-0.441
-338.318	-149.947	-0.337	-0.034
-337.304	-115.866	0.470	-0.113
-336.289	-3.508	0.257	-0.231
-335.275	-73.402	-0.447	0.210
-334.260	-160.709	0.336	-0.023
-333.245	-113.632	0.678	0.170
-332.231	54.656	-0.077	0.096
-331.216	-67.424	-0.327	0.165
-330.202	-83.422	0.384	0.158
-329.187	-113.692	-0.289	-0.072
-328.172	-122.163	0.245	-0.051
-327.158	-143.394	0.736	0.090
-326.143	25.265	-0.096	0.103
-325.129	91.400	0.142	-0.207
-324.114	-22.305	0.334	0.261
-323.099	-91.674	-0.240	0.088
-322.085	-60.947	0.119	-0.065
-321.070	-153.747	-0.216	0.019
-320.056	126.069	0.109	0.178
-319.041	-45.148	-0.348	0.223
-318.026	-96.226	0.386	-0.131
-317.012	-24.983	-0.154	0.118
-315.997	-53.140	-0.131	0.077
-314.983	-200.000	0.015	-0.110
-313.968	-16.617	0.168	-0.137
-312.953	0.924	-0.408	-0.377
-311.939	220.335	-0.127	0.263
-310.924	-177.514	0.038	-0.001
-309.910	-68.558	0.374	0.186
-308.895	45.504	0.255	0.304
-307.880	-200.000	-0.051	-0.456
-306.866	42.419	-0.246	-0.289
-305.851	-69.197	0.310	-0.153
-304.837	-134.609	0.323	-0.050
-303.822	172.590	-0.072	0.135
-302.807	-200.000	0.035	0.213
-301.793	132.729	-0.171	0.285
-300.778	68.180	-0.314	-0.415
-299.764	-200.000	0.056	0.374
-298.749	800.000	0.039	0.173
-297.735	-108.183	0.003	-0.001
-296.720	72.639	0.248	0.334
-295.705	-200.000	-0.033	-0.235
-294.691	52.350	-0.123	0.152
-293.676	66.823	-0.075	0.098
-292.662	-200.000	0.009	-0.127
-291.647	85.637	-0.351	-0.498
-290.632	468.573	-0.204	-0.593
-289.618	-64.288	0.464	0.243
-288.603	-62.056	0.145	0.078
-287.589	-45.628	-0.389	0.247
-286.574	29.629	-0.200	0.220
-285.559	-106.214	0.314	-0.090
-284.545	800.000	-0.085	0.343
-283.530	623.393	-0.080	-0.262
-282.516	-145.326	-0.056	-0.006
-281.501	183.689	0.273	0.522
-280.486	800.000	0.090	0.340
-279.472	-16.526	-0.278	-0.227
-278.457	18.587	0.042	-0.044
-277.443	-200.000	0.004	0.155
-276.428	-83.532	-0.426	-0.175
-275.413	-9.336	0.185	0.159
-274.399	-49.180	0.349	0.214
-273.384	364.427	0.062	-0.162
-272.370	103.731	0.002	-0.002
-271.355	337.652	0.169	0.426
-270.340	10.713	0.246	-0.242
-269.326	-130.498	0.264	0.046
-268.311	-183.029	-0.519	0.012
-267.297	-44.225	0.146	0.094
-266.282	91.844	0.236	0.343
-265.267	41.249	0.267	-0.311
-264.253	-200.000	-0.019	0.368
-263.238	-122.263	0.325	-0.068
-262.224	-75.714	0.348	0.159
-261.209	-55.169	-0.079	-0.046
-260.195	-44.992	0.407	-0.260
-259.180	-200.000	0.035	-0.333
-258.165	-18.321	0.141	0.113
-257.151	-200.000	-0.056	0.618
-256.136	-47.660	-0.060	-0.037
-255.122	-132.053	-0.321	-0.053
-254.107	-70.935	-0.359	-0.174
-253.092	303.779	0.252	-0.604
-252.078	800.000	0.058	0.221
-251.063	20.423	-0.172	0.179
-250.049	800.000	-0.119	0.590
-249.034	-90.716	-0.132	0.049
-248.019	800.000	-0.150	0.588
-247.005	214.317	0.153	-0.312
-245.990	800.000	0.041	-0.156
-244.976	-7.269	0.339	-0.295
-243.961	-121.769	-0.137	0.029
-242.946	-59.190	-0.285	-0.157
-241.932	-161.599	0.136	0.009
-240.917	-123.212	-0.437	-0.089
-239.903	76.574	0.027	-0.037
-238.888	-113.270	0.303	-0.076
-237.873	565.165	0.117	-0.367
-236.859	-122.141	0.435	-0.091
-235.844	800.000	0.087	0.484
-234.830	-49.244	-0.138	-0.084
-233.815	197.127	-0.108	0.213
-232.800	-33.419	0.284	0.201
-231.786	22.534	0.045	0.048
-230.771	-21.078	0.247	0.194
-229.757	219.198	0.188	-0.388
-228.742	655.403	0.048	-0.159
-227.727	-200.000	-0.040	-0.486
-226.713	292.169	0.047	0.110
-225.698	-121.748	-0.387	0.082
-224.684	71.953	-0.363	-0.486
-223.669	-86.756	0.392	0.153
-222.655	-92.257	0.225	-0.081
-221.640	800.000	0.086	-0.460
-220.625	145.763	0.280	-0.484
-219.611	39.985	-0.065	-0.075
-218.596	369.902	-0.035	0.090
-217.582	-3.106	0.109	0.097
-216.567	363.285	0.091	-0.236
-215.552	459.549	-0.120	-0.344
-214.538	800.000	0.090	-0.445
-213.523	27.479	0.220	0.238
-212.509	800.000	0.023	-0.120
-211.494	-200.000	-0.015	-0.310
-210.479	-68.756	0.126	-0.062
-209.465	-59.853	0.423	-0.232
-208.450	-145.974	0.151	0.017
-207.436	-100.153	0.393	-0.125
-206.421	-200.000	0.006	-0.285
-205.406	475.056	0.082	-0.240
-204.392	-75.072	0.275	0.126
-203.377	12.005	0.285	-0.282
-202.363	57.678	0.156	-0.197
-201.348	-200.000	-0.037	-0.415
-200.333	212.620	-0.177	0.360
-199.319	-9.283	-0.124	-0.107
-198.304	-200.000	-0.022	-0.133
-197.290	-84.569	-0.490	-0.198
-196.275	800.000	0.028	0.121
-195.260	-169.143	0.218	-0.010
-194.246	614.998	0.125	0.404
-193.231	117.796	0.280	-0.444
-192.217	126.381	-0.157	0.256
-191.202	-168.026	-0.628	-0.031
-190.187	-53.941	-0.194	0.113
-189.173	-102.737	0.073	0.022
-188.158	34.388	-0.318	-0.356
-187.144	-45.611	-0.227	-0.144
-186.129	-104.794	0.315	0.092
-185.114	-108.311	0.261	0.072
-184.100	-54.176	-0.249	-0.145
-183.085	800.000	-0.135	-0.526
-182.071	9.646	0.213	-0.207
-181.056	-174.966	0.262	-0.009
-180.042	462.956	0.131	-0.379
-179.027	800.000	-0.155	0.554
-178.012	60.575	0.109	-0.139
-176.998	-172.152	-0.489	0.020
-175.983	52.160	-0.243	-0.298
-174.969	-200.000	-0.011	-0.353
-173.954	-3.699	0.233	-0.208
-172.939	51.729	-0.247	0.302
-171.925	-49.305	0.096	0.059
-170.910	-60.066	-0.349	0.191
-169.896	800.000	-0.077	0.304
-168.881	371.971	0.130	-0.339
-167.866	-99.230	0.326	-0.105
-166.852	-58.282	0.270	0.150
-165.837	114.270	0.389	-0.608
-164.823	36.050	-0.345	0.390
-163.808	800.000	0.044	-0.232
-162.793	123.381	0.349	0.563
-161.779	-112.042	-0.076	-0.020
-160.764	73.039	-0.269	-0.361
-159.750	-105.217	-0.051	0.015
-158.735	-131.390	-0.344	-0.058
-157.720	-66.770	-0.223	-0.113
-156.706	381.139	-0.177	0.469
-155.691	-84.357	0.371	0.150
-154.677	-200.000	0.056	-0.392
-153.662	19.901	-0.189	0.195
-152.647	300.801	0.253	-0.601
-151.633	51.077	0.097	-0.118
-150.618	-126.649	0.619	0.117
-149.604	-18.395	0.355	0.284
-148.589	-142.008	0.429	-0.054
-147.574	-200.000	-0.309	0.002
-146.560	-183.412	-0.330	0.007
-145.545	-80.856	0.509	-0.215
-144.531	11.862	0.178	0.175
-143.516	-53.338	-0.127	0.074
-142.502	-174.223	-0.328	0.012
-141.487	-112.140	0.333	-0.085
-140.472	140.449	-0.190	-0.322
-139.458	800.000	0.080	-0.413
-138.443	17.758	0.218	0.223
-137.429	-93.762	0.168	0.059
-136.414	373.987	-0.068	-0.177
-135.399	725.773	-0.077	-0.265
-134.385	128.704	-0.167	-0.273
-133.370	-4.973	0.259	0.228
-132.356	-100.300	0.172	0.054
-131.341	800.000	0.082	-0.302
-130.326	-200.000	-0.035	-0.205
-129.312	-115.684	0.495	0.118
-128.297	-126.212	0.186	0.035
-127.283	461.239	-0.098	-0.283
-126.268	149.375	0.184	-0.320
-125.253	128.091	0.151	0.247
-124.239	12.156	0.174	-0.171
-123.224	-110.374	-0.230	0.061
-122.210	-200.000	-0.059	0.417
-121.195	-104.224	-0.276	0.082
-120.180	-200.000	-0.001	-0.074
-119.166	-89.278	-0.352	-0.132
-118.151	-77.526	0.199	0.088
-117.137	-200.000	-0.023	0.203
-116.122	225.052	-0.146	-0.304
-115.107	-49.421	-0.235	-0.143
-114.093	-31.030	-0.165	-0.119
-113.078	-97.824	0.331	-0.109
-112.064	-78.809	-0.087	-0.038
-111.049	800.000	-0.070	-0.315
-110.034	348.831	-0.082	0.207
-109.020	-176.270	0.447	0.015
-108.005	-200.000	-0.035	0.228
-106.991	800.000	0.100	-0.424
-105.976	-159.969	0.159	0.011
-104.962	-76.838	-0.284	-0.126
-103.947	127.035	-0.190	0.308
-102.932	-93.073	-0.065	-0.023
-101.918	-91.995	-0.128	-0.046
-100.903	-121.739	0.727	0.153
-99.889	265.423	-0.292	0.655
-98.874	-200.000	-0.070	-0.512
-97.859	-167.680	0.316	0.016
-96.845	543.874	0.048	0.149
-95.830	-200.000	0.002	-0.071
-94.816	0.550	-0.183	-0.167
-93.801	28.811	-0.323	0.351
-92.786	436.573	-0.120	0.336
-91.772	367.886	-0.232	0.602
-90.757	10.123	0.252	0.245
-89.743	3.895	-0.183	0.171
-88.728	800.000	-0.162	0.721
-87.713	88.085	-0.374	0.531
-86.699	205.865	-0.044	-0.088
-85.684	325.564	-0.168	0.413
-84.670	-123.815	-0.378	-0.076
-83.655	-7.924	-0.232	-0.200
-82.640	107.713	0.036	-0.055
-81.626	68.987	0.364	-0.479
-80.611	-25.862	-0.083	-0.063
-79.597	-147.281	-0.597	0.064
-78.582	800.000	-0.066	-0.303
-77.567	-8.787	0.203	-0.174
-76.553	-56.224	-0.072	-0.041
-75.538	91.038	0.175	-0.251
-74.524	-17.498	-0.312	-0.251
-73.509	-6.869	0.096	-0.084
-72.494	270.304	-0.076	-0.172
-71.480	-112.798	0.098	-0.025
-70.465	143.662	0.227	0.387
-69.451	413.417	0.020	0.056
-68.436	49.188	0.077	-0.093
-67.422	-36.996	-0.158	-0.108
-66.407	-75.782	0.386	-0.174
-65.392	-13.883	0.408	-0.336
-64.378	-9.441	-0.281	0.240
-63.363	76.830	-0.165	-0.225
-62.349	-95.062	-0.274	-0.094
-61.334	31.213	-1.449	-1.589
-60.319	98.013	0.724	1.066
-59.305	207.830	-3.099	-6.204
-58.290	58.980	2.706	3.404
-57.276	361.670	3.942	10.146
-56.261	-200.000	13.891	244.047
-55.246	415.696	1210.291	3312.952
-54.232	56.393	2835.994	3524.916
-53.217	67.494	2697.256	3521.843
-52.203	43.895	2427.139	2841.791
-51.188	40.790	2087.985	2406.855
-50.173	34.093	1965.903	2188.902
-49.159	33.040	1954.034	2163.497
-48.144	32.375	1950.350	2151.682
-47.130	32.395	1947.306	2148.474
-46.115	32.305	1945.492	2145.357
-45.100	32.304	1943.857	2143.448
-44.086	32.343	1942.291	2142.082
-43.071	32.239	1941.918	2140.405
-42.057	32.263	1939.481	2137.900
-41.042	32.123	1938.782	2135.445
-40.027	32.220	1937.525	2135.090
-39.013	32.132	1935.728	2132.016
-37.998	32.066	1934.507	2129.834
-36.984	32.047	1933.595	2128.531
-35.969	32.075	1932.813	2127.907
-34.954	32.225	1929.915	2126.338
-33.940	32.089	1929.732	2124.500
-32.925	32.195	1928.068	2123.790
-31.911	32.068	1927.875	2122.045
-30.896	32.035	1926.386	2119.953
-29.881	32.022	1924.427	2117.566
-28.867	32.086	1923.397	2117.077
-27.852	32.203	1922.041	2116.822
-26.838	32.045	1920.889	2113.684
-25.823	32.011	1920.015	2112.250
-24.809	31.931	1919.667	2110.876
-23.794	31.901	1918.086	2108.720
-22.779	32.007	1915.782	2107.300
-21.765	32.055	1913.806	2105.578
-20.750	31.911	1913.839	2103.911
-19.736	32.089	1911.302	2103.038
-18.721	31.866	1911.270	2100.418
-17.706	31.893	1909.427	2098.609
-16.692	31.891	1908.205	2097.157
-15.677	31.951	1906.647	2096.040
-14.663	31.944	1904.672	2093.698
-13.648	31.976	1905.018	2094.360
-12.633	31.929	1903.093	2091.639
-11.619	31.992	1901.507	2090.517
-10.604	31.951	1900.623	2088.996
-9.590	31.970	1899.116	2087.473
-8.575	31.914	1897.924	2085.453
-7.560	31.874	1896.811	2083.707
-6.546	31.944	1894.999	2082.405
-5.531	31.948	1894.841	2082.196
-4.517	31.882	1893.554	2079.961
-3.502	31.862	1893.187	2079.259
-2.487	31.844	1891.311	2076.911
-1.473	32.015	1887.941	2075.031
-0.458	32.665	1871.387	2063.909
0.556	69.016	2015.155	2190.933
1.571	70.210	2238.466	2445.798
2.586	72.872	2287.651	2527.319
3.600	72.938	2291.539	2532.007
4.615	73.481	2290.149	2535.890
5.629	73.527	2288.942	2534.728
6.644	73.515	2287.240	2532.416
7.659	73.788	2284.635	2532.087
8.673	73.927	2283.870	2532.392
9.688	72.975	2286.852	2525.397
10.702	67.606	2355.599	2542.606
11.717	62.209	2415.915	2546.696
12.731	45.978	2381.035	2326.789
13.746	32.693	2352.556	2147.798
14.761	30.932	2347.156	2122.468
15.775	30.501	2346.599	2116.784
16.790	30.516	2344.366	2114.686
17.804	30.578	2342.560	2113.506
18.819	30.582	2341.360	2112.218
19.834	30.597	2339.951	2110.869
20.848	30.575	2338.472	2109.024
21.863	30.640	2336.641	2107.865
22.877	30.688	2335.205	2106.858
23.892	30.490	2332.970	2102.338
24.907	30.474	2330.533	2099.704
25.921	30.653	2328.238	2099.418
26.936	30.382	2327.426	2095.365
27.950	30.551	2323.310	2093.319
28.965	30.665	2320.785	2092.083
29.980	30.525	2320.687	2090.158
30.994	30.693	2318.775	2090.082
32.009	39.352	2342.576	2209.528
33.023	61.893	2401.455	2521.526
34.038	80.377	2442.159	2771.503
35.053	87.888	2454.309	2867.910
36.067	88.761	2451.141	2873.424
37.082	86.677	2445.316	2843.459
38.096	86.933	2444.783	2845.302
39.111	89.079	2448.407	2872.656
40.126	91.443	2452.126	2902.476
41.140	93.983	2456.066	2934.437
42.155	91.923	2447.810	2901.883
43.169	89.683	2441.630	2869.899
44.184	89.410	2437.807	2862.101
45.199	89.325	2436.062	2858.782
46.213	89.266	2433.990	2855.368
47.228	88.626	2434.022	2848.123
48.242	88.989	2430.742	2847.878
49.257	88.600	2428.518	2840.713
50.271	89.523	2429.764	2851.821
51.286	90.020	2427.360	2854.026
52.301	89.579	2425.103	2846.267
53.315	88.545	2420.675	2829.587
54.330	79.881	2393.401	2704.278
55.344	71.353	2372.683	2588.415
56.359	70.458	2366.971	2572.158
57.374	69.628	2363.899	2559.495
58.388	68.930	2359.809	2547.185
59.403	69.964	2358.719	2556.913
60.417	72.256	2361.800	2584.765
61.432	72.765	2359.557	2587.489
62.447	71.251	2355.200	2566.087
63.461	70.528	2352.106	2554.609
64.476	70.207	2349.307	2547.802
65.490	72.324	2353.956	2575.356
66.505	78.965	2371.165	2665.482
67.520	86.102	2386.370	2758.801
68.534	87.398	2384.968	2770.640
69.549	88.654	2385.326	2784.057
70.563	89.638	2384.560	2793.257
71.578	89.744	2384.891	2794.431
72.593	90.194	2383.553	2797.292
73.607	90.867	2383.351	2803.819
74.622	90.623	2379.520	2796.405
75.636	88.631	2372.737	2767.130
76.651	89.072	2371.925	2770.499
77.666	89.206	2369.855	2769.157
78.680	89.326	2368.505	2768.505
79.695	91.985	2373.393	2801.824
80.709	94.419	2378.469	2832.991
81.724	94.800	2376.247	2833.981
82.739	93.907	2370.785	2817.819
83.753	91.686	2362.820	2784.875
84.768	90.544	2359.563	2768.794
85.782	88.945	2355.478	2746.978
86.797	88.496	2352.132	2738.062
87.812	88.343	2349.260	2732.798
88.826	88.144	2347.031	2727.802
89.841	88.761	2345.616	2732.254
90.855	88.990	2344.387	2732.876
91.870	88.475	2341.765	2724.134
92.884	88.424	2340.690	2722.036
93.899	90.259	2343.455	2743.966
94.914	88.831	2336.745	2721.013
95.928	81.266	2318.524	2621.228
96.943	77.086	2309.236	2566.934
97.957	82.818	2322.897	2641.692
98.972	87.502	2328.749	2696.660
99.987	87.945	2326.348	2698.131
101.001	88.649	2324.616	2703.061
102.016	88.439	2323.074	2698.778
103.030	89.538	2322.915	2709.570
104.045	90.916	2325.852	2726.825
105.060	91.322	2322.575	2726.813
106.074	90.289	2318.521	2711.160
107.089	90.269	2318.016	2710.039
108.103	91.349	2319.649	2722.674
109.118	91.880	2318.034	2725.876
110.133	91.736	2315.128	2720.660
111.147	90.859	2311.419	2707.049
112.162	90.445	2309.932	2700.757
113.176	90.104	2306.524	2692.986
114.191	90.769	2306.143	2698.976
115.206	90.908	2303.077	2696.478
116.220	89.984	2299.361	2682.435
117.235	89.543	2296.666	2674.501
118.249	89.529	2295.075	2672.180
119.264	90.140	2294.967	2677.918
120.279	90.953	2294.466	2685.233
121.293	90.691	2291.886	2679.247
122.308	89.789	2287.986	2665.271
123.322	89.443	2287.435	2660.818
124.337	89.203	2282.735	2652.616
125.352	84.190	2269.460	2586.441
126.366	82.559	2268.758	2568.835
127.381	86.634	2273.171	2614.720
128.395	88.252	2274.374	2632.076
129.410	89.713	2275.997	2648.307
130.424	90.166	2274.736	2651.067
131.439	89.580	2272.062	2641.761
132.454	89.148	2270.489	2635.296
133.468	89.604	2268.001	2636.653
134.483	89.856	2267.069	2637.769
135.497	90.137	2265.792	2638.760
136.512	90.264	2263.109	2636.591
137.527	89.794	2260.863	2628.984
138.541	89.623	2259.558	2625.440
139.556	89.162	2257.564	2618.228
140.570	89.305	2256.819	2618.469
141.585	90.407	2256.956	2629.254
142.600	90.929	2256.017	2633.019
143.614	90.696	2254.165	2628.241
144.629	91.186	2254.228	2632.843
145.643	91.665	2253.148	2636.007
146.658	91.469	2250.628	2630.807
147.673	91.910	2249.987	2634.091
148.687	92.506	2248.881	2638.345
149.702	91.876	2247.087	2629.727
150.716	91.109	2244.670	2619.033
151.731	90.332	2240.581	2606.304
152.746	89.770	2237.433	2596.809
153.760	87.093	2229.594	2561.105
154.775	80.107	2210.583	2470.393
155.789	75.715	2203.100	2418.360
156.804	81.938	2217.448	2495.570
157.819	88.777	2226.146	2572.439
158.833	90.297	2227.668	2588.762
159.848	91.420	2227.940	2599.732
160.862	92.052	2226.503	2603.907
161.877	92.067	2225.431	2602.480
162.892	92.120	2225.608	2602.897
163.906	92.547	2225.895	2607.071
164.921	93.290	2225.836	2613.911
165.935	93.399	2221.331	2609.361
166.950	92.740	2218.577	2599.435
167.964	91.327	2213.101	2579.041
168.979	90.976	2210.904	2572.771
169.994	90.679	2210.594	2569.224
171.008	91.403	2208.609	2573.607
172.023	91.497	2207.992	2573.490
173.037	91.572	2207.379	2573.187
174.052	91.585	2204.977	2570.206
175.067	91.625	2203.369	2568.410
176.081	91.630	2201.426	2565.876
177.096	90.918	2198.666	2555.517
178.110	89.792	2195.767	2541.015
179.125	90.093	2194.805	2542.485
180.140	91.101	2194.630	2551.657
181.154	91.034	2192.877	2548.669
182.169	89.808	2190.370	2533.699
183.183	87.681	2181.188	2502.421
184.198	82.197	2167.236	2433.641
185.213	79.982	2164.635	2409.123
186.227	85.839	2174.881	2476.663
187.242	88.954	2178.236	2510.007
188.256	88.510	2176.914	2503.939
189.271	89.909	2178.475	2518.788
190.286	90.437	2177.154	2521.985
191.300	90.008	2173.215	2513.044
192.315	89.877	2171.061	2509.002
193.329	90.287	2171.587	2513.203
194.344	90.020	2169.464	2507.908
195.359	88.621	2165.803	2490.115
196.373	88.807	2163.946	2489.449
197.388	89.868	2165.216	2500.659
198.402	90.946	2165.102	2510.423
199.417	91.393	2163.581	2512.574
200.432	91.643	2162.156	2512.972
201.446	91.037	2160.062	2504.526
202.461	91.123	2158.423	2503.135
203.475	91.145	2157.164	2501.578
204.490	91.235	2155.379	2500.060
205.504	91.673	2153.783	2502.009
206.519	90.830	2149.246	2488.556
207.534	91.001	2149.209	2489.813
208.548	90.889	2147.030	2485.945
209.563	89.721	2143.400	2470.519
210.577	89.824	2142.628	2470.292
211.592	90.673	2142.512	2477.800
212.607	86.895	2128.758	2426.436
213.621	75.397	2104.900	2291.792
214.636	76.169	2110.431	2304.815
215.650	84.296	2123.596	2395.434
216.665	87.649	2128.344	2431.825
217.680	89.137	2129.310	2446.489
218.694	90.041	2128.700	2453.895
219.709	90.322	2128.233	2455.662
220.723	91.129	2128.336	2462.961
221.738	91.546	2126.941	2464.907
222.753	90.807	2122.479	2452.619
223.767	89.912	2119.631	2440.777
224.782	89.968	2117.487	2438.530
225.796	89.810	2115.990	2435.056
226.811	90.134	2116.554	2438.401
227.826	90.802	2114.874	2442.318
228.840	90.817	2113.648	2440.747
229.855	90.489	2112.165	2435.733
230.869	89.397	2107.770	2420.350
231.884	88.098	2102.751	2402.384
232.899	88.162	2102.628	2402.539
233.913	88.727	2102.459	2407.242
234.928	89.498	2103.470	2415.174
235.942	90.667	2103.842	2426.012
236.957	91.185	2103.112	2429.609
237.972	90.683	2101.268	2422.606
238.986	90.417	2099.599	2417.960
240.001	90.050	2096.706	2410.997
241.015	89.387	2094.345	2401.949
242.030	88.513	2090.695	2389.518
243.045	84.649	2078.824	2340.550
244.059	81.284	2073.496	2303.575
245.074	85.577	2079.902	2349.658
246.088	87.746	2080.532	2369.801
247.103	88.259	2079.269	2372.728
248.117	88.235	2079.799	2372.829
249.132	89.043	2078.321	2378.169
250.147	89.018	2076.113	2375.131
251.161	88.815	2075.028	2371.778
252.176	88.804	2073.853	2370.049
253.190	89.148	2072.210	2370.986
254.205	89.427	2071.621	2372.534
255.220	90.442	2071.871	2381.665
256.234	90.916	2071.475	2385.179
257.249	90.317	2067.825	2375.326
258.263	89.898	2068.137	2371.641
259.278	90.286	2067.860	2374.519
260.293	90.419	2066.668	2374.058
261.307	90.189	2063.797	2368.416
262.322	90.172	2061.694	2365.564
263.336	89.741	2058.978	2358.312
264.351	89.009	2055.347	2347.339
265.366	89.119	2054.853	2347.475
266.380	89.476	2054.013	2349.421
267.395	88.538	2050.371	2336.621
268.409	88.496	2049.503	2334.975
269.424	90.071	2051.784	2351.314
270.439	90.977	2050.805	2357.953
271.453	88.050	2040.273	2319.668
272.468	80.239	2022.442	2230.009
273.482	76.868	2019.697	2196.648
274.497	83.751	2030.531	2269.694
275.512	88.791	2035.506	2319.683
276.526	89.114	2034.633	2321.265
277.541	88.765	2033.124	2316.184
278.555	89.288	2032.315	2319.593
279.570	88.854	2029.307	2312.062
280.585	88.279	2026.576	2303.616
281.599	87.916	2025.572	2299.012
282.614	88.033	2024.579	2298.633
283.628	89.124	2026.381	2309.989
284.643	90.647	2027.823	2324.713
285.657	91.095	2026.511	2326.855
286.672	90.299	2023.333	2315.968
287.687	90.305	2022.081	2314.308
288.701	90.348	2019.246	2311.163
289.716	90.352	2019.125	2310.784
290.730	90.437	2017.242	2309.088
291.745	90.294	2014.029	2303.886
292.760	89.920	2013.186	2299.393
293.774	89.610	2013.371	2296.631
294.789	89.665	2010.797	2293.900
295.803	89.648	2008.380	2290.720
296.818	89.696	2007.361	2289.700
297.833	89.596	2006.042	2287.053
298.847	90.407	2006.566	2294.397
299.862	90.450	2004.199	2291.790
300.876	88.907	1997.360	2270.379
301.891	82.102	1979.715	2191.455
302.906	76.571	1974.505	2137.428
303.920	84.245	1988.603	2219.372
304.935	88.412	1992.146	2259.100
305.949	89.387	1993.200	2268.427
306.964	91.143	1995.101	2285.420
307.979	91.230	1992.698	2283.142
308.993	89.387	1987.420	2261.034
310.008	89.150	1986.253	2257.402
311.022	90.078	1987.351	2266.331
312.037	90.356	1984.473	2265.159
313.052	90.248	1982.183	2261.345
314.066	90.057	1980.780	2257.846
315.081	89.696	1979.936	2253.531
316.095	89.419	1977.548	2248.182
317.110	90.096	1976.514	2252.506
318.125	90.186	1976.357	2252.817
319.139	90.793	1975.360	2256.571
320.154	91.421	1975.227	2261.483
321.168	91.751	1973.535	2262.073
322.183	91.393	1971.820	2256.806
323.197	91.116	1970.522	2252.704
324.212	91.029	1968.306	2249.163
325.227	90.258	1965.765	2239.473
326.241	89.649	1962.779	2230.652
327.256	89.866	1961.806	2231.117
328.270	90.338	1961.029	2233.943
329.285	90.344	1960.542	2233.169
330.300	88.060	1953.031	2205.132
331.314	78.946	1934.436	2107.195
332.329	78.093	1936.243	2101.668
333.343	86.220	1948.892	2184.167
334.358	90.197	1954.113	2223.276
335.373	91.087	1952.966	2229.165
336.387	90.835	1951.440	2225.050
337.402	90.956	1948.834	2222.823
338.416	90.460	1946.311	2215.535
339.431	90.469	1945.053	2213.908
340.446	91.757	1945.874	2225.322
341.460	92.070	1945.583	2227.335
342.475	92.228	1943.875	2226.421
343.489	91.145	1939.861	2212.566
344.504	90.684	1938.426	2206.827
345.519	91.063	1936.620	2207.656
346.533	91.230	1935.491	2207.484
347.548	91.063	1933.471	2203.538
348.562	90.583	1931.596	2197.160
349.577	91.025	1931.973	2200.987
350.592	91.464	1931.586	2203.906
351.606	91.382	1929.270	2200.322
352.621	91.576	1928.418	2200.691
353.635	91.783	1927.013	2200.527
354.650	91.090	1925.002	2192.256
355.665	90.284	1922.033	2181.977
356.679	90.130	1919.691	2177.790
357.694	89.900	1918.601	2174.402
358.708	90.131	1918.203	2175.583
359.723	88.063	1909.182	2148.141
360.738	78.449	1889.938	2047.450
361.752	77.141	1892.359	2038.992
362.767	84.912	1902.435	2113.931
363.781	88.244	1906.100	2145.123
364.796	89.656	1906.936	2157.365
365.810	89.017	1903.931	2148.492
366.825	88.206	1901.592	2138.970
367.840	88.413	1900.893	2139.615
368.854	88.523	1898.866	2137.974
369.869	88.481	1898.961	2137.483
370.883	88.895	1896.825	2138.188
371.898	88.970	1896.084	2137.713
372.913	89.500	1896.542	2142.278
373.927	89.988	1895.345	2144.630
374.942	90.112	1894.462	2144.380
375.956	89.856	1892.372	2139.680
376.971	88.950	1889.154	2128.455
377.986	89.513	1888.500	2132.017
379.000	90.329	1889.156	2139.093
380.015	91.209	1888.390	2145.065
381.029	91.141	1885.844	2141.372
382.044	90.638	1884.780	2135.857
383.059	90.797	1882.987	2134.850
384.073	89.618	1879.379	2121.030
385.088	88.880	1878.078	2113.374
386.102	90.058	1879.449	2124.136
387.117	91.400	1878.906	2134.031
388.132	91.257	1877.608	2131.156
389.146	88.893	1869.881	2103.248
390.161	78.581	1848.717	1996.885
391.175	76.067	1848.371	1975.994
392.190	85.920	1862.010	2069.889
393.205	89.791	1865.152	2104.077
394.219	90.242	1865.015	2107.262
395.234	89.539	1862.788	2098.898
396.248	89.699	1860.918	2097.817
397.263	89.662	1858.382	2094.411
398.278	89.314	1855.564	2088.227
399.292	89.257	1855.667	2087.638
400.307	90.942	1858.140	2103.524
401.321	91.180	1855.154	2101.773
402.336	89.954	1852.111	2088.396
403.350	90.605	1852.906	2094.184
404.365	91.773	1854.226	2104.636
405.380	92.963	1855.664	2115.391
406.394	93.343	1853.776	2115.971
407.409	91.752	1848.519	2097.236
408.423	90.993	1845.219	2087.284
409.438	91.240	1844.430	2088.083
410.453	91.428	1844.037	2088.862
411.467	91.084	1843.600	2085.415
412.482	91.700	1842.993	2089.302
413.496	91.461	1839.785	2083.553
414.511	90.046	1836.704	2068.755
415.526	90.326	1834.882	2068.642
416.540	91.999	1836.019	2082.730
417.555	91.673	1833.463	2077.039
418.569	89.675	1830.977	2058.424
419.584	90.477	1832.632	2066.293
420.599	91.105	1830.963	2069.044
421.613	89.790	1827.283	2054.418
422.628	88.987	1825.782	2046.243
423.642	90.668	1827.570	2061.078
424.657	91.635	1825.146	2065.584
425.672	88.981	1819.799	2038.751
426.686	89.286	1820.319	2041.460
427.701	90.952	1821.933	2055.928
428.715	92.218	1822.691	2066.317
429.730	93.782	1823.990	2079.607
430.745	94.354	1822.965	2082.596
431.759	93.377	1819.876	2071.309
432.774	89.385	1806.688	2025.467
433.788	75.686	1780.520	1890.917
434.803	66.621	1768.033	1807.159
435.818	65.646	1765.447	1796.691
436.832	65.828	1763.805	1796.226
437.847	64.848	1758.082	1782.560
438.861	53.048	1729.106	1661.844
439.876	35.724	1702.328	1501.458
440.890	31.044	1695.662	1458.705
441.905	30.682	1694.312	1454.526
442.920	30.589	1693.495	1452.923
443.934	30.683	1691.917	1452.130
444.949	30.620	1690.283	1450.059
445.963	30.616	1690.061	1449.658
446.978	30.422	1690.103	1448.007
447.993	30.439	1688.713	1446.774
449.007	30.608	1686.236	1445.800
450.022	30.600	1683.360	1443.098
451.036	30.664	1682.461	1442.647
452.051	31.663	1687.867	1454.921
453.066	44.792	1714.243	1580.762
454.080	60.998	1735.932	1727.106
455.095	66.098	1742.459	1772.721
456.109	68.514	1746.798	1795.497
457.124	69.420	1746.541	1801.961
458.139	68.779	1743.936	1794.152
459.153	68.390	1742.191	1789.170
460.168	68.459	1740.999	1788.254
461.182	68.500	1740.259	1787.591
462.197	68.850	1738.007	1787.737
463.212	69.064	1736.116	1787.202
464.226	69.172	1735.477	1787.155
465.241	69.115	1734.955	1785.969
466.255	69.301	1732.915	1785.061
467.270	69.397	1731.824	1784.451
468.285	69.276	1730.975	1782.445
469.299	69.441	1730.738	1783.237
470.314	69.774	1729.345	1784.110
471.328	69.892	1728.401	1783.811
472.343	70.237	1727.828	1785.614
473.358	70.366	1726.317	1784.813
474.372	70.524	1725.177	1784.606
475.387	70.957	1724.855	1787.321
476.401	70.803	1723.808	1784.864
477.416	70.168	1721.256	1777.235
478.430	70.143	1719.624	1775.151
479.445	70.669	1719.512	1778.766
480.460	70.938	1718.409	1779.435
481.474	71.066	1717.306	1779.037
482.489	70.778	1716.377	1775.699
483.503	70.418	1713.336	1769.655
484.518	69.841	1711.824	1763.563
485.533	70.230	1711.507	1765.933
486.547	70.333	1708.765	1763.656
487.562	69.609	1706.234	1755.440
488.576	69.810	1706.373	1756.876
489.591	70.609	1706.247	1762.478
490.606	70.870	1705.067	1762.993
491.620	71.090	1703.257	1762.539
492.635	70.586	1701.045	1756.304
493.649	69.871	1698.869	1748.551
494.664	69.818	1697.366	1746.400
495.679	70.067	1697.358	1748.027
496.693	69.995	1695.587	1745.455
497.708	69.916	1694.053	1743.084
498.722	69.620	1692.276	1738.861
499.737	69.646	1690.867	1737.400
500.752	69.751	1689.467	1736.525
501.766	69.628	1687.214	1733.094
502.781	69.557	1685.900	1731.012
503.795	69.472	1684.582	1728.829
504.810	69.501	1683.318	1727.540
505.825	69.579	1681.494	1726.028
506.839	69.080	1680.460	1721.103
507.854	69.134	1679.834	1720.655
508.868	69.038	1678.224	1718.091
509.883	68.658	1676.165	1712.999
510.898	68.373	1674.359	1708.871
511.912	67.994	1672.630	1704.129
512.927	68.215	1670.809	1703.685
513.941	68.114	1669.717	1701.626
514.956	68.554	1669.847	1704.760
515.971	69.347	1668.715	1709.165
516.985	68.938	1666.401	1703.627
518.000	68.417	1665.163	1698.370
519.014	68.114	1664.264	1695.048
520.029	68.147	1662.039	1692.819
521.043	68.112	1660.984	1691.288
522.058	68.308	1660.607	1692.125
523.073	68.284	1659.905	1691.033
524.087	68.007	1657.954	1686.837
525.102	68.321	1656.877	1687.807
526.116	69.011	1656.005	1691.688
527.131	69.431	1655.204	1693.695
528.146	69.098	1654.245	1690.114
529.160	68.964	1652.891	1687.564
530.175	68.988	1651.937	1686.557
531.189	69.067	1651.585	1686.561
532.204	69.257	1649.106	1685.190
533.219	69.622	1648.532	1687.018
534.233	69.987	1649.638	1690.558
535.248	70.137	1647.806	1689.552
536.262	69.710	1646.127	1684.580
537.277	69.937	1645.274	1685.126
538.292	70.322	1644.551	1686.924
539.306	70.258	1643.016	1684.695
540.321	69.835	1640.477	1678.880
541.335	69.456	1637.512	1672.950
542.350	69.821	1637.797	1675.634
543.365	70.300	1636.587	1677.594
544.379	70.331	1635.939	1676.944
545.394	70.135	1634.510	1673.891
546.408	69.765	1632.249	1668.758
547.423	70.008	1631.737	1669.750
548.438	70.263	1630.630	1670.221
549.452	69.966	1630.368	1667.654
550.467	69.944	1628.890	1665.785
551.481	69.596	1627.037	1661.233
552.496	69.361	1625.407	1657.720
553.511	69.016	1623.159	1652.796
554.525	68.803	1621.558	1649.468
555.540	68.524	1620.991	1646.733
556.554	68.748	1619.583	1646.679
557.569	68.640	1617.943	1644.057
558.583	68.738	1616.149	1642.720
559.598	68.691	1615.145	1641.173
560.613	68.545	1614.661	1639.463
561.627	68.335	1613.010	1636.122
562.642	68.099	1610.253	1631.476
563.656	67.676	1608.149	1626.196
564.671	67.375	1607.278	1623.022
565.686	67.381	1606.477	1622.056
566.700	67.586	1604.857	1621.655
567.715	67.842	1603.200	1621.569
568.729	68.171	1602.477	1622.926
569.744	68.691	1602.246	1626.110
570.759	68.905	1600.623	1625.750
571.773	68.385	1599.313	1620.625
572.788	68.120	1598.282	1617.547
573.802	68.022	1596.186	1614.554
574.817	67.753	1593.609	1609.898
575.832	67.267	1592.444	1605.168
576.846	67.656	1592.354	1607.575
577.861	68.247	1591.818	1610.911
578.875	68.377	1590.373	1610.153
579.890	68.371	1589.156	1608.690
580.905	68.343	1588.574	1607.711
581.919	68.321	1588.330	1607.117
582.934	68.533	1587.326	1607.366
583.948	68.443	1585.656	1604.864
584.963	68.552	1584.938	1604.691
585.978	69.010	1584.650	1607.347
586.992	69.094	1583.897	1606.961
588.007	69.106	1582.512	1605.449
589.021	69.216	1581.140	1604.617
590.036	68.649	1578.712	1598.092
591.051	68.494	1578.882	1597.013
592.065	68.871	1577.380	1597.871
593.080	69.231	1576.387	1599.124
594.094	69.512	1574.229	1598.649
595.109	69.606	1572.494	1597.333
596.123	70.023	1571.840	1599.304
597.138	69.520	1570.560	1594.408
598.153	68.973	1569.498	1589.428
599.167	69.067	1568.056	1588.414
600.182	69.143	1566.975	1587.640
601.196	69.144	1565.968	1586.441
602.211	68.905	1564.182	1582.828
603.226	68.532	1561.693	1577.606
604.240	68.472	1560.265	1575.568
605.255	68.505	1559.338	1574.669
606.269	68.300	1557.966	1571.714
607.284	68.263	1556.529	1569.828
608.299	68.057	1555.264	1566.981
609.313	68.311	1553.647	1566.866
610.328	68.110	1553.039	1564.717
611.342	67.992	1550.461	1561.145
612.357	67.822	1550.042	1559.394
613.372	67.891	1549.267	1558.889
614.386	67.684	1547.286	1555.324
615.401	67.479	1547.038	1553.522
616.415	67.236	1546.689	1551.358
617.430	67.024	1544.992	1548.057
618.445	66.981	1542.238	1544.825
619.459	67.039	1541.659	1544.444
620.474	67.348	1541.336	1545.994
621.488	67.862	1541.761	1549.651
622.503	68.879	1541.249	1555.701
623.518	68.177	1538.081	1547.670
624.532	67.231	1535.786	1538.913
625.547	67.070	1535.053	1536.927
626.561	66.790	1533.149	1532.979
627.576	66.652	1532.181	1530.919
628.591	67.275	1532.339	1535.011
629.605	68.126	1531.855	1539.959
630.620	68.254	1531.265	1540.021
631.634	69.099	1531.107	1545.242
632.649	69.246	1529.697	1544.596
633.663	68.252	1527.657	1535.824
634.678	67.534	1524.960	1528.219
635.693	66.911	1522.713	1521.692
636.707	66.761	1521.321	1519.140
637.722	66.566	1519.650	1516.009
638.736	66.757	1518.738	1516.164
639.751	67.099	1519.351	1518.835
640.766	67.371	1517.976	1519.056
641.780	67.289	1515.798	1516.158
642.795	67.648	1515.173	1517.692
643.809	67.942	1514.678	1518.930
644.824	67.773	1514.919	1517.887
645.839	68.059	1513.928	1518.569
646.853	68.000	1512.216	1516.292
647.868	67.991	1511.150	1514.980
648.882	68.420	1509.899	1516.328
649.897	68.587	1508.950	1516.270
650.912	68.583	1508.308	1515.417
651.926	68.891	1507.279	1516.198
652.941	68.736	1505.460	1513.184
653.955	68.558	1503.810	1510.192
654.970	68.134	1501.471	1504.934
655.985	67.542	1499.831	1499.298
656.999	67.477	1497.726	1496.591
658.014	67.494	1496.953	1495.751
659.028	67.883	1497.398	1498.513
660.043	68.568	1497.580	1502.915
661.058	68.875	1496.636	1503.755
662.072	68.913	1494.808	1501.983
663.087	68.826	1493.945	1500.378
664.101	68.455	1492.745	1496.625
665.116	68.308	1490.911	1493.663
666.131	68.181	1489.348	1491.109
667.145	68.069	1488.035	1488.899
668.160	67.842	1486.694	1485.935
669.174	67.624	1484.885	1482.555
670.189	67.408	1483.915	1480.036
671.204	67.591	1483.368	1480.475
672.218	67.720	1482.264	1480.016
673.233	67.637	1481.127	1478.176
674.247	67.462	1479.502	1475.267
675.262	67.438	1478.168	1473.610
676.276	67.291	1477.126	1471.462
677.291	67.348	1476.660	1471.183
678.306	67.583	1475.722	1471.558
679.320	67.643	1473.946	1469.991
680.335	67.119	1473.128	1465.690
681.349	67.053	1472.044	1464.015
682.364	67.104	1470.911	1463.035
683.379	66.965	1469.654	1460.731
684.393	66.852	1467.740	1457.948
685.408	66.547	1467.037	1455.154
686.422	66.652	1465.819	1454.432
687.437	66.532	1465.025	1452.715
688.452	66.210	1463.597	1449.104
689.466	66.239	1461.629	1447.166
690.481	66.427	1460.171	1446.724
691.495	66.701	1460.928	1449.016
692.510	67.806	1461.570	1456.385
693.525	68.786	1461.134	1461.893
694.539	68.218	1458.874	1455.921
695.554	66.875	1457.037	1445.544
696.568	66.196	1454.331	1438.460
697.583	66.142	1453.650	1437.275
698.598	66.125	1452.828	1436.184
699.612	66.266	1451.420	1435.494
700.627	66.640	1449.878	1436.118
701.641	66.953	1448.778	1436.796
702.656	67.140	1448.351	1437.359
703.671	66.978	1447.594	1435.434
704.685	67.012	1447.442	1435.318
705.700	67.193	1446.903	1435.734
706.714	67.774	1445.638	1437.890
707.729	68.085	1445.029	1439.031
708.744	68.199	1444.662	1439.193
709.758	68.160	1442.794	1436.918
710.773	67.741	1441.170	1432.557
711.787	67.187	1439.838	1427.654
712.802	67.827	1438.115	1429.700
713.816	68.175	1437.968	1431.518
714.831	68.258	1437.551	1431.440
715.846	68.121	1435.806	1428.688
716.860	68.032	1433.903	1426.078
717.875	67.987	1432.917	1424.657
718.889	67.946	1432.034	1423.356
719.904	67.616	1431.051	1420.197
720.919	67.825	1429.128	1419.389
721.933	67.624	1428.051	1416.926
722.948	67.331	1427.284	1414.214
723.962	67.342	1425.627	1412.468
724.977	67.192	1424.022	1409.800
725.992	66.829	1423.362	1406.772
727.006	67.136	1421.995	1407.113
728.021	67.014	1420.495	1404.719
729.035	66.901	1419.307	1402.695
730.050	66.749	1418.664	1400.969
731.065	66.850	1417.298	1400.061
732.079	66.831	1415.632	1398.131
733.094	66.764	1414.968	1396.906
734.108	67.198	1413.539	1397.938
735.123	66.969	1411.996	1394.869
736.138	66.712	1410.765	1391.939
737.152	66.596	1410.242	1390.562
738.167	66.509	1408.635	1388.288
739.181	66.501	1408.005	1387.452
740.196	66.461	1407.024	1386.081
741.211	66.277	1406.416	1384.209
742.225	66.459	1405.034	1383.774
743.240	66.324	1403.480	1381.268
744.254	66.163	1401.911	1378.597
745.269	65.923	1401.040	1376.141
746.284	65.771	1400.043	1374.091
747.298	65.901	1399.570	1374.239
748.313	66.342	1398.717	1375.865
749.327	66.954	1399.498	1380.110
750.342	67.825	1399.744	1385.366
751.356	68.629	1399.000	1389.236
752.371	68.236	1397.481	1385.232
753.386	66.839	1394.352	1373.688
754.400	66.167	1392.077	1367.308
755.415	66.552	1391.068	1368.429
756.429	66.549	1390.221	1367.413
757.444	66.656	1389.391	1367.066
758.459	66.479	1388.541	1365.019
759.473	66.455	1386.675	1362.883
760.488	66.533	1386.312	1362.820
761.502	66.779	1384.805	1362.620
762.517	67.035	1383.736	1362.908
763.532	67.369	1383.949	1364.914
764.546	67.394	1383.174	1364.137
765.561	67.180	1382.263	1361.820
766.575	66.587	1380.420	1356.362
767.590	66.374	1379.411	1353.960
768.605	67.167	1378.508	1357.555
769.619	67.777	1377.837	1360.291
770.634	67.699	1376.187	1358.042
771.648	67.031	1374.554	1352.378
772.663	66.781	1373.192	1349.421
773.678	66.503	1372.119	1346.582
774.692	66.555	1370.947	1345.574
775.707	66.239	1371.200	1343.822
776.721	66.333	1369.974	1343.010
777.736	66.280	1368.162	1340.760
778.751	66.266	1367.562	1339.932
779.765	66.220	1366.594	1338.554
780.780	65.937	1365.928	1336.104
781.794	65.907	1365.071	1334.932
782.809	66.033	1362.922	1333.397
783.824	65.541	1362.088	1329.576
784.838	65.952	1361.413	1331.134
785.853	67.126	1361.721	1338.047
786.867	67.221	1360.558	1337.291
787.882	66.400	1359.148	1331.021
788.897	65.919	1357.849	1326.820
789.911	65.619	1356.349	1323.470
790.926	65.665	1354.811	1322.075
791.940	65.472	1353.192	1319.229
792.955	65.304	1352.020	1316.960
793.969	65.507	1350.677	1316.658
794.984	65.666	1350.480	1317.218
795.999	65.820	1349.440	1316.927
797.013	65.609	1347.954	1314.116
798.028	65.571	1346.848	1312.659
799.042	65.854	1345.543	1312.841
800.057	65.905	1344.558	1312.014
801.072	65.795	1343.476	1310.177
802.086	65.918	1342.260	1309.529
803.101	65.853	1340.751	1307.536
804.115	65.781	1340.851	1307.063
805.130	65.849	1340.028	1306.489
806.145	66.022	1338.792	1306.112
807.159	66.240	1337.564	1305.986
808.174	66.421	1337.211	1306.510
809.188	66.619	1336.684	1306.957
810.203	66.996	1335.199	1307.474
811.218	67.050	1333.609	1306.064
812.232	66.955	1332.021	1303.815
813.247	66.387	1331.100	1299.564
814.261	66.765	1331.075	1301.509
815.276	66.564	1330.351	1299.517
816.291	66.383	1328.075	1296.124
817.305	66.176	1326.971	1293.727
818.320	65.835	1325.298	1290.032
819.334	65.845	1323.376	1288.065
820.349	65.698	1322.516	1286.251
821.364	65.624	1320.912	1284.124
822.378	65.866	1319.168	1283.621
823.393	65.879	1317.727	1282.138
824.407	65.617	1316.393	1279.230
825.422	65.342	1316.705	1277.850
826.437	65.389	1315.784	1277.060
827.451	65.512	1314.054	1275.912
828.466	66.122	1314.230	1279.312
829.480	66.956	1312.992	1282.569
830.495	66.331	1310.221	1276.257
831.509	65.716	1308.066	1270.614
832.524	65.252	1307.205	1267.066
833.539	65.230	1306.181	1265.797
834.553	65.527	1304.402	1265.558
835.568	65.495	1303.021	1263.892
836.582	65.578	1303.052	1264.226
837.597	65.627	1301.580	1262.914
838.612	65.627	1299.711	1260.950
839.626	65.969	1299.676	1262.638
840.641	66.369	1299.745	1264.740
841.655	66.309	1299.455	1263.977
842.670	66.358	1297.858	1262.539
843.685	65.992	1296.251	1258.830
844.699	66.162	1295.262	1258.647
845.714	66.212	1293.942	1257.480
846.728	65.990	1292.821	1255.036
847.743	65.756	1291.581	1252.408
848.758	65.605	1290.417	1250.310
849.772	65.419	1288.844	1247.625
850.787	65.411	1287.193	1245.831
851.801	65.268	1286.040	1243.793
852.816	65.352	1285.054	1243.143
853.831	65.016	1283.687	1239.857
854.845	65.249	1281.666	1239.013
855.860	65.096	1280.012	1236.440
856.874	65.229	1279.319	1236.341
857.889	65.549	1279.060	1237.661
858.904	66.310	1278.475	1241.038
859.918	66.854	1277.367	1242.731
860.933	67.226	1277.076	1244.292
861.947	66.530	1275.357	1238.741
862.962	65.886	1273.195	1233.052
863.977	65.576	1271.467	1229.574
864.991	65.187	1270.313	1226.229
866.006	64.836	1269.990	1223.893
867.020	65.000	1268.858	1223.535
868.035	65.076	1267.057	1222.054
869.049	65.180	1266.055	1221.492
870.064	65.348	1264.757	1220.989
871.079	65.208	1264.272	1219.629
872.093	65.397	1264.095	1220.314
873.108	65.685	1263.520	1221.144
874.122	65.790	1262.163	1220.242
875.137	65.806	1262.006	1220.026
876.152	66.049	1261.535	1220.713
877.166	65.856	1259.748	1217.816
878.181	65.814	1258.056	1215.812
879.195	65.275	1257.651	1212.429
880.210	65.227	1256.279	1210.711
881.225	65.148	1254.947	1208.865
882.239	65.158	1253.527	1207.403
883.254	65.049	1252.581	1205.773
884.268	65.090	1251.551	1204.853
885.283	65.465	1250.332	1205.502
886.298	65.227	1248.773	1202.607
887.312	65.100	1247.525	1200.594
888.327	65.093	1246.803	1199.718
889.341	65.250	1244.757	1198.429
890.356	65.092	1244.508	1197.219
891.371	64.895	1244.806	1196.333
892.385	64.971	1244.436	1196.233
893.400	64.997	1242.959	1194.803
894.414	65.013	1242.002	1193.824
895.429	65.426	1241.404	1195.250
896.444	66.594	1241.808	1201.567
897.458	67.797	1240.692	1206.577
898.473	67.256	1238.956	1201.946
899.487	66.251	1236.584	1194.308
900.502	65.488	1234.903	1188.601
901.517	65.179	1233.494	1185.504
902.531	64.950	1232.624	1183.345
903.546	64.914	1231.890	1182.310
904.560	65.000	1231.657	1182.390
905.575	64.982	1230.561	1181.100
906.589	65.015	1229.486	1180.098
907.604	65.135	1228.972	1180.080
