DTS Sentinel unit serial number:	SN409020Multiplexer serial number:	ORYXHardware model number:	OX4-SRSoftware version number:	ORYX F/W v3.00 Oryx Data Collector v3.7.2.0data status	okinstallation	HaddamTimeLapsedifferential loss correction	single-endedforward channel	channel 3reverse channel	N/Adate	2011/06/22time	03:26:17forward acquisition time	30.00reverse acquisition time	0.00gamma	498.7831k internal	0.1751k external	0.1751temperature offset calibration	1.0074default loss term (dB/km)	0.3790temperature slope calibration	1.3530multiplexer offset coefficient	1.0000multiplexer slope coefficient	1.0000fibre end	0.00T internal ref (°C)	22.31T ext. ref 1 (°C)	17.85T ext. ref 2 (°C)	0.08length (m)	temperature (°C)	Stokes	anti-Stokes-747.200	-90.368	0.178	0.068
-746.185	111.397	0.136	0.218
-745.171	298.779	-0.103	-0.253
-744.156	-98.049	-0.056	0.019
-743.142	-73.023	-0.159	0.077
-742.127	-200.000	-0.011	-0.097
-741.112	-89.354	-0.380	0.148
-740.098	226.564	-0.076	0.164
-739.083	-89.765	-0.170	0.066
-738.069	-185.192	-0.678	-0.014
-737.054	800.000	0.049	-0.228
-736.039	22.371	-0.246	0.267
-735.025	-94.865	0.504	0.180
-734.010	115.289	0.223	0.363
-732.996	-35.501	0.274	-0.197
-731.981	-75.773	-0.393	0.184
-730.966	-119.204	-0.168	-0.039
-729.952	-43.840	-0.136	0.090
-728.937	613.532	-0.027	-0.090
-727.923	65.077	-0.200	0.268
-726.908	41.896	-0.181	-0.218
-725.894	-52.377	-0.499	0.305
-724.879	-58.324	-0.199	-0.114
-723.864	-80.292	0.160	-0.071
-722.850	-69.780	0.396	0.200
-721.835	-115.924	-0.053	0.013
-720.821	-76.039	-0.292	-0.136
-719.806	245.256	0.184	-0.413
-718.791	-200.000	0.018	-0.418
-717.777	-200.000	-0.016	0.215
-716.762	800.000	0.126	-0.547
-715.748	800.000	0.094	0.494
-714.733	289.682	0.051	0.124
-713.718	-70.246	0.294	-0.148
-712.704	-200.000	0.024	0.145
-711.689	-200.000	0.067	0.754
-710.675	205.712	0.055	-0.115
-709.660	-25.243	-0.629	-0.493
-708.645	-152.643	-0.262	-0.025
-707.631	-136.075	-0.188	0.029
-706.616	-76.260	0.132	-0.061
-705.602	-92.653	-0.166	0.061
-704.587	-10.106	0.146	0.129
-703.572	-172.631	-0.270	-0.011
-702.558	-6.724	-0.171	-0.154
-701.543	103.010	0.116	-0.180
-700.529	-72.414	0.310	0.152
-699.514	62.577	-0.196	-0.260
-698.499	22.421	0.105	0.114
-697.485	-200.000	-0.061	-0.391
-696.470	-177.658	0.239	-0.008
-695.456	37.084	0.181	-0.213
-694.441	-72.627	0.173	-0.084
-693.426	-85.552	0.245	0.100
-692.412	-176.772	-0.153	-0.005
-691.397	800.000	-0.077	0.320
-690.383	-69.093	0.133	0.068
-689.368	42.818	-0.176	-0.213
-688.354	-17.680	0.230	0.191
-687.339	287.869	-0.253	-0.608
-686.324	-108.167	0.400	-0.114
-685.310	138.543	-0.046	0.080
-684.295	48.321	-0.076	-0.095
-683.281	-88.192	-0.247	-0.097
-682.266	-168.773	0.488	-0.024
-681.251	267.992	-0.105	0.246
-680.237	800.000	0.029	0.169
-679.222	-116.314	-0.171	-0.042
-678.208	-135.374	0.312	-0.049
-677.193	75.126	-0.160	-0.224
-676.178	800.000	0.053	0.196
-675.164	-53.044	0.231	-0.140
-674.149	277.841	0.209	0.496
-673.135	-63.552	-0.363	-0.197
-672.120	-200.000	0.020	-0.142
-671.105	-83.278	0.290	-0.123
-670.091	-200.000	-0.003	-0.604
-669.076	-200.000	-0.030	-0.590
-668.062	-76.751	-0.183	0.085
-667.047	121.987	0.140	0.232
-666.032	-200.000	-0.016	-0.423
-665.018	-19.958	0.507	-0.414
-664.003	523.143	0.149	0.465
-662.989	-146.218	-0.141	0.016
-661.974	-146.478	0.357	0.041
-660.959	-17.514	-0.283	-0.235
-659.945	-49.737	-0.352	-0.221
-658.930	-26.267	0.341	0.265
-657.916	-112.752	0.426	-0.111
-656.901	-109.406	0.449	0.125
-655.886	-89.325	0.402	-0.156
-654.872	154.955	-0.185	-0.338
-653.857	-59.475	-0.296	0.168
-652.843	-49.454	0.587	0.370
-651.828	-200.000	-0.008	-0.303
-650.814	146.953	-0.088	-0.157
-649.799	-49.840	0.125	-0.079
-648.784	-197.486	0.211	-0.002
-647.770	104.503	-0.150	0.234
-646.755	-109.361	-0.141	-0.039
-645.741	58.882	-0.339	-0.441
-644.726	181.502	-0.174	-0.339
-643.711	-123.349	-0.353	0.074
-642.697	206.834	-0.200	0.413
-641.682	-122.835	0.179	-0.038
-640.668	-200.000	0.012	-0.319
-639.653	-160.245	-0.616	-0.043
-638.638	-127.631	0.337	0.064
-637.624	-72.016	-0.085	-0.042
-636.609	-140.760	0.203	-0.027
-635.595	-98.761	0.140	-0.047
-634.580	23.536	-0.246	-0.268
-633.565	800.000	-0.017	0.086
-632.551	-126.038	-0.234	0.046
-631.536	74.444	0.274	0.382
-630.522	-67.834	0.395	0.204
-629.507	-188.418	0.144	0.002
-628.492	188.854	-0.226	0.448
-627.478	800.000	-0.047	-0.264
-626.463	190.251	0.169	-0.336
-625.449	-100.443	-0.138	-0.045
-624.434	-200.000	-0.015	0.186
-623.419	-115.838	0.058	-0.014
-622.405	271.879	-0.152	-0.355
-621.390	800.000	0.046	0.183
-620.376	-135.693	-0.136	0.021
-619.361	-85.409	-0.304	-0.125
-618.346	298.921	0.126	-0.309
-617.332	-34.482	0.486	0.351
-616.317	269.148	-0.063	0.147
-615.303	800.000	0.050	-0.263
-614.288	726.978	-0.125	0.442
-613.273	-20.012	0.215	-0.175
-612.259	-18.220	0.095	0.078
-611.244	-41.781	-0.112	-0.076
-610.230	376.212	0.156	-0.424
-609.215	204.753	0.232	0.477
-608.201	800.000	0.076	-0.292
-607.186	-200.000	0.035	0.237
-606.171	183.011	-0.065	-0.127
-605.157	-11.722	0.226	0.196
-604.142	647.929	0.159	0.541
-603.128	-82.003	-0.563	0.242
-602.113	-200.000	-0.018	0.288
-601.098	67.349	-0.249	0.337
-600.084	800.000	0.142	0.599
-599.069	427.572	-0.184	-0.528
-598.055	47.160	0.101	-0.125
-597.040	38.968	0.240	0.283
-596.025	-169.281	0.246	0.012
-595.011	115.865	-0.043	0.069
-593.996	-200.000	0.007	0.081
-592.982	40.523	0.343	0.408
-591.967	14.688	0.223	0.230
-590.952	-12.451	0.375	-0.323
-589.938	800.000	-0.056	-0.256
-588.923	-122.154	-0.630	0.135
-587.909	33.546	-0.122	-0.140
-586.894	-196.177	-0.372	0.003
-585.879	-96.096	0.228	0.080
-584.865	4.558	0.413	0.400
-583.850	406.904	0.106	-0.296
-582.836	172.617	-0.229	0.437
-581.821	-100.451	-0.125	-0.041
-580.806	579.480	0.091	0.295
-579.792	-89.215	-0.462	0.179
-578.777	-200.000	-0.035	0.234
-577.763	-79.732	0.084	0.037
-576.748	-200.000	-0.019	0.157
-575.733	292.950	0.137	0.331
-574.719	-139.983	0.724	0.100
-573.704	522.225	-0.115	-0.359
-572.690	378.883	0.099	-0.269
-571.675	624.426	-0.216	-0.722
-570.661	209.983	-0.029	0.061
-569.646	-75.596	0.240	-0.112
-568.631	107.473	-0.249	-0.392
-567.617	6.085	0.152	0.149
-566.602	-63.356	0.277	-0.150
-565.588	-72.745	-0.567	-0.274
-564.573	-200.000	0.010	0.196
-563.558	-168.243	-0.178	-0.009
-562.544	-66.572	0.410	-0.214
-561.529	158.542	0.210	-0.385
-560.515	20.120	-0.289	-0.308
-559.500	-67.648	-0.345	-0.178
-558.485	800.000	0.058	0.268
-557.471	-21.416	0.104	0.084
-556.456	-200.000	0.020	0.268
-555.442	-186.023	-0.110	0.002
-554.427	-200.000	0.007	0.448
-553.412	-111.126	0.141	-0.038
-552.398	-168.250	-0.142	0.007
-551.383	-200.000	-0.018	0.147
-550.369	-53.517	-0.123	-0.074
-549.354	8.823	0.104	0.103
-548.339	215.316	-0.073	0.153
-547.325	-43.072	-0.368	0.245
-546.310	53.432	0.252	-0.319
-545.296	23.368	-0.213	-0.231
-544.281	-85.122	-0.210	0.086
-543.266	73.243	-0.103	0.143
-542.252	40.134	0.201	0.239
-541.237	800.000	-0.057	0.226
-540.223	-109.736	0.406	-0.112
-539.208	-16.658	-0.283	-0.236
-538.193	-130.766	0.303	0.053
-537.179	-200.000	-0.122	0.889
-536.164	-88.572	-0.144	0.056
-535.150	-18.617	-0.225	-0.185
-534.135	268.082	-0.324	-0.750
-533.121	420.463	-0.102	-0.290
-532.106	-154.115	-0.279	0.025
-531.091	-125.423	-0.404	-0.080
-530.077	172.114	-0.156	0.296
-529.062	-102.368	0.537	-0.169
-528.048	-3.676	0.107	0.098
-527.033	-75.913	-0.348	0.161
-526.018	115.136	0.139	-0.224
-525.004	-122.390	0.434	0.092
-523.989	-176.504	-0.105	0.003
-522.975	15.561	-0.230	-0.238
-521.960	228.557	-0.028	0.059
-520.945	-70.948	0.126	0.062
-519.931	-200.000	-0.053	0.409
-518.916	-2.388	0.313	-0.288
-517.902	-200.000	-0.026	-0.274
-516.887	-200.000	0.022	-0.231
-515.872	237.702	0.086	-0.189
-514.858	11.289	-0.023	-0.024
-513.843	50.357	0.115	-0.143
-512.829	-135.877	0.212	-0.033
-511.814	-97.882	0.459	-0.155
-510.799	-7.846	-0.221	0.196
-509.785	124.964	-0.113	0.188
-508.770	-106.340	0.168	-0.049
-507.756	-200.000	0.002	0.072
-506.741	-200.000	-0.026	-0.285
-505.726	-200.000	-0.016	-0.335
-504.712	-18.755	-0.033	-0.027
-503.697	319.411	0.122	0.305
-502.683	-200.000	0.016	-0.281
-501.668	-200.000	0.022	-0.482
-500.653	126.521	-0.283	-0.473
-499.639	-120.064	-0.278	-0.062
-498.624	-64.362	0.073	0.039
-497.610	124.849	-0.117	-0.194
-496.595	-53.355	-0.056	0.033
-495.581	180.211	0.155	0.301
-494.566	-120.364	0.064	0.014
-493.551	49.063	-0.092	-0.113
-492.537	-200.000	-0.046	-0.431
-491.522	124.892	-0.111	0.185
-490.508	341.996	-0.121	0.313
-489.493	-51.864	0.428	0.261
-488.478	-139.418	0.153	-0.021
-487.464	-134.224	-0.316	-0.051
-486.449	-62.378	0.300	0.163
-485.435	-164.925	0.619	-0.036
-484.420	-125.169	-0.347	0.069
-483.405	15.495	0.031	-0.032
-482.391	83.400	0.098	-0.141
-481.376	-200.000	-0.008	-0.376
-480.362	-153.459	0.286	-0.026
-479.347	-104.640	0.202	-0.061
-478.332	711.225	0.011	-0.037
-477.318	-11.776	0.156	0.134
-476.303	-175.086	-0.650	0.023
-475.289	210.007	-0.203	-0.420
-474.274	51.763	0.275	-0.345
-473.259	142.492	-0.075	-0.132
-472.245	389.582	0.156	0.426
-471.230	-200.000	0.565	0.002
-470.216	-90.791	-0.578	-0.218
-469.201	266.094	-0.163	0.375
-468.186	49.281	-0.426	0.527
-467.172	24.928	-0.180	0.196
-466.157	-112.122	-0.295	-0.077
-465.143	-153.466	-0.657	-0.059
-464.128	29.367	-0.173	0.193
-463.113	800.000	-0.008	-0.032
-462.099	88.407	0.113	-0.165
-461.084	-59.323	-0.424	-0.239
-460.070	-158.549	0.262	0.020
-459.055	55.586	0.149	0.189
-458.040	-47.966	-0.344	0.218
-457.026	-127.410	-0.526	-0.100
-456.011	-164.896	-0.301	0.017
-454.997	34.425	0.310	0.355
-453.982	-166.207	-0.216	0.012
-452.968	-171.601	-0.136	0.006
-451.953	20.836	-0.251	0.267
-450.938	-103.380	0.287	0.088
-449.924	137.808	-0.027	0.046
-448.909	239.882	-0.184	0.403
-447.895	-132.895	0.220	-0.036
-446.880	-98.494	0.082	-0.027
-445.865	108.267	-0.198	-0.311
-444.851	-69.577	-0.021	0.010
-443.836	-50.407	0.346	-0.214
-442.822	-199.574	0.169	-0.001
-441.807	-113.624	0.232	-0.059
-440.792	-53.315	0.382	0.229
-439.778	-21.499	0.521	0.417
-438.763	-186.786	0.090	-0.002
-437.749	-200.000	0.515	0.002
-436.734	-47.588	0.103	-0.065
-435.719	-200.000	0.038	0.000
-434.705	-200.000	0.018	0.293
-433.690	-21.213	-0.023	0.018
-432.676	-63.815	0.375	-0.201
-431.661	202.704	-0.113	-0.230
-430.646	115.068	0.275	-0.442
-429.632	-25.447	0.552	-0.427
-428.617	-150.516	0.490	0.049
-427.603	-200.000	-0.027	0.219
-426.588	43.209	0.257	0.308
-425.573	-200.000	-0.038	0.278
-424.559	-6.178	0.169	0.151
-423.544	-200.000	-0.002	0.103
-422.530	-88.425	-0.419	0.163
-421.515	-62.973	-0.090	0.049
-420.500	-186.837	-0.480	0.009
-419.486	-141.734	-0.137	-0.018
-418.471	-180.030	-0.480	-0.013
-417.457	595.042	0.151	-0.492
-416.442	189.051	-0.020	-0.040
-415.428	-170.030	-0.325	0.015
-414.413	800.000	0.007	0.036
-413.398	-156.671	-0.217	-0.017
-412.384	-66.943	-0.068	0.035
-411.369	-200.000	0.074	0.632
-410.355	-86.721	-0.287	-0.115
-409.340	618.602	-0.071	-0.235
-408.325	51.502	0.100	0.125
-407.311	800.000	-0.028	-0.115
-406.296	-155.970	0.293	0.024
-405.282	-39.577	-0.101	-0.069
-404.267	-174.003	-0.217	-0.008
-403.252	299.094	-0.099	0.241
-402.238	-200.000	-0.007	-0.060
-401.223	-163.409	-0.477	-0.029
-400.209	-200.000	-0.060	-0.417
-399.194	-110.412	0.161	0.043
-398.179	145.742	0.224	-0.394
-397.165	800.000	-0.065	-0.251
-396.150	177.674	-0.247	-0.474
-395.136	-179.664	0.202	-0.006
-394.121	-55.393	-0.409	-0.239
-393.106	27.992	-0.221	-0.244
-392.092	-86.576	-0.753	0.301
-391.077	-200.000	-0.040	0.312
-390.063	-75.506	0.320	0.149
-389.048	-76.216	-0.049	0.023
-388.033	-200.000	0.105	-0.650
-387.019	101.282	-0.220	0.336
-386.004	-200.000	0.087	0.504
-384.990	-20.884	-0.012	-0.010
-383.975	595.794	-0.102	0.333
-382.960	800.000	-0.036	-0.168
-381.946	-134.244	0.279	0.045
-380.931	-61.262	0.209	0.115
-379.917	800.000	-0.064	0.264
-378.902	48.946	0.187	-0.230
-377.888	27.340	0.201	0.221
-376.873	-65.217	0.246	0.129
-375.858	-111.238	-0.296	0.079
-374.844	-117.052	-0.086	-0.020
-373.829	31.596	0.268	-0.301
-372.815	304.740	-0.226	0.551
-371.800	35.464	-0.134	-0.154
-370.785	33.815	0.384	0.437
-369.771	800.000	-0.095	0.473
-368.756	302.296	0.050	0.122
-367.742	-77.346	0.244	0.110
-366.727	800.000	-0.031	0.152
-365.712	48.080	0.184	0.225
-364.698	-105.326	0.276	0.082
-363.683	-59.582	-0.222	0.124
-362.669	-99.061	0.218	-0.072
-361.654	157.090	-0.139	0.252
-360.639	133.428	0.109	-0.184
-359.625	-154.418	0.223	0.019
-358.610	-196.554	0.416	0.004
-357.596	10.403	-0.139	-0.138
-356.581	431.897	0.106	0.303
-355.566	800.000	0.127	-0.623
-354.552	696.756	0.076	0.262
-353.537	5.200	0.239	-0.230
-352.523	-82.227	0.134	0.057
-351.508	800.000	0.022	-0.082
-350.493	33.021	-0.100	0.114
-349.479	-50.918	0.090	-0.055
-348.464	175.475	0.133	-0.253
-347.450	-200.000	-0.023	-0.511
-346.435	152.781	-0.099	0.177
-345.420	-38.305	-0.339	0.234
-344.406	-200.000	-0.010	-0.146
-343.391	-64.436	0.182	-0.097
-342.377	-90.694	-0.229	0.086
-341.362	0.320	-0.241	-0.225
-340.348	-103.506	-0.288	0.088
-339.333	-105.112	0.340	0.101
-338.318	-77.035	-0.588	0.267
-337.304	-131.445	0.306	-0.052
-336.289	87.431	0.304	-0.441
-335.275	-200.000	-0.067	-0.476
-334.260	174.219	0.138	-0.262
-333.245	-133.419	-0.563	-0.092
-332.231	160.418	-0.167	0.305
-331.216	-134.601	-0.300	-0.047
-330.202	-200.000	-0.026	0.291
-329.187	-83.203	-0.557	0.233
-328.172	-58.754	0.276	-0.156
-327.158	-57.573	-0.293	0.167
-326.143	-121.383	0.076	0.016
-325.129	-75.812	0.457	0.211
-324.114	562.078	0.126	-0.401
-323.099	-145.131	0.062	0.007
-322.085	800.000	0.078	-0.434
-321.070	-50.114	-0.252	0.156
-320.056	-42.635	0.093	0.061
-319.041	-139.837	-0.211	0.029
-318.026	54.783	0.125	-0.158
-317.012	-79.111	0.455	-0.201
-315.997	-17.008	0.279	-0.230
-314.983	800.000	0.061	0.281
-313.968	-52.615	0.165	-0.100
-312.953	-50.112	0.137	0.084
-311.939	-200.000	-0.017	0.121
-310.924	-109.515	-0.149	0.041
-309.910	-152.115	0.284	-0.027
-308.895	-9.462	-0.066	0.058
-307.880	-50.822	-0.283	-0.173
-306.866	-25.055	-0.133	0.103
-305.851	430.633	-0.094	0.268
-304.837	-16.568	0.287	-0.237
-303.822	-200.000	-0.017	-0.543
-302.807	18.634	-0.308	0.322
-301.793	184.758	-0.134	0.261
-300.778	-104.502	-0.567	-0.170
-299.764	-27.527	-0.301	0.228
-298.749	-200.000	-0.017	0.479
-297.735	20.885	0.474	-0.501
-296.720	-58.323	-0.028	-0.016
-295.705	-200.000	0.024	0.288
-294.691	-130.553	0.465	-0.081
-293.676	443.059	-0.039	0.113
-292.662	-117.715	-0.204	-0.048
-291.647	-24.727	-0.240	0.186
-290.632	-174.517	0.421	-0.015
-289.618	-100.673	0.294	0.094
-288.603	124.754	0.129	0.212
-287.589	-76.285	-0.239	-0.109
-286.574	57.033	-0.200	-0.255
-285.559	800.000	0.048	0.235
-284.545	789.150	0.106	0.382
-283.530	44.726	0.224	0.269
-282.516	800.000	-0.051	-0.210
-281.501	-55.991	-0.348	-0.202
-280.486	-200.000	0.015	-0.101
-279.472	57.607	-0.103	0.132
-278.457	-72.447	-0.116	0.056
-277.443	-141.997	0.360	-0.046
-276.428	241.257	0.100	-0.219
-275.413	-98.343	-0.333	0.111
-274.399	-143.410	0.167	-0.021
-273.384	185.325	0.333	-0.647
-272.370	7.952	-0.088	0.086
-271.355	-200.000	0.045	0.413
-270.340	143.956	-0.052	-0.090
-269.326	-57.246	-0.425	0.243
-268.311	-118.343	-0.426	-0.098
-267.297	-38.262	0.217	0.150
-266.282	30.389	0.234	0.261
-265.267	-200.000	0.037	0.311
-264.253	-36.943	0.251	-0.175
-263.238	157.546	-0.250	-0.453
-262.224	-30.997	0.226	-0.166
-261.209	-195.682	-0.138	0.001
-260.195	-142.793	-0.271	-0.034
-259.180	800.000	-0.080	0.405
-258.165	-106.908	0.356	0.102
-257.151	-109.684	-0.153	0.042
-256.136	-97.831	0.068	0.023
-255.122	-64.455	0.183	0.096
-254.107	20.676	-0.307	0.323
-253.092	-66.548	0.402	0.207
-252.078	236.826	0.127	0.275
-251.063	-166.183	-0.545	0.030
-250.049	248.373	0.106	-0.235
-249.034	73.301	-0.140	0.191
-248.019	11.771	0.181	-0.181
-247.005	-98.311	-0.278	0.092
-245.990	-200.000	0.049	0.315
-244.976	-105.586	0.429	-0.126
-243.961	90.258	0.077	0.112
-242.946	-7.327	0.169	-0.149
-241.932	203.441	-0.247	-0.500
-240.917	154.949	0.286	-0.514
-239.903	48.050	-0.381	0.464
-238.888	-145.702	-0.231	-0.027
-237.873	346.544	0.021	-0.054
-236.859	58.257	-0.185	0.236
-235.844	291.783	0.174	0.415
-234.830	-53.650	-0.238	-0.141
-233.815	123.037	0.148	-0.241
-232.800	-113.866	-0.155	0.039
-231.786	-18.919	0.051	0.042
-230.771	8.195	-0.247	-0.241
-229.757	635.575	-0.073	0.241
-228.742	-179.052	-0.314	0.009
-227.727	-200.000	0.006	-0.316
-226.713	-20.254	0.088	0.070
-225.698	-170.930	-0.282	-0.012
-224.684	266.494	0.105	0.239
-223.669	-200.000	0.004	-0.115
-222.655	125.439	0.140	-0.231
-221.640	-126.160	-0.055	0.011
-220.625	800.000	0.087	0.355
-219.611	521.515	-0.065	-0.201
-218.596	-58.429	-0.129	0.072
-217.582	102.626	-0.199	-0.304
-216.567	142.516	0.317	-0.549
-215.552	-60.017	0.308	0.171
-214.538	141.791	-0.252	-0.435
-213.523	800.000	0.072	-0.351
-212.509	733.470	0.070	0.246
-211.494	82.146	0.113	-0.159
-210.479	-58.691	-0.127	0.071
-209.465	-74.115	0.217	-0.102
-208.450	-40.441	0.136	0.092
-207.436	-114.977	-0.252	0.062
-206.421	-133.100	-0.547	0.089
-205.406	-200.000	0.032	-0.311
-204.392	-85.216	0.562	-0.228
-203.377	-187.972	0.178	-0.003
-202.363	-84.375	0.092	-0.038
-201.348	-8.455	-0.117	0.102
-200.333	-64.812	-0.192	0.101
-199.319	-76.462	0.255	-0.116
-198.304	-132.296	-0.363	-0.060
-197.290	154.308	-0.176	-0.314
-196.275	-200.000	0.003	0.134
-195.260	800.000	-0.106	-0.432
-194.246	-200.000	-0.038	-0.223
-193.231	-117.741	-0.246	0.057
-192.217	-64.073	0.263	-0.139
-191.202	-2.288	-0.118	-0.107
-190.187	425.584	0.089	-0.252
-189.173	-100.967	0.140	-0.044
-188.158	-114.839	0.327	-0.080
-187.144	-81.153	0.327	0.140
-186.129	-200.000	0.016	-0.402
-185.114	-33.893	-0.366	0.261
-184.100	800.000	-0.068	0.354
-183.085	-141.785	0.196	0.025
-182.071	263.945	-0.118	0.268
-181.056	-113.219	-0.356	-0.090
-180.042	513.110	-0.162	-0.494
-179.027	800.000	0.053	-0.241
-178.012	-87.969	0.069	-0.027
-176.998	-73.025	0.089	-0.042
-175.983	-70.151	-0.153	0.075
-174.969	-87.171	-0.491	0.193
-173.954	-200.000	0.065	0.420
-172.939	-39.703	-0.113	-0.076
-171.925	-160.555	0.245	0.017
-170.910	-200.000	-0.051	-0.570
-169.896	299.086	-0.083	-0.199
-168.881	-152.076	0.149	0.014
-167.866	-24.155	0.280	-0.217
-166.852	106.173	-0.086	-0.132
-165.837	-1.821	-0.171	-0.156
-164.823	28.940	0.460	-0.506
-163.808	-200.000	-0.019	0.142
-162.793	800.000	-0.034	0.140
-161.779	-34.544	0.242	-0.172
-160.764	-156.326	-0.425	0.034
-159.750	157.044	0.222	0.400
-158.735	49.097	0.291	0.355
-157.720	-63.172	0.498	0.266
-156.706	-63.853	0.538	-0.285
-155.691	-85.092	0.126	0.051
-154.677	-191.859	-0.249	-0.003
-153.662	-157.828	0.376	-0.029
-152.647	-43.427	0.295	0.193
-151.633	318.713	0.143	0.353
-150.618	-93.899	0.438	-0.156
-149.604	-114.131	0.415	0.103
-148.589	34.579	0.191	0.216
-147.574	203.740	-0.121	0.244
-146.560	-85.969	0.262	-0.105
-145.545	-200.000	-0.011	0.131
-144.531	-200.000	0.043	0.329
-143.516	-200.000	0.011	0.166
-142.502	800.000	0.057	0.288
-141.487	-145.854	-0.489	-0.056
-140.472	407.523	-0.010	-0.028
-139.458	-200.000	-0.017	0.179
-138.443	-84.673	0.042	-0.017
-137.429	-121.144	0.189	-0.041
-136.414	-150.216	-0.280	-0.028
-135.399	-124.155	0.608	0.123
-134.385	-200.000	-0.083	-0.952
-133.370	-31.668	0.208	-0.151
-132.356	-136.171	0.427	0.064
-131.341	-119.095	0.255	0.057
-130.326	319.980	-0.103	-0.254
-129.312	-43.371	-0.161	0.105
-128.297	-91.284	0.307	0.113
-127.283	-200.000	-0.019	0.201
-126.268	367.387	0.230	-0.606
-125.253	-122.794	-0.342	-0.071
-124.239	111.902	-0.195	0.307
-123.224	345.776	0.212	0.542
-122.210	-200.000	-0.062	0.837
-121.195	79.425	0.052	-0.072
-120.180	371.847	-0.208	0.549
-119.166	3.230	-0.099	0.093
-118.151	3.688	0.466	0.441
-117.137	-78.799	0.098	-0.043
-116.122	800.000	0.123	0.537
-115.107	44.655	0.074	0.089
-114.093	-103.583	-0.335	-0.101
-113.078	-91.172	0.559	0.206
-112.064	-75.687	-0.467	-0.214
-111.049	-65.553	0.320	-0.166
-110.034	699.505	0.085	-0.291
-109.020	-101.706	-0.188	-0.059
-108.005	-135.703	0.241	0.037
-106.991	-47.417	0.321	0.202
-105.976	-200.000	0.015	0.140
-104.962	-117.241	-0.148	-0.035
-103.947	-90.908	0.084	-0.031
-102.932	-89.897	-0.664	0.250
-101.918	-41.716	0.243	-0.161
-100.903	-7.365	-0.356	-0.312
-99.889	-200.000	0.012	-0.218
-98.874	311.984	0.150	0.366
-97.859	-200.000	-0.002	0.079
-96.845	800.000	-0.025	-0.100
-95.830	-141.299	0.258	0.034
-94.816	-73.361	-0.103	0.049
-93.801	800.000	-0.054	-0.263
-92.786	-82.398	-0.224	0.094
-91.772	-134.848	-0.219	0.034
-90.757	-38.261	-0.560	-0.383
-89.743	-133.054	0.418	0.068
-88.728	-135.726	0.195	0.030
-87.713	-45.284	0.118	-0.076
-86.699	41.338	-0.013	-0.015
-85.684	6.986	0.239	0.230
-84.670	-69.602	0.130	-0.064
-83.655	178.612	0.237	-0.450
-82.640	-49.467	-0.211	-0.130
-81.626	277.072	0.114	0.263
-80.611	-189.875	-0.468	0.007
-79.597	-74.448	-0.577	0.268
-78.582	46.350	-0.114	0.136
-77.567	-3.859	-0.294	0.264
-76.553	-105.481	-0.233	0.068
-75.538	120.245	-0.178	-0.286
-74.524	3.351	0.192	0.181
-73.509	-82.591	0.160	-0.067
-72.494	-14.666	-0.133	-0.110
-71.480	242.473	0.129	0.280
-70.465	-55.722	0.207	-0.119
-69.451	-200.000	-0.033	0.243
-68.436	-49.952	0.050	-0.031
-67.422	145.786	-0.191	-0.331
-66.407	-71.624	-0.179	0.086
-65.392	-200.000	-0.124	0.728
-64.378	-112.392	0.283	0.073
-63.363	130.824	-0.061	-0.101
-62.349	171.169	-0.095	0.177
-61.334	57.345	-2.126	-2.686
-60.319	61.891	1.162	1.499
-59.305	220.327	-3.813	-7.932
-58.290	30.388	4.773	5.275
-57.276	434.236	3.770	10.645
-56.261	-200.000	25.008	321.800
-55.246	350.872	1309.881	3366.000
-54.232	52.575	2849.102	3521.042
-53.217	51.241	2659.048	3265.404
-52.203	31.381	2389.142	2653.919
-51.188	27.482	2056.214	2235.998
-50.173	24.226	1941.895	2073.586
-49.159	23.136	1930.562	2048.723
-48.144	22.652	1926.724	2038.935
-47.130	22.612	1923.976	2035.482
-46.115	22.510	1922.154	2032.298
-45.100	22.418	1920.832	2029.756
-44.086	22.493	1919.330	2028.952
-43.071	22.503	1917.497	2027.048
-42.057	22.490	1915.884	2025.114
-41.042	22.465	1915.574	2024.416
-40.027	22.436	1913.814	2022.139
-39.013	22.469	1912.209	2020.749
-37.998	22.400	1911.174	2018.775
-36.984	22.478	1909.560	2017.884
-35.969	22.508	1908.260	2016.787
-34.954	22.480	1906.780	2014.810
-33.940	22.492	1905.389	2013.409
-32.925	22.442	1904.180	2011.467
-31.911	22.396	1903.266	2009.894
-30.896	22.372	1901.292	2007.464
-29.881	22.482	1899.599	2006.852
-28.867	22.360	1898.611	2004.333
-27.852	22.321	1898.000	2003.158
-26.838	22.379	1895.651	2001.264
-25.823	22.301	1895.491	2000.124
-24.809	22.217	1893.868	1997.377
-23.794	22.312	1892.747	1997.196
-22.779	22.205	1891.537	1994.623
-21.765	22.336	1889.012	1993.374
-20.750	22.284	1889.092	1992.787
-19.736	22.123	1888.763	1990.522
-18.721	22.252	1886.224	1989.236
-17.706	22.351	1884.703	1988.680
-16.692	22.334	1883.843	1987.504
-15.677	22.255	1882.762	1985.388
-14.663	22.316	1882.012	1985.208
-13.648	22.207	1880.010	1981.775
-12.633	22.226	1878.401	1980.216
-11.619	22.228	1877.637	1979.353
-10.604	22.242	1876.599	1978.344
-9.590	22.186	1875.630	1976.608
-8.575	22.244	1873.694	1975.148
-7.560	22.194	1872.672	1973.426
-6.546	22.227	1871.489	1972.472
-5.531	22.208	1871.218	1971.902
-4.517	22.296	1869.132	1970.616
-3.502	22.216	1869.065	1969.561
-2.487	22.227	1867.212	1967.650
-1.473	22.435	1863.556	1966.060
-0.458	22.213	1845.423	1944.383
0.556	18.837	1993.308	2047.545
1.571	17.463	2196.487	2237.842
2.586	18.252	2235.827	2288.253
3.600	18.300	2238.002	2290.859
4.615	18.245	2237.098	2288.909
5.629	18.150	2235.822	2286.063
6.644	18.313	2232.327	2284.399
7.659	18.247	2231.181	2282.073
8.673	18.306	2228.535	2279.882
9.688	17.996	2238.354	2285.481
10.702	17.196	2317.894	2355.268
11.717	15.732	2382.281	2399.426
12.731	7.313	2362.559	2259.096
13.746	1.094	2345.476	2153.858
14.761	0.220	2343.081	2138.923
15.775	0.162	2340.397	2135.392
16.790	0.070	2339.128	2132.674
17.804	0.061	2337.104	2130.438
18.819	0.057	2336.200	2129.306
19.834	0.052	2334.591	2127.515
20.848	-0.073	2333.848	2124.798
21.863	0.078	2331.754	2124.781
22.877	-0.035	2330.907	2122.151
23.892	0.057	2327.474	2120.082
24.907	0.083	2324.684	2117.657
25.921	0.063	2323.573	2116.109
26.936	0.069	2320.263	2112.918
27.950	0.034	2318.213	2110.303
28.965	0.011	2316.890	2108.526
29.980	0.046	2315.628	2107.612
30.994	0.037	2313.245	2105.067
32.009	4.019	2324.606	2171.379
33.023	13.244	2351.694	2327.487
34.038	17.265	2358.528	2390.933
35.053	17.590	2355.653	2392.320
36.067	17.674	2354.012	2391.561
37.082	17.626	2351.774	2388.319
38.096	17.617	2349.883	2385.988
39.111	17.696	2347.930	2384.831
40.126	17.839	2345.821	2384.413
41.140	17.980	2344.517	2384.783
42.155	17.911	2342.323	2381.289
43.169	17.858	2340.155	2378.069
44.184	17.834	2337.156	2374.401
45.199	17.761	2335.118	2371.024
46.213	17.723	2334.407	2369.485
47.228	17.847	2333.528	2370.037
48.242	17.702	2331.349	2365.516
49.257	17.874	2329.431	2365.685
50.271	17.929	2326.063	2362.754
51.286	17.705	2324.888	2358.154
52.301	17.704	2322.975	2355.921
53.315	18.127	2324.971	2363.539
54.330	19.966	2329.237	2393.174
55.344	21.255	2327.919	2409.416
56.359	21.377	2324.991	2407.785
57.374	21.402	2324.772	2407.612
58.388	21.537	2322.942	2407.293
59.403	21.450	2318.843	2401.567
60.417	21.333	2315.584	2396.287
61.432	21.391	2313.636	2394.784
62.447	21.533	2313.255	2396.063
63.461	21.774	2311.399	2397.162
64.476	21.906	2308.707	2395.899
65.490	21.522	2307.744	2389.343
66.505	21.047	2303.822	2378.489
67.520	19.448	2298.225	2350.546
68.534	18.143	2291.502	2325.555
69.549	17.906	2287.082	2317.560
70.563	17.841	2285.189	2314.481
71.578	17.792	2283.527	2311.846
72.593	17.679	2282.706	2309.203
73.607	17.864	2280.837	2309.552
74.622	17.954	2278.792	2308.435
75.636	17.906	2275.458	2304.118
76.651	17.714	2275.216	2301.004
77.666	17.813	2272.145	2298.961
78.680	17.818	2269.808	2296.388
79.695	17.861	2267.426	2294.287
80.709	17.743	2266.891	2291.879
81.724	17.752	2265.431	2290.238
82.739	17.869	2261.834	2287.907
83.753	17.584	2260.078	2282.029
84.768	17.613	2258.212	2280.260
85.782	17.566	2256.992	2278.119
86.797	17.649	2254.801	2276.745
87.812	17.573	2253.313	2273.948
88.826	17.680	2251.352	2273.141
89.841	17.712	2248.505	2270.415
90.855	17.751	2245.925	2268.067
91.870	17.687	2245.056	2266.058
92.884	17.719	2243.104	2264.239
93.899	17.774	2242.126	2263.715
94.914	18.077	2243.652	2269.039
95.928	19.814	2248.371	2296.737
96.943	20.322	2246.232	2301.044
97.957	18.629	2237.822	2269.663
98.972	17.739	2233.995	2253.701
99.987	17.510	2231.049	2247.421
101.001	17.683	2228.568	2246.940
102.016	17.661	2226.418	2244.210
103.030	17.633	2224.487	2241.633
104.045	17.701	2222.135	2239.882
105.060	17.737	2220.462	2238.409
106.074	17.689	2218.826	2235.863
107.089	17.734	2216.302	2233.636
108.103	17.750	2215.645	2232.921
109.118	17.762	2214.139	2231.292
110.133	17.799	2212.319	2229.677
111.147	17.718	2210.956	2226.975
112.162	17.727	2209.101	2224.961
113.176	17.814	2206.433	2223.142
114.191	17.850	2205.318	2222.230
115.206	17.838	2203.494	2219.962
116.220	17.787	2201.693	2217.217
117.235	17.740	2199.744	2214.374
118.249	17.689	2197.848	2211.534
119.264	17.736	2195.522	2209.543
120.279	17.790	2195.215	2209.678
121.293	17.832	2192.034	2206.753
122.308	17.831	2190.595	2205.031
123.322	17.739	2190.240	2203.210
124.337	18.208	2191.457	2210.263
125.352	19.948	2196.406	2237.618
126.366	20.250	2193.435	2238.238
127.381	18.478	2184.946	2206.394
128.395	17.859	2180.415	2193.564
129.410	17.764	2179.048	2190.698
130.424	17.686	2178.064	2188.439
131.439	17.560	2176.016	2184.495
132.454	17.716	2174.099	2184.322
133.468	17.773	2171.675	2182.353
134.483	17.913	2169.634	2181.849
135.497	17.900	2167.748	2179.521
136.512	17.737	2167.079	2176.493
137.527	17.822	2164.160	2174.386
138.541	17.667	2163.463	2171.444
139.556	17.585	2163.246	2169.918
140.570	17.665	2160.974	2168.404
141.585	17.713	2159.515	2167.300
142.600	17.630	2158.348	2164.802
143.614	17.704	2156.432	2163.564
144.629	17.767	2153.714	2161.379
145.643	17.657	2152.650	2158.659
146.658	17.685	2150.823	2156.923
147.673	17.715	2149.323	2155.546
148.687	17.708	2148.272	2154.134
149.702	17.717	2147.453	2153.180
150.716	17.750	2145.756	2151.632
151.731	17.622	2145.075	2149.068
152.746	17.674	2144.280	2148.674
153.760	18.123	2145.292	2155.123
154.775	19.913	2148.667	2180.942
155.789	20.477	2146.911	2186.036
156.804	18.784	2138.429	2155.804
157.819	17.698	2134.390	2137.793
158.833	17.728	2131.054	2134.573
159.848	17.812	2128.272	2132.586
160.862	17.627	2128.704	2130.438
161.877	17.846	2125.818	2130.033
162.892	17.865	2125.775	2129.981
163.906	17.813	2124.360	2127.649
164.921	17.841	2122.569	2125.958
165.935	17.807	2119.855	2122.558
166.950	17.836	2119.372	2122.185
167.964	17.826	2116.772	2119.196
168.979	17.863	2113.943	2116.572
169.994	17.931	2112.457	2115.683
171.008	17.910	2111.507	2114.217
172.023	17.762	2110.707	2111.318
173.037	17.758	2108.887	2109.195
174.052	17.821	2108.442	2109.279
175.067	17.660	2106.030	2104.618
176.081	17.689	2104.577	2103.279
177.096	17.703	2103.089	2101.703
178.110	17.745	2101.096	2099.983
179.125	17.757	2100.596	2099.387
180.140	17.785	2098.661	2097.546
181.154	17.733	2097.828	2095.814
182.169	17.725	2096.522	2094.160
183.183	18.147	2097.878	2100.474
184.198	20.121	2101.851	2128.593
185.213	20.530	2100.376	2131.895
186.227	18.577	2093.824	2100.962
187.242	17.934	2089.352	2088.322
188.256	17.821	2087.391	2084.718
189.271	17.734	2086.494	2082.511
190.286	17.918	2083.921	2081.950
191.300	17.836	2082.073	2078.851
192.315	17.836	2080.023	2076.557
193.329	17.764	2079.120	2074.517
194.344	17.854	2078.070	2074.328
195.359	17.910	2077.225	2073.914
196.373	17.844	2074.410	2070.060
197.388	17.792	2072.457	2067.231
198.402	17.658	2070.039	2062.937
199.417	17.830	2067.705	2062.452
200.432	17.732	2066.672	2059.988
201.446	17.832	2066.118	2060.398
202.461	17.690	2063.890	2056.216
203.475	17.751	2061.667	2054.486
204.490	17.727	2059.885	2052.182
205.504	17.728	2058.341	2050.399
206.519	17.735	2055.632	2047.542
207.534	17.721	2053.930	2045.435
208.548	17.693	2053.400	2044.327
209.563	17.718	2052.843	2043.827
210.577	17.689	2050.324	2040.723
211.592	17.706	2050.397	2040.764
212.607	18.832	2052.699	2056.364
213.621	20.856	2058.288	2086.095
214.636	20.382	2052.115	2073.901
215.650	18.279	2045.680	2041.957
216.665	17.876	2041.583	2032.804
217.680	17.701	2041.655	2030.543
218.694	17.723	2039.300	2028.215
219.709	17.815	2037.815	2027.601
220.723	17.934	2037.162	2028.120
221.738	17.864	2034.890	2024.790
222.753	17.766	2032.473	2020.975
223.767	17.794	2031.649	2020.246
224.782	17.744	2029.439	2017.205
225.796	17.801	2028.173	2016.382
226.811	17.885	2025.966	2014.945
227.826	17.828	2025.074	2013.148
228.840	17.889	2023.610	2012.166
229.855	17.796	2022.281	2009.511
230.869	17.865	2020.458	2008.266
231.884	17.837	2018.638	2005.892
232.899	17.742	2017.195	2003.098
233.913	17.782	2016.940	2003.071
234.928	17.787	2015.665	2001.621
235.942	17.741	2013.641	1998.835
236.957	17.877	2011.946	1998.512
237.972	17.829	2010.713	1996.484
238.986	17.897	2009.988	1996.328
240.001	17.832	2007.940	1993.291
241.015	17.709	2007.589	1991.262
242.030	18.072	2008.884	1996.568
243.045	19.974	2011.189	2020.951
244.059	20.106	2007.703	2018.756
245.074	18.423	2001.609	1992.723
246.088	17.899	1998.109	1982.886
247.103	17.935	1996.377	1981.346
248.117	17.826	1995.754	1979.224
249.132	17.746	1993.704	1976.019
250.147	17.822	1991.845	1974.831
251.161	17.680	1990.676	1971.781
252.176	17.785	1989.377	1971.484
253.190	18.037	1987.453	1972.258
254.205	18.040	1985.476	1970.096
255.220	18.034	1984.014	1968.344
256.234	17.976	1983.685	1967.106
257.249	17.853	1982.219	1963.993
258.263	17.881	1980.239	1962.117
259.278	17.750	1979.964	1960.101
260.293	17.783	1978.057	1958.355
261.307	17.748	1975.400	1955.097
262.322	17.756	1974.079	1953.648
263.336	17.741	1971.857	1951.033
264.351	17.770	1970.131	1949.424
265.366	17.820	1968.813	1948.465
266.380	17.753	1968.003	1946.657
267.395	17.754	1966.436	1944.891
268.409	17.704	1965.422	1943.080
269.424	17.752	1964.212	1942.206
270.439	17.744	1963.733	1941.410
271.453	18.519	1963.887	1950.185
272.468	20.258	1967.239	1973.185
273.482	20.177	1964.428	1969.203
274.497	18.500	1957.351	1942.788
275.512	17.773	1954.013	1930.968
276.526	17.884	1951.512	1929.529
277.541	17.751	1949.881	1926.179
278.555	17.790	1948.103	1924.624
279.570	17.660	1946.420	1921.267
280.585	17.655	1945.467	1920.033
281.599	17.743	1943.331	1918.694
282.614	17.760	1942.715	1918.042
283.628	17.893	1941.919	1918.533
284.643	17.953	1941.330	1918.404
285.657	18.051	1939.521	1917.490
286.672	17.912	1939.065	1915.244
287.687	18.049	1936.443	1913.966
288.701	18.037	1935.569	1912.731
289.716	17.821	1934.364	1908.887
290.730	18.092	1931.531	1908.910
291.745	17.883	1930.484	1905.296
292.760	17.821	1930.331	1904.220
293.774	17.826	1929.312	1903.047
294.789	17.931	1927.122	1901.836
295.803	17.786	1924.867	1897.756
296.818	17.724	1923.839	1895.831
297.833	17.842	1921.988	1895.093
298.847	17.881	1921.126	1894.448
299.862	17.809	1920.063	1892.375
300.876	18.383	1919.369	1897.862
301.891	20.352	1923.633	1923.801
302.906	20.598	1922.049	1924.719
303.920	18.683	1915.935	1897.109
304.935	17.942	1911.809	1884.586
305.949	17.688	1910.640	1880.396
306.964	17.767	1909.272	1879.696
307.979	18.072	1906.832	1880.442
308.993	18.012	1905.598	1878.340
310.008	18.061	1904.961	1878.025
311.022	18.056	1903.700	1876.497
312.037	17.851	1902.108	1872.449
313.052	17.968	1899.990	1871.425
314.066	18.147	1898.260	1871.469
315.081	18.071	1897.393	1869.554
316.095	18.037	1896.452	1868.026
317.110	18.128	1894.496	1866.880
318.125	17.912	1893.258	1863.061
319.139	17.972	1891.520	1861.785
320.154	18.037	1890.082	1860.868
321.168	18.043	1888.502	1859.147
322.183	17.906	1887.277	1856.227
323.197	17.929	1885.818	1854.823
324.212	17.779	1883.927	1851.105
325.227	17.678	1882.792	1848.667
326.241	17.766	1880.869	1847.512
327.256	17.755	1879.373	1845.699
328.270	17.850	1878.358	1845.517
329.285	17.850	1878.655	1845.590
330.300	18.486	1881.267	1854.849
331.314	20.669	1884.043	1881.115
332.329	20.350	1879.860	1873.260
333.343	18.401	1873.201	1845.318
334.358	18.034	1869.884	1837.859
335.373	17.761	1868.447	1833.273
336.387	17.640	1867.020	1830.347
337.402	17.671	1866.073	1829.540
338.416	17.838	1863.144	1828.248
339.431	17.849	1862.611	1827.626
340.446	17.787	1861.625	1825.770
341.460	17.895	1859.910	1825.028
342.475	17.935	1858.413	1823.774
343.489	17.942	1857.888	1823.114
344.504	17.961	1856.637	1821.870
345.519	18.162	1854.458	1821.671
346.533	18.010	1853.206	1818.591
347.548	18.133	1851.906	1818.413
348.562	18.111	1850.513	1816.600
349.577	18.071	1850.002	1815.445
350.592	18.084	1848.702	1814.099
351.606	18.135	1847.404	1813.145
352.621	18.184	1844.779	1810.873
353.635	17.790	1844.362	1806.061
354.650	17.916	1842.815	1805.660
355.665	17.949	1840.270	1803.304
356.679	17.904	1839.728	1802.077
357.694	17.859	1838.272	1799.960
358.708	17.821	1836.799	1797.901
359.723	18.697	1839.576	1809.692
360.738	20.707	1841.457	1832.624
361.752	20.097	1837.948	1822.468
362.767	18.249	1832.252	1797.115
363.781	17.726	1829.693	1788.869
364.796	17.741	1828.336	1787.485
365.810	17.646	1827.447	1785.403
366.825	17.812	1825.930	1785.462
367.840	17.868	1824.725	1784.652
368.854	17.872	1823.868	1783.643
369.869	17.794	1822.555	1781.331
370.883	17.612	1821.025	1777.711
371.898	17.750	1819.353	1777.310
372.913	17.741	1818.480	1776.148
373.927	17.859	1817.034	1775.758
374.942	17.872	1815.924	1774.602
375.956	17.878	1814.457	1773.011
376.971	17.874	1811.909	1770.267
377.986	17.778	1810.251	1767.443
379.000	17.882	1809.484	1767.562
380.015	18.022	1808.076	1767.429
381.029	17.845	1806.063	1763.417
382.044	17.899	1804.458	1762.201
383.059	17.959	1802.559	1760.748
384.073	17.832	1802.675	1759.338
385.088	17.795	1801.064	1757.175
386.102	17.839	1798.990	1755.393
387.117	17.693	1797.824	1752.539
388.132	17.671	1797.145	1751.439
389.146	18.330	1800.611	1761.425
390.161	20.472	1803.003	1785.705
391.175	20.202	1797.016	1776.785
392.190	18.285	1789.879	1749.828
393.205	17.691	1787.265	1740.970
394.219	17.759	1786.800	1741.007
395.234	17.809	1784.973	1739.528
396.248	17.901	1783.814	1739.137
397.263	17.937	1780.982	1736.540
398.278	17.816	1779.428	1733.575
399.292	17.853	1778.422	1732.769
400.307	17.874	1778.140	1732.496
401.321	17.918	1777.573	1732.192
402.336	17.837	1776.585	1730.196
403.350	17.983	1774.393	1729.338
404.365	18.078	1772.987	1728.720
405.380	18.335	1771.937	1730.106
406.394	18.427	1771.357	1730.264
407.409	18.229	1769.999	1726.719
408.423	18.218	1768.235	1724.681
409.438	18.123	1766.624	1721.942
410.453	18.080	1765.925	1720.619
411.467	18.098	1765.003	1719.701
412.482	18.061	1763.545	1717.696
413.496	17.941	1761.689	1714.479
414.511	17.901	1759.538	1711.778
415.526	17.957	1756.910	1709.571
416.540	17.737	1756.638	1706.889
417.555	17.725	1755.645	1705.606
418.569	17.778	1755.232	1705.529
419.584	17.764	1754.598	1704.568
420.599	18.029	1753.407	1705.873
421.613	17.883	1752.909	1703.714
422.628	17.842	1751.862	1702.079
423.642	17.864	1750.753	1701.019
424.657	17.914	1748.588	1699.212
425.672	17.865	1746.742	1696.726
426.686	17.710	1746.054	1694.312
427.701	17.781	1744.752	1693.555
428.715	17.960	1742.667	1693.111
429.730	17.954	1741.276	1691.490
430.745	17.967	1739.869	1690.051
431.759	18.000	1739.935	1690.243
432.774	17.898	1739.470	1688.570
433.788	18.047	1738.676	1689.083
434.803	18.099	1737.419	1688.173
435.818	17.901	1737.756	1686.332
436.832	17.847	1736.996	1684.862
437.847	16.895	1729.932	1668.391
438.861	9.458	1708.984	1575.077
439.876	1.615	1695.225	1485.454
440.890	0.316	1691.188	1469.017
441.905	0.184	1690.463	1466.920
442.920	0.197	1688.851	1465.473
443.934	0.185	1687.448	1463.965
444.949	0.114	1686.725	1462.467
445.963	0.035	1685.419	1460.394
446.978	0.141	1685.357	1461.199
447.993	0.069	1683.944	1459.094
449.007	0.153	1681.249	1457.405
450.022	0.185	1679.253	1455.804
451.036	0.025	1678.281	1453.234
452.051	1.097	1682.897	1467.498
453.066	8.856	1699.933	1558.224
454.080	16.274	1711.009	1640.923
455.095	17.621	1712.324	1655.143
456.109	17.799	1712.175	1656.540
457.124	17.835	1711.127	1655.678
458.139	17.861	1710.384	1655.017
459.153	17.871	1709.688	1654.236
460.168	17.899	1706.866	1651.585
461.182	17.928	1705.260	1650.113
462.197	17.830	1704.169	1647.910
463.212	17.944	1702.443	1647.150
464.226	17.835	1701.700	1645.177
465.241	18.082	1699.724	1645.460
466.255	18.040	1698.756	1643.920
467.270	17.895	1697.984	1641.575
468.285	17.949	1696.381	1640.354
469.299	17.834	1695.794	1638.476
470.314	18.007	1693.293	1637.527
471.328	18.021	1692.603	1636.799
472.343	17.967	1691.304	1634.826
473.358	18.036	1689.984	1634.018
474.372	18.018	1689.007	1632.709
475.387	17.915	1687.284	1629.860
476.401	17.812	1686.613	1628.028
477.416	17.888	1685.904	1627.877
478.430	17.890	1683.994	1625.856
479.445	17.874	1682.379	1623.946
480.460	17.890	1680.657	1622.251
481.474	17.823	1681.308	1622.042
482.489	17.918	1679.140	1620.666
483.503	18.028	1677.311	1619.748
484.518	18.025	1676.358	1618.610
485.533	17.920	1674.940	1616.048
486.547	18.034	1673.577	1615.620
487.562	18.084	1672.468	1614.829
488.576	17.848	1671.152	1611.126
489.591	18.068	1669.581	1611.505
490.606	18.008	1668.479	1609.683
491.620	18.082	1666.175	1607.965
492.635	18.060	1665.474	1606.886
493.649	18.096	1664.319	1605.923
494.664	17.746	1663.637	1601.771
495.679	17.723	1661.771	1599.565
496.693	17.826	1659.840	1598.484
497.708	17.960	1658.911	1598.662
498.722	17.978	1658.212	1597.961
499.737	18.115	1656.809	1597.703
500.752	17.872	1655.365	1593.838
501.766	17.991	1653.714	1593.178
502.781	17.952	1652.077	1591.041
503.795	18.014	1650.620	1590.029
504.810	17.916	1649.901	1588.232
505.825	18.058	1648.882	1588.387
506.839	18.075	1648.170	1587.670
507.854	18.148	1646.137	1586.204
508.868	18.026	1644.978	1583.755
509.883	18.061	1644.239	1583.179
510.898	18.126	1643.003	1582.404
511.912	17.954	1641.520	1579.196
512.927	17.898	1639.797	1576.829
513.941	17.901	1637.411	1574.367
514.956	17.879	1636.119	1572.734
515.971	17.887	1635.384	1571.918
516.985	17.779	1635.017	1570.373
518.000	17.888	1633.994	1570.209
519.014	18.040	1633.025	1570.492
520.029	18.091	1631.260	1569.087
521.043	18.017	1630.120	1567.118
522.058	18.018	1629.106	1565.966
523.073	18.023	1627.995	1564.749
524.087	18.146	1626.842	1564.592
525.102	18.045	1626.236	1562.894
526.116	17.994	1624.857	1560.907
527.131	18.048	1623.401	1559.816
528.146	18.156	1622.474	1559.733
529.160	18.140	1621.198	1558.173
530.175	18.212	1620.435	1557.915
531.189	18.092	1619.625	1555.852
532.204	18.085	1617.966	1554.006
533.219	17.949	1616.522	1551.187
534.233	17.949	1615.952	1550.461
535.248	18.101	1614.952	1550.696
536.262	18.247	1613.859	1550.793
537.277	18.166	1612.583	1548.647
538.292	18.097	1610.424	1545.758
539.306	18.026	1608.487	1543.071
540.321	18.021	1607.173	1541.581
541.335	18.076	1606.092	1540.855
542.350	18.229	1604.741	1540.762
543.365	18.063	1604.443	1538.786
544.379	18.234	1602.802	1538.577
545.394	18.249	1601.204	1536.990
546.408	18.200	1599.527	1534.757
547.423	17.929	1598.883	1531.513
548.438	18.127	1597.464	1531.749
549.452	17.947	1596.791	1529.301
550.467	18.045	1595.354	1528.629
551.481	18.091	1594.100	1527.651
552.496	18.073	1593.746	1526.973
553.511	18.212	1592.209	1526.564
554.525	18.154	1591.174	1524.872
555.540	18.123	1590.887	1524.134
556.554	18.328	1589.274	1524.238
557.569	18.195	1587.831	1521.484
558.583	18.166	1586.398	1519.674
559.598	18.140	1585.084	1517.994
560.613	18.092	1583.815	1516.174
561.627	18.157	1582.374	1515.190
562.642	18.330	1580.512	1514.769
563.656	18.284	1580.094	1513.773
564.671	18.257	1578.820	1512.131
565.686	18.280	1577.003	1510.416
566.700	18.176	1575.854	1508.209
567.715	18.148	1574.411	1506.402
568.729	17.918	1572.932	1502.776
569.744	18.002	1571.107	1501.591
570.759	17.880	1570.444	1499.697
571.773	17.978	1569.346	1499.336
572.788	18.058	1568.068	1498.642
573.802	18.088	1566.640	1497.359
574.817	18.318	1565.110	1497.745
575.832	18.213	1564.729	1496.276
576.846	18.255	1563.490	1495.282
577.861	18.282	1561.337	1493.283
578.875	18.259	1561.506	1493.059
579.890	18.221	1561.152	1492.212
580.905	18.356	1559.873	1491.990
581.919	18.371	1558.983	1491.090
582.934	18.373	1558.495	1490.466
583.948	18.410	1556.687	1488.877
584.963	18.321	1555.075	1486.383
585.978	18.203	1554.609	1484.735
586.992	18.170	1554.110	1483.787
588.007	18.380	1552.593	1483.994
589.021	18.245	1550.955	1481.077
590.036	18.143	1549.717	1478.830
591.051	18.162	1548.745	1477.893
592.065	18.188	1547.237	1476.503
593.080	18.289	1545.826	1475.848
594.094	18.380	1543.888	1474.615
595.109	18.351	1541.643	1472.041
596.123	18.152	1540.632	1469.179
597.138	18.391	1539.979	1470.441
598.153	18.340	1538.952	1468.845
599.167	18.188	1537.853	1466.314
600.182	18.242	1537.607	1466.366
601.196	18.356	1536.249	1465.877
602.211	18.188	1535.060	1463.129
603.226	18.295	1533.727	1462.594
604.240	18.378	1532.275	1461.749
605.255	18.367	1531.386	1460.634
606.269	18.434	1530.189	1459.891
607.284	18.470	1528.922	1458.818
608.299	18.383	1527.625	1456.659
609.313	18.255	1526.988	1454.782
610.328	18.294	1525.147	1453.187
611.342	18.474	1523.824	1453.292
612.357	18.505	1523.094	1452.685
613.372	18.499	1521.703	1451.133
614.386	18.409	1521.160	1449.674
615.401	18.389	1520.543	1448.744
616.415	18.463	1519.558	1448.259
617.430	18.403	1519.003	1447.050
618.445	18.533	1517.414	1446.467
619.459	18.516	1515.566	1444.386
620.474	18.288	1514.625	1441.386
621.488	18.200	1513.130	1439.044
622.503	18.164	1511.648	1437.155
623.518	18.240	1511.033	1437.042
624.532	18.314	1510.562	1437.050
625.547	18.394	1509.315	1436.363
626.561	18.377	1508.566	1435.336
627.576	18.470	1508.044	1435.450
628.591	18.301	1505.869	1431.786
629.605	18.216	1504.507	1429.605
630.620	18.132	1503.499	1427.775
631.634	17.977	1502.527	1425.379
632.649	18.211	1501.018	1425.740
633.663	18.284	1499.839	1425.061
634.678	18.225	1498.906	1423.505
635.693	18.500	1497.439	1424.242
636.707	18.482	1496.126	1422.669
637.722	18.505	1495.238	1421.853
638.736	18.612	1493.858	1421.255
639.751	18.539	1493.162	1419.819
640.766	18.548	1492.377	1418.977
641.780	18.396	1490.657	1415.909
642.795	18.371	1490.628	1415.500
643.809	18.638	1489.217	1416.213
644.824	18.431	1489.138	1414.250
645.839	18.493	1487.903	1413.420
646.853	18.429	1486.256	1411.156
647.868	18.542	1484.539	1410.296
648.882	18.581	1482.813	1408.805
649.897	18.548	1481.631	1407.245
650.912	18.548	1479.908	1405.434
651.926	18.690	1478.936	1405.517
652.941	18.413	1478.151	1402.324
653.955	18.337	1476.723	1400.175
654.970	18.278	1474.948	1397.837
655.985	18.270	1473.607	1396.335
656.999	18.207	1472.637	1394.729
658.014	18.503	1471.181	1395.606
659.028	18.519	1470.686	1395.102
660.043	18.343	1470.701	1393.508
661.058	18.368	1469.067	1392.000
662.072	18.457	1468.046	1391.591
663.087	18.602	1466.632	1391.269
664.101	18.616	1465.645	1390.277
665.116	18.448	1465.053	1388.184
666.131	18.678	1463.347	1388.272
667.145	18.521	1462.794	1386.304
668.160	18.590	1461.708	1385.672
669.174	18.878	1459.344	1385.593
670.189	18.640	1458.940	1383.117
671.204	18.425	1458.660	1380.950
672.218	18.609	1457.195	1380.882
673.233	18.653	1456.359	1380.283
674.247	18.531	1455.593	1378.400
675.262	18.748	1453.893	1378.380
676.276	18.716	1452.861	1376.982
677.291	18.785	1451.768	1376.331
678.306	18.713	1449.930	1373.852
679.320	18.571	1449.028	1371.684
680.335	18.650	1448.893	1372.026
681.349	18.844	1447.401	1372.011
682.364	18.712	1446.587	1370.016
683.379	18.537	1445.462	1367.379
684.393	18.556	1444.245	1366.225
685.408	18.648	1443.100	1365.706
686.422	18.659	1442.205	1364.788
687.437	18.725	1441.890	1364.851
688.452	18.687	1441.214	1363.745
689.466	18.443	1439.878	1360.373
690.481	18.569	1437.993	1359.431
691.495	18.471	1437.159	1357.701
692.510	18.192	1435.480	1353.731
693.525	18.219	1433.795	1352.194
694.539	18.205	1433.250	1351.411
695.554	18.318	1432.975	1351.888
696.568	18.571	1432.036	1352.845
697.583	18.586	1431.368	1352.168
698.598	18.538	1430.508	1350.812
699.612	18.702	1429.525	1351.022
700.627	18.748	1427.721	1349.522
701.641	18.831	1426.224	1348.602
702.656	18.791	1425.501	1347.438
703.671	18.698	1425.407	1346.458
704.685	18.884	1424.404	1346.814
705.700	18.734	1423.206	1344.340
706.714	18.716	1421.379	1342.308
707.729	18.664	1420.009	1340.445
708.744	18.737	1418.353	1339.293
709.758	18.567	1417.384	1336.884
710.773	18.572	1416.530	1335.961
711.787	18.684	1414.575	1334.832
712.802	18.532	1414.028	1332.972
713.816	18.523	1413.258	1332.012
714.831	18.749	1411.951	1332.387
715.846	18.788	1410.615	1331.266
716.860	18.926	1409.863	1331.473
717.875	18.773	1409.398	1329.682
718.889	18.724	1408.366	1328.172
719.904	18.718	1406.900	1326.585
720.919	18.797	1406.278	1326.448
721.933	18.971	1404.993	1326.430
722.948	18.849	1404.649	1324.997
723.962	18.734	1403.674	1323.029
724.977	18.864	1402.297	1322.580
725.992	18.880	1401.364	1321.667
727.006	18.858	1399.847	1319.908
728.021	18.714	1399.181	1318.011
729.035	18.886	1397.089	1317.209
730.050	18.854	1396.454	1316.206
731.065	18.805	1395.298	1314.581
732.079	18.747	1394.554	1313.273
733.094	18.787	1393.259	1312.210
734.108	18.803	1391.448	1310.471
735.123	18.761	1390.499	1309.096
736.138	18.761	1389.554	1308.048
737.152	18.857	1388.268	1307.415
738.167	19.061	1387.156	1307.772
739.181	18.939	1386.708	1306.258
740.196	18.812	1386.376	1304.823
741.211	18.628	1385.627	1302.555
742.225	18.875	1383.954	1302.712
743.240	18.815	1382.640	1300.862
744.254	18.943	1380.688	1299.843
745.269	18.836	1380.225	1298.436
746.284	18.804	1379.393	1297.255
747.298	18.812	1378.031	1295.877
748.313	18.580	1376.462	1292.488
749.327	18.480	1375.199	1290.395
750.342	18.325	1374.580	1288.484
751.356	18.369	1373.261	1287.428
752.371	18.297	1373.080	1286.563
753.386	18.495	1372.520	1287.379
754.400	18.872	1371.133	1288.762
755.415	18.949	1370.263	1288.374
756.429	19.010	1368.938	1287.432
757.444	18.867	1368.321	1285.618
758.459	18.983	1367.168	1285.253
759.473	18.989	1366.080	1284.120
760.488	19.114	1364.673	1283.581
761.502	19.067	1363.823	1282.281
762.517	18.968	1362.918	1280.535
763.532	18.890	1360.955	1277.952
764.546	18.906	1359.920	1276.948
765.561	18.710	1359.366	1274.814
766.575	18.513	1358.764	1272.623
767.590	18.515	1357.432	1271.240
768.605	18.675	1355.275	1270.262
769.619	18.761	1355.301	1270.768
770.634	18.792	1354.248	1269.860
771.648	18.841	1353.210	1269.103
772.663	19.090	1352.717	1270.333
773.678	19.026	1352.359	1269.373
774.692	19.054	1350.612	1267.787
775.707	19.115	1350.151	1267.655
776.721	19.042	1349.848	1266.674
777.736	19.012	1347.930	1264.500
778.751	19.110	1346.950	1264.159
779.765	19.077	1346.459	1263.302
780.780	19.019	1345.606	1261.921
781.794	18.906	1344.921	1260.294
782.809	19.008	1343.374	1259.445
783.824	18.951	1341.978	1257.566
784.838	18.668	1340.136	1253.615
785.853	18.441	1338.984	1250.717
786.867	18.405	1339.088	1250.400
787.882	18.712	1338.538	1251.994
788.897	18.735	1337.695	1251.218
789.911	18.805	1336.743	1250.689
790.926	18.817	1335.245	1249.231
791.940	18.968	1334.102	1249.116
792.955	18.876	1333.215	1247.463
793.969	18.930	1332.173	1246.730
794.984	18.959	1331.056	1245.747
795.999	18.955	1330.492	1245.039
797.013	18.970	1329.046	1243.648
798.028	19.087	1327.354	1242.769
799.042	18.975	1327.320	1241.775
800.057	19.003	1326.043	1240.631
801.072	19.077	1323.859	1238.976
802.086	19.094	1323.043	1238.186
803.101	19.011	1322.455	1236.891
804.115	19.000	1321.941	1236.180
805.130	18.991	1320.427	1234.548
806.145	19.150	1319.125	1234.329
807.159	19.106	1317.363	1232.218
808.174	19.171	1316.242	1231.491
809.188	18.973	1315.089	1228.840
810.203	18.960	1313.975	1227.561
811.218	18.722	1312.008	1223.870
812.232	18.799	1310.461	1222.836
813.247	18.615	1309.632	1220.600
814.261	18.679	1310.265	1221.496
815.276	19.006	1308.894	1222.413
816.291	19.089	1307.332	1221.399
817.305	19.144	1306.906	1221.248
818.320	19.170	1305.251	1219.735
819.334	19.042	1304.120	1217.626
820.349	19.066	1303.112	1216.710
821.364	19.277	1301.061	1216.145
822.378	19.299	1299.579	1214.772
823.393	19.060	1298.714	1212.124
824.407	19.020	1298.436	1211.437
825.422	19.040	1297.816	1210.856
826.437	19.183	1295.446	1209.509
827.451	18.985	1294.220	1206.825
828.466	18.704	1292.544	1203.137
829.480	18.504	1290.784	1199.942
830.495	18.646	1289.420	1199.531
831.509	18.814	1289.340	1200.495
832.524	18.881	1288.741	1200.265
833.539	18.978	1287.316	1199.469
834.553	19.182	1285.786	1199.328
835.568	19.320	1284.767	1199.199
836.582	19.160	1284.553	1197.743
837.597	19.220	1283.383	1196.922
838.612	19.131	1281.830	1194.714
839.626	19.139	1280.704	1193.574
840.641	19.013	1279.997	1191.897
841.655	18.962	1278.543	1190.042
842.670	18.858	1276.822	1187.579
843.685	18.697	1275.621	1185.200
844.699	18.730	1274.917	1184.637
845.714	18.918	1274.208	1185.137
846.728	19.145	1273.073	1185.510
847.743	18.990	1272.334	1183.611
848.758	18.997	1271.586	1182.820
849.772	19.254	1270.303	1183.256
850.787	19.198	1268.242	1180.813
851.801	19.109	1267.412	1179.286
852.816	19.178	1266.225	1178.513
853.831	18.996	1263.984	1175.040
854.845	19.089	1262.671	1174.314
855.860	18.989	1260.768	1171.722
856.874	18.842	1260.078	1169.933
857.889	18.717	1258.988	1167.928
858.904	18.510	1257.698	1165.172
859.918	18.559	1255.847	1163.652
860.933	18.393	1254.423	1161.064
861.947	18.584	1253.979	1161.814
862.962	18.834	1253.084	1162.549
863.977	18.855	1251.519	1161.097
864.991	18.953	1251.336	1161.456
866.006	18.925	1250.888	1160.712
867.020	19.154	1249.724	1161.041
868.035	19.092	1248.129	1159.002
869.049	19.157	1247.176	1158.417
870.064	19.463	1245.731	1159.004
871.079	19.142	1245.732	1156.700
872.093	19.107	1245.421	1156.039
873.108	19.449	1243.424	1156.351
874.122	19.247	1242.306	1153.813
875.137	18.942	1242.344	1151.653
876.152	18.956	1241.070	1150.432
877.166	19.079	1239.619	1149.776
878.181	19.270	1238.652	1150.019
879.195	19.320	1237.845	1149.466
880.210	19.110	1237.105	1147.238
881.225	19.100	1236.492	1146.466
882.239	19.318	1235.430	1146.798
883.254	19.355	1234.420	1145.973
884.268	19.397	1233.335	1145.111
885.283	19.316	1232.181	1143.360
886.298	19.319	1230.381	1141.571
887.312	19.211	1229.902	1140.274
888.327	19.286	1228.808	1139.622
889.341	19.265	1227.566	1138.191
890.356	19.294	1227.105	1137.822
891.371	19.158	1226.912	1136.605
892.385	19.126	1225.861	1135.283
893.400	19.082	1224.112	1133.233
894.414	19.131	1223.075	1132.464
895.429	18.852	1221.167	1128.721
896.444	18.624	1219.553	1125.594
897.458	18.555	1218.471	1124.002
898.473	18.547	1218.217	1123.581
899.487	18.901	1217.971	1125.551
900.502	18.966	1217.060	1125.002
901.517	19.078	1215.374	1124.045
902.531	19.330	1214.683	1124.925
903.546	19.244	1214.404	1123.963
904.560	19.258	1213.517	1123.101
905.575	19.280	1212.614	1122.276
906.589	19.288	1211.744	1121.388
907.604	19.346	1210.217	1120.221
