DTS Sentinel unit serial number:	SN409020Multiplexer serial number:	ORYXHardware model number:	OX4-SRSoftware version number:	ORYX F/W v3.00 Oryx Data Collector v3.7.2.0data status	okinstallation	HaddamTimeLapsedifferential loss correction	single-endedforward channel	channel 3reverse channel	N/Adate	2011/06/22time	05:36:17forward acquisition time	30.00reverse acquisition time	0.00gamma	498.7831k internal	0.1751k external	0.1751temperature offset calibration	1.0074default loss term (dB/km)	0.3790temperature slope calibration	1.3530multiplexer offset coefficient	1.0000multiplexer slope coefficient	1.0000fibre end	0.00T internal ref (°C)	22.56T ext. ref 1 (°C)	17.86T ext. ref 2 (°C)	0.16length (m)	temperature (°C)	Stokes	anti-Stokes-747.200	-55.607	-0.061	0.036
-746.185	308.700	0.060	0.149
-745.171	-154.634	0.576	-0.050
-744.156	-37.954	-0.684	0.482
-743.142	-125.849	-0.408	-0.081
-742.127	-200.000	-0.082	0.000
-741.112	-100.703	-0.061	0.020
-740.098	230.819	0.126	0.275
-739.083	593.917	-0.141	0.464
-738.069	2.927	-0.231	0.223
-737.054	354.284	0.136	0.362
-736.039	-117.810	-0.087	-0.021
-735.025	800.000	0.041	-0.223
-734.010	-8.898	-0.203	-0.181
-732.996	-98.172	-0.318	-0.108
-731.981	-114.173	0.383	-0.098
-730.966	800.000	0.016	0.081
-729.952	-139.222	0.268	0.038
-728.937	-57.845	-0.180	0.104
-727.923	-4.757	-0.136	-0.124
-726.908	319.840	-0.045	0.113
-725.894	-120.084	-0.416	-0.094
-724.879	-68.717	-0.154	0.079
-723.864	43.316	-0.249	0.302
-722.850	-140.262	-0.441	-0.061
-721.835	47.816	-0.133	0.164
-720.821	42.439	-0.121	0.146
-719.806	12.616	0.272	0.278
-718.791	-112.381	0.334	-0.088
-717.777	-5.366	0.158	0.144
-716.762	-99.271	-0.418	-0.139
-715.748	587.369	0.086	-0.282
-714.733	-32.982	0.312	0.229
-713.718	800.000	-0.113	0.572
-712.704	-146.967	0.347	-0.039
-711.689	145.914	0.203	-0.362
-710.675	-79.522	0.096	0.043
-709.660	-161.739	0.255	-0.017
-708.645	252.511	-0.158	-0.360
-707.631	76.904	-0.106	-0.149
-706.616	38.159	0.183	-0.216
-705.602	-200.000	0.010	0.245
-704.587	800.000	0.055	-0.259
-703.572	-200.000	-0.043	-0.253
-702.558	-184.630	0.157	0.003
-701.543	112.211	-0.222	0.357
-700.529	-159.732	-0.473	0.034
-699.514	-116.176	0.388	0.095
-698.499	-200.000	0.000	0.027
-697.485	-200.000	-0.037	-0.319
-696.470	-16.943	-0.268	0.224
-695.456	-168.919	-0.964	-0.047
-694.441	800.000	0.147	-0.628
-693.426	7.432	0.113	0.112
-692.412	-19.971	-0.291	-0.238
-691.397	-29.060	-0.279	0.212
-690.383	-135.899	0.280	0.043
-689.368	-200.000	0.011	0.143
-688.354	490.661	-0.036	0.110
-687.339	-68.177	0.138	-0.071
-686.324	-153.048	0.165	-0.015
-685.310	423.283	0.125	-0.357
-684.295	-55.160	0.209	-0.124
-683.281	-200.000	-0.074	0.000
-682.266	-200.000	-0.019	-0.291
-681.251	112.113	-0.356	0.571
-680.237	-54.826	-0.220	-0.131
-679.222	422.739	0.188	-0.538
-678.208	-200.000	-0.001	0.123
-677.193	123.448	-0.201	-0.334
-676.178	-200.000	-0.024	-0.561
-675.164	-129.072	0.112	-0.021
-674.149	-0.301	-0.309	-0.291
-673.135	-24.888	0.304	-0.239
-672.120	8.467	0.091	-0.090
-671.105	-200.000	0.006	-0.061
-670.091	-88.250	-0.322	0.127
-669.076	-16.883	-0.353	-0.295
-668.062	15.445	0.417	-0.434
-667.047	259.707	0.022	0.051
-666.032	34.053	0.181	0.208
-665.018	-85.212	-0.168	-0.069
-664.003	-83.866	-0.167	0.070
-662.989	-65.171	0.262	0.139
-661.974	139.781	-0.158	-0.277
-660.959	-63.084	0.316	-0.172
-659.945	144.443	0.088	0.157
-658.930	-40.425	-0.101	0.069
-657.916	48.492	0.451	-0.559
-656.901	360.896	0.266	-0.707
-655.886	-87.282	-0.598	-0.239
-654.872	-74.735	-0.237	-0.112
-653.857	-78.358	0.059	-0.027
-652.843	-156.944	-0.146	0.012
-651.828	532.094	0.048	-0.152
-650.814	-16.488	-0.306	-0.256
-649.799	182.901	-0.151	0.297
-648.784	-200.000	0.011	0.204
-647.770	-139.025	-0.267	-0.038
-646.755	-162.477	0.197	-0.013
-645.741	800.000	-0.067	0.251
-644.726	-200.000	-0.011	0.257
-643.711	-28.120	0.284	0.217
-642.697	78.778	0.217	-0.308
-641.682	23.382	-0.155	-0.168
-640.668	-98.333	-0.135	-0.046
-639.653	177.638	0.088	-0.170
-638.638	263.627	0.054	0.124
-637.624	-200.000	-0.019	0.114
-636.609	383.615	0.186	0.508
-635.595	323.923	0.199	0.504
-634.580	-11.167	-0.195	0.170
-633.565	-200.000	-0.053	-0.542
-632.551	-200.000	-0.012	0.154
-631.536	431.487	0.091	0.262
-630.522	-13.498	-0.053	-0.045
-629.507	651.804	0.050	-0.170
-628.492	-38.029	-0.115	0.080
-627.478	-150.537	0.420	0.042
-626.463	13.482	0.245	-0.252
-625.449	-151.676	0.375	-0.036
-624.434	89.392	0.202	-0.298
-623.419	772.929	-0.044	-0.159
-622.405	-200.000	0.038	-0.332
-621.390	-60.481	0.290	-0.163
-620.376	31.989	-0.170	0.194
-619.361	58.615	0.115	-0.149
-618.346	-66.537	-0.138	0.072
-617.332	800.000	-0.032	0.168
-616.317	-124.136	-0.118	0.024
-615.303	-65.336	-0.288	0.153
-614.288	-53.243	0.070	-0.042
-613.273	15.017	0.472	0.488
-612.259	9.388	0.181	0.181
-611.244	-63.690	-0.388	0.209
-610.230	215.017	-0.069	-0.146
-609.215	128.983	-0.158	0.267
-608.201	-91.368	-0.228	0.086
-607.186	-15.833	0.372	0.312
-606.171	-50.372	-0.073	0.046
-605.157	351.947	0.020	0.052
-604.142	-149.066	0.348	0.037
-603.128	558.922	-0.191	-0.612
-602.113	-62.187	0.285	-0.157
-601.098	543.304	-0.074	0.234
-600.084	-200.000	-0.044	-0.481
-599.069	232.424	0.122	-0.265
-598.055	-137.479	0.156	0.023
-597.040	-200.000	0.028	-0.170
-596.025	-59.915	0.203	-0.114
-595.011	256.191	-0.105	-0.239
-593.996	-0.338	-0.268	-0.251
-592.982	-200.000	-0.004	-0.083
-591.967	327.542	0.122	0.310
-590.952	29.009	-0.187	0.210
-589.938	186.237	-0.103	0.202
-588.923	13.510	0.210	0.215
-587.909	-92.430	0.673	0.248
-586.894	-34.911	0.297	-0.214
-585.879	572.509	-0.094	-0.303
-584.865	-43.738	-0.107	0.071
-583.850	10.176	-0.242	-0.242
-582.836	800.000	0.067	0.310
-581.821	-145.043	-0.462	0.055
-580.806	3.298	-0.123	0.118
-579.792	118.711	0.296	0.484
-578.777	-200.000	-0.001	0.112
-577.763	-60.702	-0.397	0.221
-576.748	40.004	-0.303	-0.359
-575.733	16.387	0.089	0.092
-574.719	3.337	-0.383	-0.368
-573.704	333.499	0.223	-0.572
-572.690	29.794	-0.269	-0.302
-571.675	-200.000	-0.013	-0.127
-570.661	65.045	-0.124	-0.165
-569.646	98.461	0.061	0.093
-568.631	7.927	-0.256	-0.253
-567.617	260.414	-0.191	-0.437
-566.602	-110.949	0.389	0.105
-565.588	15.406	-0.330	0.341
-564.573	-92.688	-0.523	-0.192
-563.558	-40.493	0.397	0.271
-562.544	-66.105	-0.351	0.184
-561.529	-64.166	0.405	-0.217
-560.515	23.205	-0.149	-0.162
-559.500	-131.990	-0.361	0.061
-558.485	692.081	0.160	0.555
-557.471	100.444	-0.113	-0.173
-556.456	800.000	0.045	0.250
-555.442	-200.000	-0.011	0.339
-554.427	-200.000	-0.015	-0.500
-553.412	-200.000	0.013	0.186
-552.398	8.153	-0.445	-0.441
-551.383	-106.859	-0.647	-0.188
-550.369	-93.296	-0.250	0.091
-549.354	406.421	-0.277	0.774
-548.339	8.420	0.166	0.164
-547.325	-121.758	0.235	-0.051
-546.310	-200.000	-0.039	-0.276
-545.296	-200.000	0.021	0.198
-544.281	117.929	-0.104	-0.168
-543.266	-200.000	0.012	0.327
-542.252	-54.848	0.196	0.116
-541.237	800.000	0.122	0.480
-540.223	-112.342	0.404	0.106
-539.208	1.125	0.171	-0.161
-538.193	246.493	0.150	-0.335
-537.179	-200.000	-0.027	0.324
-536.164	-153.259	0.366	-0.033
-535.150	5.465	0.188	-0.183
-534.135	800.000	0.101	-0.511
-533.121	-200.000	0.020	0.500
-532.106	81.424	0.104	-0.149
-531.091	101.835	-0.228	0.352
-530.077	-21.123	-0.198	0.159
-529.062	134.454	0.235	0.403
-528.048	-17.214	-0.383	-0.318
-527.033	-161.992	0.462	0.030
-526.018	226.934	0.125	0.269
-525.004	-27.618	0.276	-0.211
-523.989	-41.416	-0.082	-0.055
-522.975	-200.000	0.018	0.261
-521.960	-165.457	0.183	-0.010
-520.945	-200.000	-0.001	0.394
-519.931	-102.137	-0.321	-0.101
-518.916	180.065	0.150	-0.290
-517.902	658.527	-0.029	0.098
-516.887	-65.583	-0.332	0.175
-515.872	259.084	-0.186	0.424
-514.858	98.919	-0.072	-0.110
-513.843	-15.205	-0.344	0.290
-512.829	8.985	0.063	0.063
-511.814	-35.426	-0.333	0.238
-510.799	68.593	-0.182	0.246
-509.785	-141.021	0.285	-0.038
-508.770	487.310	0.206	-0.621
-507.756	-131.493	-0.214	0.037
-506.741	-200.000	-0.057	0.375
-505.726	-161.439	0.180	0.012
-504.712	-113.739	0.076	0.019
-503.697	4.791	-0.323	0.313
-502.683	-31.696	0.117	0.087
-501.668	-114.121	0.601	-0.152
-500.653	-167.530	0.193	0.010
-499.639	-120.662	-0.257	0.057
-498.624	-114.550	0.425	0.107
-497.610	65.512	0.161	-0.215
-496.595	60.554	-0.086	0.112
-495.581	-60.878	-0.207	-0.115
-494.566	-2.063	-0.250	-0.231
-493.551	-145.879	-0.318	0.037
-492.537	299.402	-0.153	-0.372
-491.522	800.000	-0.027	0.121
-490.508	66.078	-0.071	-0.095
-489.493	-38.602	0.288	0.200
-488.478	-171.018	0.042	-0.002
-487.464	-79.874	0.443	0.195
-486.449	-173.440	-0.252	0.010
-485.435	-80.272	0.192	0.084
-484.420	-188.105	0.147	0.002
-483.405	-71.232	0.183	0.090
-482.391	231.567	0.076	0.164
-481.376	-178.572	0.271	-0.008
-480.362	430.944	-0.033	-0.094
-479.347	-200.000	0.078	-0.487
-478.332	790.307	0.164	0.596
-477.318	-66.251	0.003	0.002
-476.303	74.715	0.189	0.262
-475.289	800.000	-0.060	-0.246
-474.274	-107.171	0.445	0.128
-473.259	-163.766	0.304	0.018
-472.245	-128.136	-0.253	0.047
-471.230	179.248	0.144	-0.277
-470.216	-110.929	-0.417	-0.112
-469.201	-115.525	-0.306	-0.075
-468.186	-56.224	0.200	0.117
-467.172	-46.896	-0.037	-0.024
-466.157	89.328	-0.224	0.328
-465.143	41.586	-0.462	-0.550
-464.128	-200.000	-0.014	-0.202
-463.113	-123.004	-0.330	-0.069
-462.099	-162.801	-0.280	-0.018
-461.084	-5.428	0.227	-0.204
-460.070	124.706	-0.140	-0.232
-459.055	-99.407	0.287	-0.094
-458.040	-200.000	0.096	0.643
-457.026	137.927	0.084	0.144
-456.011	393.725	0.093	-0.256
-454.997	-85.188	0.182	-0.074
-453.982	-18.825	0.368	0.300
-452.968	800.000	-0.039	0.185
-451.953	72.856	-0.388	-0.532
-450.938	-103.275	0.197	0.061
-449.924	-85.577	-0.463	0.188
-448.909	203.135	0.293	-0.597
-447.895	326.630	-0.102	-0.258
-446.880	-91.047	0.158	-0.059
-445.865	-130.252	0.335	-0.059
-444.851	-200.000	-0.035	0.251
-443.836	-192.121	0.130	0.002
-442.822	450.198	0.022	-0.063
-441.807	-200.000	0.079	-0.580
-440.792	234.496	0.189	0.410
-439.778	-200.000	0.016	-0.142
-438.763	-57.101	0.581	0.335
-437.749	-75.107	-0.146	-0.068
-436.734	800.000	-0.065	0.271
-435.719	-200.000	0.031	-0.236
-434.705	-170.522	-0.487	-0.022
-433.690	232.730	0.096	0.207
-432.676	-21.787	0.202	-0.161
-431.661	-184.140	-1.120	-0.024
-430.646	-112.711	0.364	0.094
-429.632	-52.835	0.273	0.165
-428.617	9.645	0.219	-0.218
-427.603	-56.411	-0.136	-0.079
-426.588	-76.940	0.044	0.020
-425.573	-44.773	-0.151	-0.099
-424.559	-26.725	0.135	-0.104
-423.544	800.000	0.026	0.106
-422.530	-25.150	-0.258	0.200
-421.515	-29.797	0.382	0.285
-420.500	91.496	-0.053	-0.078
-419.486	-200.000	0.012	-0.363
-418.471	-200.000	0.005	-0.031
-417.457	-68.977	0.134	0.068
-416.442	122.681	0.288	0.473
-415.428	-45.142	-0.107	0.070
-414.413	491.757	0.116	-0.350
-413.398	-47.780	-0.150	-0.095
-412.384	16.197	0.239	-0.247
-411.369	123.082	0.194	0.320
-410.355	37.441	0.238	-0.277
-409.340	-135.774	0.134	-0.021
-408.325	-53.302	-0.396	-0.237
-407.311	-80.315	-0.263	-0.115
-406.296	33.166	0.126	0.143
-405.282	-77.630	0.224	-0.101
-404.267	196.596	-0.170	-0.341
-403.252	656.093	0.089	-0.302
-402.238	12.579	0.238	0.241
-401.223	-110.386	0.302	0.082
-400.209	-112.007	0.192	-0.050
-399.194	-71.103	0.302	-0.148
-398.179	-200.000	0.038	0.510
-397.165	35.546	-0.114	-0.131
-396.150	125.239	-0.131	-0.218
-395.136	-8.621	0.188	0.165
-394.121	-88.336	-0.246	-0.096
-393.106	383.089	0.290	0.786
-392.092	-142.278	-0.188	-0.024
-391.077	-114.071	-0.428	0.108
-390.063	-163.326	0.299	-0.018
-389.048	39.451	0.152	0.178
-388.033	7.821	0.581	0.570
-387.019	-137.852	-0.413	-0.060
-386.004	12.515	-0.286	-0.289
-384.990	-200.000	-0.067	-0.612
-383.975	800.000	-0.085	-0.332
-382.960	-36.286	0.112	-0.079
-381.946	30.826	-0.196	-0.220
-380.931	128.164	0.219	0.365
-379.917	-200.000	-0.086	-0.595
-378.902	-170.334	-0.456	-0.021
-377.888	-109.384	0.373	0.103
-376.873	-54.299	-0.163	0.096
-375.858	241.880	-0.038	0.084
-374.844	28.348	0.141	0.156
-373.829	-90.415	-0.284	0.107
-372.815	-9.964	0.376	-0.327
-371.800	-200.000	-0.040	-0.504
-370.785	-200.000	-0.015	0.200
-369.771	-88.664	-0.414	-0.160
-368.756	-186.774	0.263	0.005
-367.742	-200.000	-0.051	-0.573
-366.727	-200.000	-0.027	-0.405
-365.712	-92.833	-0.225	0.082
-364.698	659.634	0.080	-0.272
-363.683	-133.712	0.337	0.055
-362.669	143.656	0.111	-0.194
-361.654	-117.773	-0.667	0.156
-360.639	-200.000	-0.016	-0.225
-359.625	-66.179	-0.311	0.161
-358.610	800.000	-0.034	0.180
-357.596	60.886	-0.168	-0.218
-356.581	-200.000	-0.022	0.337
-355.566	332.174	0.075	0.190
-354.552	-65.309	0.450	-0.236
-353.537	328.861	-0.114	-0.287
-352.523	266.624	0.183	-0.420
-351.508	33.704	0.258	-0.293
-350.493	800.000	0.046	0.193
-349.479	45.247	0.312	0.377
-348.464	800.000	0.069	-0.312
-347.450	-96.807	-0.161	0.055
-346.435	170.052	0.342	-0.642
-345.420	-200.000	-0.098	-0.616
-344.406	-64.207	-0.575	0.305
-343.391	-171.661	0.412	-0.017
-342.377	13.490	-0.287	-0.291
-341.362	800.000	0.044	0.218
-340.348	-50.634	-0.417	0.256
-339.333	460.291	-0.096	0.280
-338.318	316.153	0.195	-0.484
-337.304	146.364	-0.266	-0.468
-336.289	-77.700	-0.514	-0.232
-335.275	-200.000	0.020	0.159
-334.260	-23.150	0.206	0.162
-333.245	78.473	0.251	0.351
-332.231	-200.000	0.001	0.504
-331.216	800.000	0.056	-0.245
-330.202	-28.197	-0.036	-0.027
-329.187	-71.073	0.195	0.096
-328.172	309.340	0.091	-0.224
-327.158	-71.424	-0.283	-0.138
-326.143	14.711	0.274	-0.279
-325.129	-146.856	0.323	-0.036
-324.114	-79.092	0.108	0.048
-323.099	385.606	0.134	0.363
-322.085	168.962	-0.217	-0.405
-321.070	-45.412	-0.455	0.294
-320.056	-147.586	-0.210	0.023
-319.041	56.568	0.105	0.134
-318.026	288.009	0.188	-0.445
-317.012	-200.000	0.045	0.328
-315.997	-170.446	-0.171	0.008
-314.983	406.042	-0.078	0.217
-313.968	32.740	-0.205	0.232
-312.953	-37.493	0.132	0.092
-311.939	-167.202	-0.488	-0.025
-310.924	-200.000	-0.003	-0.087
-309.910	-44.269	-0.280	0.183
-308.895	-105.166	0.457	0.135
-307.880	-43.364	0.515	-0.339
-306.866	800.000	-0.013	0.075
-305.851	112.722	0.143	-0.227
-304.837	-200.000	0.027	-0.450
-303.822	85.139	-0.224	-0.321
-302.807	-173.833	-0.529	0.020
-301.793	645.825	-0.072	0.241
-300.778	-154.244	-0.432	0.038
-299.764	234.708	0.238	0.514
-298.749	-18.995	0.204	0.165
-297.735	-57.346	-0.249	-0.142
-296.720	209.508	-0.096	-0.196
-295.705	169.318	-0.088	-0.164
-294.691	151.426	-0.176	-0.314
-293.676	53.165	-0.192	0.240
-292.662	-49.085	-0.137	0.085
-291.647	-99.693	-0.294	-0.096
-290.632	-61.977	0.460	-0.250
-289.618	-200.000	-0.011	0.219
-288.603	-57.184	-0.416	-0.238
-287.589	170.124	-0.038	0.071
-286.574	20.876	-0.263	-0.278
-285.559	37.315	-0.668	-0.773
-284.545	800.000	0.092	0.474
-283.530	-24.302	-0.248	0.193
-282.516	97.225	-0.238	-0.357
-281.501	-93.847	0.208	-0.074
-280.486	-150.542	0.306	-0.030
-279.472	-200.000	0.007	0.307
-278.457	-114.788	-0.479	0.118
-277.443	484.050	0.114	-0.339
-276.428	-46.978	0.090	-0.057
-275.413	-83.225	0.174	0.072
-274.399	-18.908	-0.274	0.222
-273.384	71.379	-0.100	-0.136
-272.370	96.837	-0.086	0.129
-271.355	-19.416	-0.186	0.150
-270.340	-139.554	0.338	0.047
-269.326	143.517	-0.243	-0.422
-268.311	-118.379	-0.308	-0.071
-267.297	-101.275	-0.187	0.059
-266.282	-44.744	0.454	0.295
-265.267	-81.301	-0.163	0.070
-264.253	57.524	-0.470	0.599
-263.238	34.100	-0.372	-0.423
-262.224	-164.298	-0.559	-0.033
-261.209	-200.000	0.006	0.249
-260.195	-85.292	-0.158	0.064
-259.180	-82.683	-0.110	-0.046
-258.165	6.132	-0.286	0.276
-257.151	20.605	-0.202	-0.213
-256.136	-129.158	-0.220	0.040
-255.122	171.911	0.121	0.228
-254.107	-134.045	0.442	-0.070
-253.092	-106.707	0.232	0.067
-252.078	-53.092	0.232	0.138
-251.063	-200.000	0.022	-0.310
-250.049	45.726	-0.251	-0.302
-249.034	191.387	0.203	0.400
-248.019	-32.686	0.301	0.218
-247.005	-57.160	0.281	0.161
-245.990	193.897	-0.082	0.162
-244.976	-123.078	-0.652	-0.135
-243.961	3.392	-0.393	-0.372
-242.946	-200.000	0.013	-0.573
-241.932	45.762	0.396	-0.478
-240.917	800.000	0.053	0.248
-239.903	-101.277	-0.441	-0.139
-238.888	-80.409	0.289	0.125
-237.873	-200.000	-0.033	-0.270
-236.859	800.000	0.058	-0.299
-235.844	162.421	0.063	0.115
-234.830	-128.815	0.177	-0.032
-233.815	-114.397	-0.196	0.049
-232.800	800.000	0.054	-0.234
-231.786	-80.857	0.572	-0.246
-230.771	17.746	-0.244	0.253
-229.757	-117.323	-0.330	-0.077
-228.742	-107.960	-0.561	0.158
-227.727	78.874	0.150	0.209
-226.713	92.931	0.060	0.088
-225.698	-100.190	-0.150	-0.048
-224.684	-94.030	0.348	0.124
-223.669	800.000	-0.109	0.459
-222.655	800.000	-0.042	0.236
-221.640	612.874	0.168	0.549
-220.625	-200.000	-0.053	0.304
-219.611	207.209	0.235	-0.479
-218.596	800.000	-0.096	-0.366
-217.582	-200.000	-0.032	-0.324
-216.567	12.513	0.409	-0.410
-215.552	-200.000	0.031	0.278
-214.538	-101.564	0.426	-0.134
-213.523	-200.000	0.027	-0.163
-212.509	233.657	-0.201	0.431
-211.494	-91.129	0.308	-0.114
-210.479	-81.363	-0.221	-0.094
-209.465	-19.332	0.101	0.081
-208.450	-200.000	-0.056	-0.371
-207.436	570.162	0.125	0.399
-206.421	-163.894	0.642	-0.038
-205.406	-158.585	-0.230	0.017
-204.392	28.944	0.325	0.358
-203.377	-142.296	0.805	0.102
-202.363	-115.192	-0.425	0.104
-201.348	145.878	0.227	0.398
-200.333	64.688	0.310	-0.407
-199.319	-21.536	-0.352	-0.279
-198.304	-200.000	0.111	-0.857
-197.290	800.000	-0.049	0.249
-196.275	7.505	-0.368	-0.358
-195.260	122.882	0.369	-0.602
-194.246	-37.828	-0.273	-0.188
-193.231	-15.556	0.159	-0.132
-192.217	-111.522	-0.090	0.023
-191.202	-136.651	0.084	0.013
-190.187	50.003	0.298	0.366
-189.173	-106.871	0.351	-0.100
-188.158	-50.384	0.386	-0.236
-187.144	19.207	-0.400	0.417
-186.129	-198.553	-0.260	-0.002
-185.114	-200.000	-0.038	-0.231
-184.100	-78.235	0.233	0.103
-183.085	-1.433	-0.178	0.163
-182.071	-84.850	-0.529	0.215
-181.056	91.892	0.147	0.216
-180.042	-22.449	0.409	0.321
-179.027	-126.202	0.359	-0.069
-178.012	-200.000	0.024	-0.171
-176.998	-82.726	-0.626	0.262
-175.983	51.771	-0.309	0.382
-174.969	324.940	0.151	0.378
-173.954	-37.057	-0.545	-0.378
-172.939	304.434	-0.124	-0.301
-171.925	4.594	0.338	0.322
-170.910	-87.070	0.474	0.186
-169.896	-0.551	0.448	0.412
-168.881	47.462	-0.235	0.284
-167.866	-200.000	0.005	0.501
-166.852	-116.592	0.153	-0.036
-165.837	-200.000	0.001	-0.256
-164.823	31.560	-0.315	0.352
-163.808	-190.308	0.304	0.004
-162.793	-125.878	-0.137	0.027
-161.779	82.886	0.056	-0.079
-160.764	754.469	0.145	-0.514
-159.750	-200.000	-0.028	-0.512
-158.735	-62.825	0.120	-0.064
-157.720	-73.029	0.300	-0.142
-156.706	67.351	-0.390	0.518
-155.691	452.978	-0.020	-0.057
-154.677	206.361	0.137	0.278
-153.662	121.482	-0.193	0.312
-152.647	800.000	-0.150	0.543
-151.633	101.972	0.265	0.402
-150.618	-157.718	0.184	-0.014
-149.604	61.237	-0.309	-0.399
-148.589	-96.232	0.299	-0.102
-147.574	26.653	-0.359	0.389
-146.560	-136.705	0.048	0.007
-145.545	-160.999	-0.335	0.023
-144.531	560.656	0.078	0.246
-143.516	93.417	-0.189	-0.278
-142.502	-57.998	-0.290	-0.164
-141.487	174.845	-0.070	-0.133
-140.472	-200.000	-0.025	-0.149
-139.458	3.314	-0.323	-0.305
-138.443	-200.000	-0.033	-0.460
-137.429	343.687	-0.108	-0.276
-136.414	733.784	0.172	-0.600
-135.399	-181.323	-0.182	0.005
-134.385	151.449	0.137	-0.242
-133.370	-21.249	-0.455	0.360
-132.356	-69.939	0.110	-0.054
-131.341	-44.458	0.242	-0.157
-130.326	311.089	-0.145	0.354
-129.312	-200.000	-0.018	0.205
-128.297	-69.648	0.085	0.042
-127.283	691.257	0.035	-0.121
-126.268	431.144	0.051	0.143
-125.253	-200.000	0.005	-0.090
-124.239	-46.435	-0.134	-0.085
-123.224	-77.879	-0.284	-0.126
-122.210	800.000	-0.111	-0.482
-121.195	-67.269	-0.439	-0.223
-120.180	-151.886	-0.371	-0.035
-119.166	161.110	0.149	-0.271
-118.151	240.435	-0.252	-0.546
-117.137	-86.420	-0.313	0.124
-116.122	354.662	-0.088	-0.228
-115.107	-6.897	-0.210	0.184
-114.093	362.007	-0.070	-0.183
-113.078	-163.023	0.284	0.018
-112.064	285.973	-0.144	-0.337
-111.049	-174.468	-0.074	-0.003
-110.034	33.681	0.088	0.099
-109.020	60.093	0.067	-0.085
-108.005	800.000	-0.082	0.359
-106.991	-111.756	0.334	0.087
-105.976	198.478	0.191	0.380
-104.962	800.000	0.028	0.103
-103.947	74.221	0.222	0.303
-102.932	-200.000	-0.022	0.194
-101.918	-115.622	0.581	0.140
-100.903	-85.597	0.240	0.096
-99.889	-125.145	-0.322	-0.063
-98.874	32.711	0.206	-0.231
-97.859	-69.745	-0.377	0.186
-96.845	-58.750	0.216	-0.121
-95.830	-145.391	0.180	0.021
-94.816	157.761	0.042	0.075
-93.801	-17.357	0.366	-0.298
-92.786	-89.143	-0.077	-0.029
-91.772	-200.000	-0.013	0.152
-90.757	800.000	-0.069	0.345
-89.743	-127.473	-0.089	0.017
-88.728	-200.000	-0.036	-0.422
-87.713	46.378	0.210	0.252
-86.699	-151.750	0.518	0.049
-85.684	515.158	-0.045	-0.138
-84.670	550.441	0.141	0.441
-83.655	31.977	0.260	-0.291
-82.640	6.582	-0.305	0.293
-81.626	168.666	-0.287	-0.530
-80.611	-114.524	-0.426	-0.105
-79.597	-27.677	0.272	-0.204
-78.582	76.126	-0.168	0.231
-77.567	800.000	0.123	0.555
-76.553	-34.401	-0.022	-0.016
-75.538	569.058	-0.199	0.629
-74.524	-200.000	0.009	-0.358
-73.509	-200.000	0.027	-0.366
-72.494	648.876	-0.081	-0.269
-71.480	46.903	-0.042	0.051
-70.465	-49.890	-0.270	-0.165
-69.451	-200.000	-0.001	-0.017
-68.436	-38.452	-0.013	-0.009
-67.422	501.429	-0.102	-0.307
-66.407	-131.120	0.402	-0.069
-65.392	-89.394	-0.222	0.084
-64.378	-128.941	-0.362	-0.065
-63.363	-99.334	0.164	0.053
-62.349	-128.189	0.318	0.058
-61.334	-47.016	-2.150	-1.354
-60.319	15.156	1.578	1.599
-59.305	215.289	-3.594	-7.399
-58.290	57.027	4.112	5.187
-57.276	441.996	3.573	10.167
-56.261	-200.000	24.047	318.053
-55.246	354.960	1301.733	3362.015
-54.232	52.926	2842.491	3518.135
-53.217	51.421	2658.927	3267.551
-52.203	31.859	2389.533	2660.778
-51.188	27.774	2055.502	2238.493
-50.173	24.444	1941.575	2075.482
-49.159	23.238	1929.828	2048.822
-48.144	22.908	1925.186	2039.985
-47.130	22.801	1922.618	2035.939
-46.115	22.817	1919.852	2033.120
-45.100	22.732	1919.610	2031.799
-44.086	22.699	1918.611	2030.275
-43.071	22.843	1916.138	2029.245
-42.057	22.706	1915.020	2026.399
-41.042	22.755	1913.540	2025.320
-40.027	22.806	1911.738	2023.916
-39.013	22.751	1910.187	2021.553
-37.998	22.765	1909.358	2020.760
-36.984	22.767	1908.433	2019.723
-35.969	22.725	1906.520	2017.137
-34.954	22.741	1905.934	2016.622
-33.940	22.668	1904.007	2013.660
-32.925	22.728	1902.769	2012.965
-31.911	22.657	1901.917	2011.168
-30.896	22.579	1900.790	2009.006
-29.881	22.593	1899.399	2007.619
-28.867	22.570	1897.572	2005.340
-27.852	22.634	1895.572	2003.883
-26.838	22.583	1894.570	2002.160
-25.823	22.567	1893.165	2000.414
-24.809	22.569	1892.304	1999.449
-23.794	22.581	1891.682	1998.839
-22.779	22.667	1889.116	1997.038
-21.765	22.631	1888.227	1995.604
-20.750	22.624	1887.185	1994.342
-19.736	22.527	1886.812	1992.764
-18.721	22.509	1885.259	1990.840
-17.706	22.470	1884.361	1989.377
-16.692	22.570	1882.142	1988.086
-15.677	22.471	1881.228	1985.923
-14.663	22.427	1880.772	1984.865
-13.648	22.360	1879.001	1982.152
-12.633	22.432	1878.550	1982.413
-11.619	22.412	1877.363	1980.862
-10.604	22.440	1875.746	1979.384
-9.590	22.471	1874.696	1978.556
-8.575	22.315	1873.376	1975.325
-7.560	22.418	1871.268	1974.180
-6.546	22.615	1869.600	1974.565
-5.531	22.488	1868.419	1971.809
-4.517	22.517	1867.686	1971.275
-3.502	22.479	1866.656	1969.691
-2.487	22.378	1866.240	1968.031
-1.473	22.618	1862.200	1966.388
-0.458	22.437	1843.756	1944.821
0.556	18.894	1990.410	2044.949
1.571	17.612	2192.863	2235.787
2.586	18.304	2233.087	2285.809
3.600	18.323	2235.788	2288.551
4.615	18.236	2235.243	2286.559
5.629	18.367	2232.487	2285.216
6.644	18.256	2231.051	2281.989
7.659	18.332	2228.995	2280.626
8.673	18.274	2226.126	2276.648
9.688	18.006	2235.856	2282.731
10.702	17.062	2315.420	2350.542
11.717	15.584	2381.084	2395.737
12.731	7.445	2361.219	2259.372
13.746	1.044	2343.028	2150.577
14.761	0.156	2340.250	2135.112
15.775	0.059	2338.655	2132.013
16.790	-0.005	2337.329	2129.647
17.804	0.012	2335.704	2128.155
18.819	0.010	2334.844	2127.085
19.834	0.044	2332.821	2125.469
20.848	-0.072	2331.660	2122.509
21.863	0.025	2329.581	2121.743
22.877	0.054	2327.121	2119.657
23.892	0.082	2324.742	2117.628
24.907	0.065	2322.546	2115.133
25.921	-0.149	2321.323	2110.750
26.936	0.067	2317.693	2110.245
27.950	0.024	2316.035	2107.871
28.965	0.136	2314.085	2107.416
29.980	-0.023	2313.150	2104.075
30.994	0.084	2311.297	2103.643
32.009	3.999	2323.662	2169.891
33.023	13.256	2350.500	2326.130
34.038	17.230	2356.366	2387.895
35.053	17.573	2353.584	2389.630
36.067	17.742	2351.659	2389.766
37.082	17.563	2350.115	2385.399
38.096	17.439	2348.849	2382.076
39.111	17.711	2345.269	2381.986
40.126	17.800	2344.024	2381.691
41.140	17.933	2342.349	2381.570
42.155	17.831	2339.936	2377.400
43.169	17.784	2338.154	2374.645
44.184	17.650	2335.686	2369.975
45.199	17.712	2332.937	2367.779
46.213	17.545	2332.947	2365.169
47.228	17.722	2331.319	2365.698
48.242	17.714	2329.807	2363.774
49.257	17.841	2328.090	2363.521
50.271	17.835	2325.542	2360.560
51.286	17.847	2321.898	2356.756
52.301	17.681	2320.852	2353.103
53.315	18.060	2321.811	2359.057
54.330	19.762	2326.195	2386.855
55.344	20.900	2326.504	2402.680
56.359	20.829	2324.125	2398.948
57.374	21.111	2322.451	2400.826
58.388	21.274	2319.716	2399.964
59.403	21.154	2316.521	2394.727
60.417	21.155	2313.058	2390.863
61.432	21.162	2312.012	2389.591
62.447	21.492	2310.619	2392.406
63.461	21.545	2308.779	2390.949
64.476	21.519	2307.660	2389.144
65.490	21.366	2305.803	2384.830
66.505	20.893	2302.545	2374.697
67.520	19.445	2297.120	2349.024
68.534	18.005	2290.463	2322.268
69.549	17.724	2286.437	2314.083
70.563	17.843	2284.260	2313.217
71.578	17.861	2282.996	2311.906
72.593	17.824	2280.448	2308.544
73.607	17.819	2279.640	2307.391
74.622	17.911	2277.270	2305.960
75.636	17.782	2274.849	2301.481
76.651	17.808	2273.185	2299.885
77.666	17.788	2270.930	2297.044
78.680	17.770	2268.264	2293.829
79.695	17.854	2266.907	2293.318
80.709	17.866	2265.303	2291.589
81.724	17.940	2262.374	2289.342
82.739	17.813	2260.367	2285.340
83.753	17.643	2258.582	2280.963
84.768	17.729	2256.456	2279.707
85.782	17.646	2255.913	2277.768
86.797	17.696	2254.238	2276.468
87.812	17.677	2252.661	2274.353
88.826	17.691	2250.321	2271.905
89.841	17.750	2247.305	2269.379
90.855	17.789	2245.475	2267.776
91.870	17.781	2244.930	2266.852
92.884	17.826	2242.351	2264.581
93.899	17.732	2240.998	2261.691
94.914	17.991	2243.243	2267.135
95.928	19.599	2247.432	2292.566
96.943	20.157	2245.622	2297.885
97.957	18.656	2237.237	2269.098
98.972	17.738	2233.364	2252.707
99.987	17.610	2230.257	2247.607
101.001	17.678	2227.672	2245.645
102.016	17.650	2225.994	2243.311
103.030	17.623	2223.666	2240.337
104.045	17.851	2220.398	2239.784
105.060	17.727	2218.555	2236.016
106.074	17.692	2217.351	2234.080
107.089	17.613	2216.214	2231.628
108.103	17.779	2214.276	2231.595
109.118	17.794	2213.206	2230.444
110.133	17.843	2211.913	2229.518
111.147	17.843	2209.312	2226.634
112.162	17.811	2208.354	2224.981
113.176	17.769	2205.551	2221.334
114.191	17.792	2204.072	2219.877
115.206	17.735	2202.983	2217.770
116.220	17.801	2201.205	2216.583
117.235	17.777	2198.191	2212.969
118.249	17.713	2196.409	2210.080
119.264	17.849	2195.453	2210.623
120.279	17.761	2193.948	2207.697
121.293	17.743	2191.875	2205.105
122.308	17.796	2190.815	2204.474
123.322	17.801	2189.122	2202.562
124.337	18.038	2190.088	2206.354
125.352	19.800	2194.493	2233.411
126.366	20.250	2192.466	2236.921
127.381	18.493	2183.845	2205.157
128.395	17.711	2180.042	2190.960
129.410	17.784	2177.839	2189.417
130.424	17.683	2176.768	2186.775
131.439	17.546	2175.122	2183.093
132.454	17.537	2173.526	2181.120
133.468	17.721	2170.746	2180.432
134.483	17.717	2169.333	2178.699
135.497	17.767	2167.721	2177.464
136.512	17.732	2165.093	2174.120
137.527	17.785	2163.360	2172.787
138.541	17.652	2162.928	2170.402
139.556	17.631	2162.195	2169.136
140.570	17.658	2160.316	2167.338
141.585	17.605	2158.725	2164.804
142.600	17.677	2156.778	2163.509
143.614	17.700	2155.083	2161.841
144.629	17.730	2152.648	2159.518
145.643	17.597	2150.892	2155.805
146.658	17.537	2150.147	2154.037
147.673	17.584	2148.165	2152.392
148.687	17.598	2146.774	2150.925
149.702	17.680	2145.824	2150.757
150.716	17.639	2144.245	2148.396
151.731	17.699	2143.771	2148.417
152.746	17.626	2142.637	2146.109
153.760	18.009	2144.619	2152.681
154.775	19.681	2148.092	2177.097
155.789	20.137	2146.552	2181.045
156.804	18.621	2137.054	2152.038
157.819	17.867	2131.919	2137.122
158.833	17.650	2129.839	2132.049
159.848	17.780	2127.258	2130.844
160.862	17.657	2127.376	2129.170
161.877	17.754	2125.952	2128.707
162.892	17.769	2124.308	2126.987
163.906	17.836	2122.191	2125.450
164.921	17.761	2121.394	2123.465
165.935	17.858	2118.175	2121.203
166.950	17.764	2117.607	2119.199
167.964	17.739	2115.108	2116.136
168.979	17.718	2112.656	2113.165
169.994	17.668	2112.477	2112.109
171.008	17.710	2110.846	2110.753
172.023	17.655	2109.518	2108.487
173.037	17.831	2107.621	2108.525
174.052	17.798	2105.541	2105.781
175.067	17.760	2104.209	2103.732
176.081	17.684	2102.735	2101.061
177.096	17.703	2101.761	2100.069
178.110	17.531	2100.657	2096.593
179.125	17.635	2099.417	2096.386
180.140	17.703	2098.000	2095.565
181.154	17.753	2096.154	2094.079
182.169	17.642	2096.017	2092.320
183.183	18.071	2096.149	2097.497
184.198	19.917	2100.316	2124.211
185.213	20.262	2098.414	2126.278
186.227	18.555	2091.327	2097.878
187.242	17.847	2088.108	2085.701
188.256	17.797	2086.284	2083.014
189.271	17.810	2084.276	2080.921
190.286	17.719	2083.334	2078.617
191.300	17.610	2081.231	2074.936
192.315	17.640	2078.724	2072.549
193.329	17.777	2077.766	2073.026
194.344	17.956	2076.271	2073.468
195.359	17.784	2075.711	2070.568
196.373	17.808	2073.865	2068.762
197.388	17.675	2071.309	2064.355
198.402	17.605	2069.380	2061.333
199.417	17.604	2066.658	2058.358
200.432	17.614	2066.137	2057.718
201.446	17.782	2064.090	2057.470
202.461	17.718	2062.597	2054.953
203.475	17.614	2061.300	2052.158
204.490	17.724	2059.302	2051.250
205.504	17.518	2057.373	2046.603
206.519	17.582	2055.864	2045.632
207.534	17.649	2053.201	2043.536
208.548	17.745	2051.674	2042.929
209.563	17.810	2050.470	2042.275
210.577	17.698	2049.527	2039.745
211.592	17.727	2049.420	2039.736
212.607	18.710	2052.310	2054.204
213.621	20.634	2056.101	2080.903
214.636	20.223	2050.821	2070.378
215.650	18.275	2044.311	2040.242
216.665	17.712	2041.506	2030.469
217.680	17.819	2039.609	2029.617
218.694	17.837	2037.583	2027.565
219.709	17.701	2037.073	2025.197
220.723	17.817	2035.791	2025.067
221.738	17.769	2034.249	2022.712
222.753	17.722	2031.763	2019.444
223.767	17.810	2029.938	2018.433
224.782	17.707	2028.562	2015.599
225.796	17.834	2027.471	2015.782
226.811	17.837	2025.770	2013.889
227.826	17.721	2024.869	2011.372
228.840	17.758	2023.347	2010.057
229.855	17.751	2021.654	2008.057
230.869	17.714	2020.147	2005.883
231.884	17.908	2016.703	2004.508
232.899	17.847	2016.189	2003.039
233.913	17.688	2015.251	1999.989
234.928	17.674	2014.415	1998.756
235.942	17.668	2012.084	1996.131
236.957	17.690	2010.519	1994.602
237.972	17.735	2009.018	1993.403
238.986	17.726	2008.705	1992.753
240.001	17.755	2007.115	1991.265
241.015	17.719	2005.828	1989.329
242.030	18.060	2007.231	1994.484
243.045	19.711	2009.707	2016.082
244.059	19.970	2006.524	2015.674
245.074	18.333	2000.062	1989.843
246.088	17.661	1996.872	1978.586
247.103	17.683	1995.659	1977.402
248.117	17.637	1994.470	1975.452
249.132	17.776	1992.128	1974.516
250.147	17.698	1990.922	1972.180
251.161	17.698	1988.824	1969.860
252.176	17.746	1987.549	1968.925
253.190	18.053	1985.419	1970.140
254.205	17.862	1983.871	1966.156
255.220	17.887	1982.957	1965.296
256.234	17.918	1981.941	1964.411
257.249	17.796	1980.905	1961.747
258.263	17.803	1979.662	1960.355
259.278	17.855	1977.967	1959.047
260.293	17.791	1976.381	1956.503
261.307	17.682	1974.924	1953.573
262.322	17.630	1973.312	1951.149
263.336	17.636	1970.877	1948.571
264.351	17.634	1968.896	1946.359
265.366	17.709	1968.305	1946.399
266.380	17.719	1967.709	1945.692
267.395	17.655	1966.284	1943.321
268.409	17.551	1964.952	1940.579
269.424	17.802	1962.136	1940.430
270.439	17.738	1962.027	1939.364
271.453	18.209	1962.714	1945.194
272.468	19.921	1965.800	1967.597
273.482	20.052	1963.306	1966.360
274.497	18.362	1955.832	1939.414
275.512	17.641	1952.500	1927.690
276.526	17.719	1950.306	1926.170
277.541	17.638	1948.629	1923.366
278.555	17.668	1947.459	1922.327
279.570	17.668	1944.840	1919.511
280.585	17.572	1944.102	1917.465
281.599	17.672	1943.308	1917.585
282.614	17.749	1942.115	1917.047
283.628	17.864	1941.309	1917.318
284.643	17.838	1941.237	1916.724
285.657	17.953	1938.804	1915.387
286.672	18.025	1936.580	1913.776
287.687	17.883	1935.568	1910.944
288.701	17.876	1934.563	1909.654
289.716	17.843	1932.496	1907.014
290.730	17.884	1930.493	1905.265
291.745	17.856	1930.407	1904.641
292.760	17.838	1929.409	1903.221
293.774	17.829	1928.190	1901.692
294.789	17.779	1926.356	1899.099
295.803	17.725	1923.763	1895.713
296.818	17.682	1923.046	1894.296
297.833	17.841	1921.416	1894.240
298.847	17.747	1920.437	1891.994
299.862	17.717	1918.795	1889.813
300.876	18.188	1918.884	1894.928
301.891	20.057	1922.759	1919.360
302.906	20.359	1920.514	1920.250
303.920	18.588	1914.050	1893.914
304.935	17.887	1911.239	1883.131
305.949	17.782	1908.863	1879.407
306.964	17.802	1907.426	1877.989
307.979	17.933	1906.187	1877.987
308.993	17.906	1905.300	1876.595
310.008	18.037	1903.681	1876.218
311.022	18.021	1901.970	1874.131
312.037	18.020	1899.808	1871.770
313.052	17.859	1898.889	1868.866
314.066	18.041	1896.634	1868.423
315.081	17.852	1896.577	1866.063
316.095	17.908	1895.303	1865.204
317.110	17.998	1893.492	1864.184
318.125	17.910	1892.279	1861.806
319.139	17.965	1890.207	1860.143
320.154	17.879	1889.709	1858.491
321.168	17.945	1887.671	1856.982
322.183	17.902	1886.153	1854.801
323.197	17.840	1884.706	1852.481
324.212	17.751	1882.389	1849.009
325.227	17.669	1881.707	1847.222
326.241	17.687	1880.588	1846.097
327.256	17.731	1878.656	1844.458
328.270	17.709	1878.114	1843.467
329.285	17.625	1878.249	1842.464
330.300	18.291	1880.505	1851.701
331.314	20.331	1882.575	1875.704
332.329	20.272	1878.522	1870.807
333.343	18.358	1872.593	1843.979
334.358	17.838	1870.244	1835.827
335.373	17.830	1868.101	1833.413
336.387	17.705	1864.961	1828.761
337.402	17.672	1864.743	1827.972
338.416	17.650	1863.027	1825.842
339.431	17.767	1861.816	1825.691
340.446	17.785	1859.826	1823.716
341.460	18.040	1858.479	1824.917
342.475	17.947	1857.465	1822.697
343.489	17.978	1855.986	1821.369
344.504	18.000	1855.650	1821.049
345.519	17.947	1853.847	1818.495
346.533	18.046	1852.536	1818.048
347.548	18.005	1851.957	1816.823
348.562	18.056	1850.260	1815.488
349.577	18.070	1849.196	1814.380
350.592	18.014	1847.304	1811.711
351.606	18.005	1846.229	1810.338
352.621	17.992	1844.286	1808.083
353.635	17.795	1842.854	1804.362
354.650	17.767	1841.179	1802.214
355.665	17.745	1839.433	1800.054
356.679	17.792	1837.661	1798.602
357.694	17.861	1836.729	1798.201
358.708	17.782	1836.539	1796.964
359.723	18.664	1838.281	1807.804
360.738	20.419	1840.133	1827.993
361.752	19.839	1837.033	1818.570
362.767	17.995	1832.195	1794.113
363.781	17.761	1829.452	1788.746
364.796	17.723	1826.889	1785.623
365.810	17.718	1826.617	1785.091
366.825	17.723	1824.971	1783.323
367.840	17.736	1824.995	1783.261
368.854	17.745	1823.582	1781.761
369.869	17.708	1821.675	1779.301
370.883	17.697	1819.219	1776.569
371.898	17.755	1818.009	1775.790
372.913	17.796	1816.692	1774.714
373.927	17.754	1815.937	1773.327
374.942	17.754	1815.329	1772.522
375.956	17.884	1813.592	1771.971
376.971	17.763	1811.060	1768.025
377.986	17.720	1810.010	1766.335
379.000	17.715	1808.719	1764.813
380.015	17.834	1808.010	1765.153
381.029	17.944	1805.373	1763.511
382.044	17.781	1803.895	1760.157
383.059	17.993	1801.497	1759.803
384.073	17.838	1801.912	1758.391
385.088	17.684	1801.474	1756.160
386.102	17.715	1798.729	1753.598
387.117	17.693	1796.770	1751.251
388.132	17.599	1795.842	1749.165
389.146	18.203	1799.189	1758.462
390.161	20.232	1801.394	1781.372
391.175	20.119	1796.244	1774.902
392.190	18.228	1789.255	1748.373
393.205	17.777	1787.112	1741.443
394.219	17.770	1785.606	1739.703
395.234	17.697	1784.566	1737.730
396.248	17.804	1782.104	1736.215
397.263	17.811	1780.205	1734.232
398.278	17.696	1778.457	1731.152
399.292	17.672	1778.491	1730.733
400.307	17.944	1777.265	1732.102
401.321	17.914	1776.072	1730.425
402.336	17.856	1773.968	1727.580
403.350	17.953	1772.317	1726.751
404.365	17.857	1771.975	1725.235
405.380	18.090	1770.983	1726.427
406.394	18.305	1770.189	1727.628
407.409	18.174	1768.557	1724.502
408.423	18.097	1767.495	1722.482
409.438	17.966	1765.523	1719.033
410.453	18.003	1764.401	1718.102
411.467	18.059	1764.185	1718.250
412.482	17.997	1761.608	1714.915
413.496	17.930	1760.946	1713.383
414.511	17.672	1759.596	1709.268
415.526	17.813	1755.771	1706.768
416.540	17.838	1754.427	1705.507
417.555	17.774	1753.931	1704.180
418.569	17.746	1753.944	1703.704
419.584	17.905	1753.360	1704.531
420.599	17.804	1753.848	1703.790
421.613	17.806	1752.550	1702.336
422.628	17.802	1751.274	1700.858
423.642	17.923	1749.485	1700.129
424.657	17.907	1747.861	1698.188
425.672	17.961	1745.597	1696.326
426.686	17.856	1744.189	1693.707
427.701	17.930	1743.307	1693.387
428.715	17.973	1742.025	1692.360
429.730	17.894	1741.135	1690.508
430.745	17.982	1739.122	1689.228
431.759	17.842	1738.661	1687.187
432.774	17.822	1737.988	1686.133
433.788	17.968	1737.578	1686.985
434.803	18.080	1736.738	1687.073
435.818	18.021	1736.607	1686.166
436.832	17.895	1735.940	1684.066
437.847	17.016	1728.709	1668.163
438.861	9.502	1708.822	1575.129
439.876	1.831	1693.618	1485.943
440.890	0.391	1690.467	1468.908
441.905	0.235	1689.221	1466.122
442.920	0.213	1687.706	1464.421
443.934	0.157	1686.499	1462.647
444.949	0.273	1684.659	1462.012
445.963	0.156	1684.580	1460.625
446.978	0.133	1684.112	1459.825
447.993	0.118	1682.764	1458.329
449.007	0.064	1680.028	1455.258
450.022	0.133	1678.287	1454.245
451.036	0.163	1676.993	1453.248
452.051	1.032	1681.512	1465.443
453.066	8.571	1699.307	1554.641
454.080	16.138	1710.036	1638.410
455.095	17.490	1711.656	1652.978
456.109	17.649	1711.569	1654.245
457.124	17.836	1709.900	1654.261
458.139	17.861	1709.443	1653.862
459.153	17.845	1707.423	1651.551
460.168	17.801	1706.408	1649.945
461.182	17.739	1704.766	1647.556
462.197	17.755	1703.112	1645.920
463.212	17.762	1701.451	1644.184
464.226	17.741	1700.608	1642.963
465.241	17.810	1699.285	1642.164
466.255	17.831	1697.765	1640.700
467.270	17.865	1696.909	1640.006
468.285	17.717	1694.930	1636.463
469.299	17.592	1694.521	1634.673
470.314	17.654	1692.909	1633.520
471.328	17.911	1690.156	1633.134
472.343	17.732	1690.156	1631.219
473.358	17.787	1689.173	1630.601
474.372	17.786	1687.835	1629.112
475.387	17.677	1686.374	1626.460
476.401	17.632	1685.374	1624.864
477.416	17.909	1683.481	1625.495
478.430	17.752	1682.599	1622.950
479.445	17.758	1681.157	1621.423
480.460	17.778	1680.476	1620.761
481.474	17.772	1679.094	1619.176
482.489	17.777	1678.402	1618.363
483.503	17.849	1675.838	1616.383
484.518	17.893	1674.359	1615.181
485.533	17.840	1673.321	1613.486
486.547	17.811	1672.013	1611.752
487.562	17.998	1671.063	1612.417
488.576	18.034	1669.098	1610.675
489.591	17.909	1668.687	1608.900
490.606	17.886	1667.137	1606.995
491.620	17.881	1665.676	1605.349
492.635	17.918	1663.962	1603.848
493.649	17.950	1663.000	1603.032
494.664	17.721	1661.669	1599.398
495.679	17.801	1660.121	1598.471
496.693	17.664	1659.126	1596.038
497.708	17.795	1657.875	1595.867
498.722	17.678	1657.350	1594.076
499.737	17.792	1655.668	1593.337
500.752	17.830	1653.517	1591.435
501.766	17.743	1652.418	1589.366
502.781	17.791	1650.429	1587.712
503.795	17.883	1649.140	1587.149
504.810	17.939	1648.297	1586.668
505.825	17.815	1648.559	1585.569
506.839	17.792	1647.022	1583.686
507.854	17.712	1646.042	1581.805
508.868	17.860	1644.158	1581.193
509.883	17.919	1643.056	1580.491
510.898	17.960	1641.678	1579.356
511.912	17.804	1640.285	1576.374
512.927	17.746	1639.249	1574.655
513.941	17.824	1637.217	1573.239
514.956	17.873	1636.465	1572.782
515.971	17.813	1634.764	1570.401
516.985	17.929	1633.118	1569.707
518.000	17.902	1632.591	1568.761
519.014	18.004	1631.985	1568.928
520.029	17.930	1630.234	1566.379
521.043	17.812	1629.239	1564.153
522.058	17.817	1628.484	1563.284
523.073	17.963	1627.318	1563.322
524.087	17.926	1626.374	1561.883
525.102	17.906	1624.838	1560.036
526.116	17.863	1623.235	1557.920
527.131	18.037	1621.473	1557.636
528.146	17.967	1621.490	1556.828
529.160	17.945	1619.805	1554.816
530.175	17.950	1618.653	1553.568
531.189	17.990	1617.635	1552.770
532.204	18.034	1615.838	1551.268
533.219	17.902	1614.824	1548.901
534.233	17.814	1614.594	1547.697
535.248	17.850	1613.442	1546.735
536.262	18.156	1612.328	1548.263
537.277	17.943	1611.169	1545.025
538.292	18.011	1609.129	1543.508
539.306	17.992	1607.436	1541.523
540.321	18.143	1606.455	1541.766
541.335	17.913	1605.472	1538.556
542.350	17.959	1603.840	1537.227
543.365	18.073	1602.176	1536.480
544.379	17.965	1601.688	1534.846
545.394	18.038	1600.163	1533.861
546.408	17.987	1598.201	1531.335
547.423	17.922	1596.699	1529.127
548.438	17.919	1596.250	1528.490
549.452	17.937	1594.756	1527.039
550.467	17.913	1593.608	1525.546
551.481	17.917	1593.487	1525.279
552.496	17.836	1592.650	1523.567
553.511	18.010	1590.902	1523.274
554.525	18.058	1589.578	1522.250
555.540	18.085	1589.299	1522.044
556.554	18.138	1587.526	1520.643
557.569	18.119	1586.446	1519.249
558.583	17.911	1585.142	1515.966
559.598	18.012	1583.219	1514.847
560.613	17.955	1582.986	1513.937
561.627	17.896	1582.489	1512.753
562.642	17.938	1580.513	1511.057
563.656	18.002	1579.449	1510.422
564.671	17.978	1577.799	1508.457
565.686	17.996	1576.643	1507.331
566.700	18.072	1574.054	1505.342
567.715	17.933	1573.412	1503.323
568.729	17.914	1572.549	1502.146
569.744	17.976	1570.799	1500.841
570.759	17.972	1569.412	1499.308
571.773	18.028	1568.831	1499.064
572.788	17.950	1567.647	1497.063
573.802	17.953	1566.177	1495.512
574.817	17.982	1564.792	1494.264
575.832	17.998	1563.732	1493.213
576.846	17.971	1562.540	1491.661
577.861	18.009	1561.957	1491.255
578.875	18.124	1561.270	1491.427
579.890	18.121	1559.758	1489.786
580.905	18.119	1558.364	1488.258
581.919	18.071	1557.974	1487.284
582.934	18.125	1556.779	1486.439
583.948	18.102	1555.636	1484.966
584.963	18.048	1554.165	1482.911
585.978	17.999	1552.818	1481.021
586.992	17.967	1552.557	1480.315
588.007	18.243	1551.470	1481.506
589.021	18.093	1550.712	1479.300
590.036	18.079	1548.903	1477.277
591.051	18.114	1547.550	1476.110
592.065	18.131	1546.055	1474.662
593.080	18.217	1544.614	1473.848
594.094	18.307	1542.718	1472.643
595.109	17.995	1540.994	1468.129
596.123	17.976	1539.030	1465.919
597.138	18.155	1538.001	1466.305
598.153	18.060	1537.728	1465.054
599.167	17.944	1536.552	1462.759
600.182	18.086	1535.714	1463.002
601.196	18.108	1534.865	1462.206
602.211	18.164	1533.945	1461.637
603.226	18.104	1532.354	1459.430
604.240	18.086	1530.885	1457.702
605.255	18.111	1529.993	1456.893
606.269	18.073	1529.235	1455.678
607.284	18.275	1527.820	1455.884
608.299	18.074	1526.366	1452.604
609.313	18.169	1524.986	1451.931
610.328	18.133	1523.520	1450.054
611.342	18.190	1522.840	1449.717
612.357	18.179	1521.865	1448.518
613.372	18.173	1520.838	1447.318
614.386	18.171	1519.989	1446.321
615.401	18.200	1518.743	1445.203
616.415	18.209	1518.328	1444.718
617.430	18.297	1517.183	1444.196
618.445	18.195	1515.927	1441.969
619.459	18.214	1514.538	1440.632
620.474	18.084	1514.109	1438.951
621.488	17.925	1512.447	1435.861
622.503	18.003	1511.721	1435.654
623.518	18.157	1510.540	1435.661
624.532	18.166	1509.615	1434.684
625.547	18.154	1508.389	1433.251
626.561	18.309	1507.788	1433.810
627.576	18.333	1506.483	1432.602
628.591	18.369	1504.412	1430.763
629.605	18.102	1504.375	1428.313
630.620	18.185	1502.845	1427.389
631.634	18.191	1501.333	1425.830
632.649	18.202	1500.718	1425.166
633.663	18.113	1498.885	1422.511
634.678	18.198	1498.172	1422.379
635.693	18.167	1496.852	1420.694
636.707	18.214	1495.114	1419.263
637.722	18.324	1494.149	1419.094
638.736	18.259	1492.985	1417.277
639.751	18.212	1492.269	1416.041
640.766	18.265	1490.636	1414.763
641.780	18.341	1488.869	1413.544
642.795	18.288	1488.255	1412.350
643.809	18.179	1488.150	1411.182
644.824	18.268	1486.802	1410.471
645.839	18.188	1486.089	1408.965
646.853	18.279	1484.682	1408.210
647.868	18.308	1483.159	1406.840
648.882	18.330	1481.812	1405.577
649.897	18.273	1480.781	1403.960
650.912	18.292	1479.825	1403.039
651.926	18.267	1478.462	1401.372
652.941	18.412	1477.364	1401.356
653.955	18.282	1475.920	1398.757
654.970	18.121	1474.370	1395.796
655.985	18.235	1472.597	1394.882
656.999	18.314	1472.036	1394.834
658.014	18.343	1470.980	1393.906
659.028	18.348	1469.517	1392.387
660.043	18.430	1469.286	1392.675
661.058	18.410	1468.074	1391.199
662.072	18.368	1466.951	1389.624
663.087	18.297	1465.587	1387.587
664.101	18.261	1464.246	1385.860
665.116	18.274	1463.741	1385.316
666.131	18.252	1462.760	1384.050
667.145	18.280	1461.406	1382.825
668.160	18.357	1459.842	1381.804
669.174	18.444	1458.355	1380.940
670.189	18.381	1457.540	1379.494
671.204	18.296	1457.066	1378.188
672.218	18.278	1456.020	1376.888
673.233	18.276	1454.268	1375.051
674.247	18.381	1453.261	1374.783
675.262	18.394	1452.745	1374.233
676.276	18.422	1451.807	1373.406
677.291	18.365	1450.239	1371.298
678.306	18.464	1448.864	1370.637
679.320	18.424	1448.118	1369.439
680.335	18.326	1447.824	1368.215
681.349	18.406	1446.806	1367.731
682.364	18.445	1445.801	1366.930
683.379	18.262	1444.553	1364.118
684.393	18.217	1443.315	1362.429
685.408	18.303	1441.783	1361.506
686.422	18.241	1441.069	1360.169
687.437	18.370	1440.370	1360.381
688.452	18.373	1439.894	1359.788
689.466	18.349	1437.813	1357.473
690.481	18.352	1436.765	1356.340
691.495	18.188	1436.373	1354.509
692.510	18.278	1434.634	1353.421
693.525	18.123	1432.876	1350.371
694.539	18.136	1432.325	1349.790
695.554	18.359	1431.368	1350.491
696.568	18.237	1431.197	1349.207
697.583	18.250	1430.277	1348.283
698.598	18.398	1429.173	1348.250
699.612	18.374	1427.474	1346.294
700.627	18.436	1425.927	1345.161
701.641	18.492	1424.671	1344.259
702.656	18.388	1424.648	1343.255
703.671	18.484	1424.148	1343.379
704.685	18.446	1423.058	1341.892
705.700	18.420	1421.455	1340.016
706.714	18.532	1419.489	1338.882
707.729	18.519	1418.251	1337.451
708.744	18.522	1417.209	1336.335
709.758	18.509	1416.446	1335.351
710.773	18.476	1416.147	1334.649
711.787	18.434	1414.079	1332.211
712.802	18.460	1412.692	1330.951
713.816	18.503	1412.005	1330.480
714.831	18.554	1410.720	1329.506
715.846	18.683	1409.627	1329.321
716.860	18.615	1408.330	1327.414
717.875	18.403	1408.056	1325.348
718.889	18.482	1406.482	1324.321
719.904	18.587	1405.383	1323.941
720.919	18.519	1404.348	1322.277
721.933	18.527	1404.229	1322.071
722.948	18.503	1402.704	1320.294
723.962	18.590	1401.793	1319.950
724.977	18.502	1400.359	1317.762
725.992	18.523	1399.942	1317.369
727.006	18.533	1398.096	1315.555
728.021	18.492	1396.712	1313.779
729.035	18.442	1396.292	1312.844
730.050	18.553	1394.910	1312.239
731.065	18.423	1394.119	1310.339
732.079	18.549	1392.752	1309.864
733.094	18.469	1391.651	1308.060
734.108	18.433	1390.101	1306.166
735.123	18.547	1389.043	1305.894
736.138	18.367	1388.559	1303.903
737.152	18.428	1387.485	1303.207
738.167	18.531	1386.169	1302.597
739.181	18.590	1385.451	1302.219
740.196	18.442	1385.056	1300.567
741.211	18.495	1383.674	1299.517
742.225	18.524	1382.558	1298.528
743.240	18.472	1381.525	1297.012
744.254	18.493	1380.250	1295.815
745.269	18.513	1379.071	1294.708
746.284	18.496	1378.437	1293.829
747.298	18.283	1377.554	1291.231
748.313	18.303	1376.036	1289.804
749.327	18.232	1375.254	1288.378
750.342	18.213	1374.403	1287.284
751.356	18.151	1372.976	1285.327
752.371	18.191	1372.192	1284.741
753.386	18.321	1370.929	1284.382
754.400	18.517	1370.025	1284.858
755.415	18.525	1368.882	1283.693
756.429	18.658	1367.341	1283.094
757.444	18.450	1367.014	1281.066
758.459	18.558	1366.024	1280.797
759.473	18.666	1364.984	1280.480
760.488	18.708	1363.967	1279.688
761.502	18.508	1362.705	1276.854
762.517	18.601	1362.050	1276.783
763.532	18.646	1360.287	1275.315
764.546	18.542	1359.123	1273.297
765.561	18.581	1358.545	1272.889
766.575	18.516	1357.730	1271.487
767.590	18.350	1356.530	1268.978
768.605	18.465	1355.195	1268.431
769.619	18.619	1353.843	1268.159
770.634	18.539	1353.006	1266.631
771.648	18.568	1351.855	1265.619
772.663	18.606	1351.277	1265.203
773.678	18.690	1350.650	1265.091
774.692	18.532	1349.871	1263.037
775.707	18.574	1349.630	1262.970
776.721	18.625	1348.477	1262.122
777.736	18.480	1347.603	1260.080
778.751	18.503	1346.094	1258.686
779.765	18.565	1344.612	1257.607
780.780	18.479	1344.664	1256.872
781.794	18.598	1343.519	1256.525
782.809	18.492	1342.755	1254.885
783.824	18.369	1341.444	1252.601
784.838	18.295	1339.853	1250.423
785.853	18.212	1338.608	1248.504
786.867	18.032	1339.058	1247.456
787.882	18.114	1338.221	1247.125
788.897	18.414	1336.349	1247.424
789.911	18.509	1335.340	1247.033
790.926	18.567	1334.475	1246.496
791.940	18.387	1333.118	1243.770
792.955	18.436	1332.021	1242.955
793.969	18.527	1330.628	1242.168
794.984	18.509	1330.224	1241.511
795.999	18.548	1329.107	1240.601
797.013	18.613	1327.378	1239.312
798.028	18.729	1325.662	1238.400
799.042	18.759	1324.845	1237.705
800.057	18.739	1324.101	1236.719
801.072	18.680	1322.718	1234.851
802.086	18.543	1322.146	1233.184
803.101	18.661	1320.691	1232.527
804.115	18.674	1319.775	1231.624
805.130	18.743	1318.823	1231.082
806.145	18.778	1317.582	1230.029
807.159	18.653	1316.602	1228.070
808.174	18.607	1315.443	1226.507
809.188	18.608	1314.168	1225.183
810.203	18.768	1312.785	1224.891
811.218	18.558	1310.895	1221.475
812.232	18.646	1309.805	1220.942
813.247	18.517	1308.700	1218.847
814.261	18.650	1308.668	1219.624
815.276	18.710	1307.421	1218.741
816.291	18.666	1306.801	1217.703
817.305	18.673	1305.830	1216.701
818.320	18.728	1303.922	1215.168
819.334	18.645	1302.937	1213.521
820.349	18.737	1300.779	1212.013
821.364	18.610	1299.703	1209.971
822.378	18.652	1299.066	1209.525
823.393	18.726	1297.496	1208.444
824.407	18.737	1296.500	1207.453
825.422	18.694	1295.863	1206.410
826.437	18.560	1294.752	1204.281
827.451	18.424	1292.416	1201.005
828.466	18.404	1291.462	1199.837
829.480	18.491	1289.785	1198.746
830.495	18.394	1288.054	1196.314
831.509	18.229	1288.224	1195.169
832.524	18.503	1287.294	1196.084
833.539	18.581	1285.708	1195.014
834.553	18.779	1284.393	1195.039
835.568	18.698	1283.539	1193.533
836.582	18.634	1282.998	1192.440
837.597	18.902	1281.037	1192.340
838.612	18.927	1279.596	1191.034
839.626	18.895	1278.826	1189.949
840.641	18.676	1278.031	1187.547
841.655	18.610	1277.796	1186.723
842.670	18.698	1275.767	1185.309
843.685	18.728	1274.979	1184.648
844.699	18.626	1273.737	1182.643
845.714	18.812	1272.350	1182.503
846.728	18.863	1271.821	1182.223
847.743	18.715	1271.236	1180.512
848.758	18.690	1269.727	1178.796
849.772	18.717	1268.039	1177.274
850.787	18.770	1267.416	1176.920
851.801	18.717	1265.945	1175.051
852.816	18.562	1264.476	1172.481
853.831	18.583	1262.800	1170.932
854.845	18.742	1261.153	1170.355
855.860	18.533	1259.665	1167.400
856.874	18.560	1258.748	1166.597
857.889	18.532	1257.196	1164.827
858.904	18.422	1255.865	1162.706
859.918	18.642	1254.424	1162.731
860.933	18.292	1253.831	1159.658
861.947	18.293	1253.027	1158.780
862.962	18.549	1251.794	1159.239
863.977	18.611	1250.408	1158.241
864.991	18.492	1250.450	1157.331
866.006	18.532	1249.807	1156.873
867.020	18.497	1248.978	1155.732
868.035	18.573	1247.814	1155.029
869.049	18.656	1246.419	1154.161
870.064	18.730	1245.477	1153.646
871.079	18.681	1244.499	1152.270
872.093	18.703	1244.276	1152.080
873.108	18.677	1243.478	1151.023
874.122	18.788	1241.834	1150.110
875.137	18.653	1241.590	1148.843
876.152	18.756	1240.265	1148.169
877.166	18.743	1238.645	1146.447
878.181	18.798	1237.989	1146.071
879.195	18.952	1236.785	1145.847
880.210	18.905	1235.849	1144.529
881.225	18.702	1234.985	1142.237
882.239	18.736	1233.759	1141.192
883.254	18.854	1232.847	1140.997
884.268	18.703	1232.243	1139.299
885.283	18.860	1230.952	1139.015
886.298	18.731	1229.188	1136.388
887.312	18.778	1229.053	1136.441
888.327	18.795	1227.722	1135.183
889.341	18.805	1226.361	1133.859
890.356	18.890	1224.961	1132.987
891.371	18.556	1225.402	1131.048
892.385	18.720	1224.788	1131.432
893.400	18.748	1223.365	1130.165
894.414	18.582	1221.771	1127.460
895.429	18.758	1219.993	1126.845
896.444	18.437	1218.272	1123.009
897.458	18.410	1217.472	1121.963
898.473	18.395	1217.241	1121.511
899.487	18.533	1216.984	1122.049
900.502	18.762	1215.862	1122.389
901.517	18.790	1214.568	1121.243
902.531	18.873	1213.897	1121.034
903.546	18.729	1213.284	1119.390
904.560	18.909	1212.801	1119.991
905.575	18.871	1211.732	1118.620
906.589	18.909	1210.622	1117.707
907.604	18.900	1210.194	1117.123
