DTS Sentinel unit serial number:	SN409020Multiplexer serial number:	ORYXHardware model number:	OX4-SRSoftware version number:	ORYX F/W v3.00 Oryx Data Collector v3.7.2.0data status	okinstallation	HaddamTimeLapsedifferential loss correction	single-endedforward channel	channel 3reverse channel	N/Adate	2011/06/22time	03:41:17forward acquisition time	30.00reverse acquisition time	0.00gamma	498.7831k internal	0.1751k external	0.1751temperature offset calibration	1.0074default loss term (dB/km)	0.3790temperature slope calibration	1.3530multiplexer offset coefficient	1.0000multiplexer slope coefficient	1.0000fibre end	0.00T internal ref (°C)	22.37T ext. ref 1 (°C)	17.98T ext. ref 2 (°C)	0.08length (m)	temperature (°C)	Stokes	anti-Stokes-747.200	-57.263	-0.172	-0.100
-746.185	-169.823	0.110	0.005
-745.171	-165.597	-0.489	0.028
-744.156	-57.049	0.165	-0.097
-743.142	142.824	-0.126	0.224
-742.127	-184.282	0.111	0.002
-741.112	-14.963	0.125	0.106
-740.098	159.098	0.066	0.122
-739.083	-31.156	0.247	0.185
-738.069	247.315	0.203	0.457
-737.054	-92.939	-0.376	0.139
-736.039	61.434	-0.334	-0.442
-735.025	-94.916	-0.186	0.067
-734.010	633.740	-0.078	0.265
-732.996	83.273	0.375	0.544
-731.981	-74.416	0.120	0.057
-730.966	-11.232	0.189	0.165
-729.952	-89.592	-0.296	0.115
-728.937	255.587	-0.202	-0.462
-727.923	482.818	0.037	-0.111
-726.908	-89.842	-0.313	-0.121
-725.894	43.423	-0.255	-0.310
-724.879	-123.970	-0.162	0.034
-723.864	57.503	-0.105	0.136
-722.850	54.841	-0.178	0.229
-721.835	-200.000	0.010	0.212
-720.821	-56.580	-0.670	-0.393
-719.806	157.623	0.140	0.258
-718.791	-85.477	-0.218	-0.090
-717.777	-149.119	-0.123	-0.013
-716.762	-80.676	0.224	-0.098
-715.748	-196.092	0.718	-0.007
-714.733	800.000	0.085	0.487
-713.718	-99.743	-0.534	0.176
-712.704	-133.352	-0.833	0.138
-711.689	-153.227	-0.698	0.064
-710.675	-60.285	-0.482	-0.272
-709.660	239.435	0.068	0.152
-708.645	-189.385	-0.480	-0.007
-707.631	-112.329	-0.294	-0.078
-706.616	-76.929	0.401	-0.185
-705.602	-52.578	-0.100	-0.061
-704.587	-119.233	-0.217	0.050
-703.572	0.724	-0.255	0.242
-702.558	-49.028	0.343	-0.217
-701.543	110.516	0.170	0.271
-700.529	193.424	0.189	0.381
-699.514	-200.000	-0.015	0.357
-698.499	17.548	-0.373	-0.393
-697.485	-80.592	0.272	0.119
-696.470	296.865	0.271	-0.661
-695.456	625.378	0.153	-0.515
-694.441	130.749	-0.381	-0.649
-693.426	-39.461	0.217	-0.151
-692.412	-174.572	0.223	-0.008
-691.397	-50.759	0.141	0.088
-690.383	800.000	0.043	0.235
-689.368	800.000	0.028	-0.109
-688.354	273.532	-0.144	-0.339
-687.339	125.756	0.251	-0.421
-686.324	-200.000	0.004	-0.398
-685.310	61.097	-0.414	-0.545
-684.295	144.174	0.183	0.325
-683.281	-200.000	0.041	0.268
-682.266	-200.000	-0.069	0.417
-681.251	759.294	-0.100	0.360
-680.237	-33.869	0.201	-0.146
-679.222	107.345	0.123	0.194
-678.208	231.060	-0.111	0.241
-677.193	230.100	-0.051	0.112
-676.178	-193.896	-0.279	-0.003
-675.164	-64.070	-0.301	-0.162
-674.149	68.044	-0.094	0.127
-673.135	-110.635	0.300	-0.082
-672.120	-83.834	-0.304	-0.128
-671.105	-185.513	-0.296	-0.006
-670.091	-117.261	-0.131	-0.031
-669.076	3.632	-0.314	0.303
-668.062	-9.626	-0.219	-0.193
-667.047	408.681	-0.133	-0.374
-666.032	-171.487	0.345	0.015
-665.018	8.084	0.201	-0.200
-664.003	-200.000	-0.052	-0.467
-662.989	-172.637	-0.472	0.019
-661.974	-138.238	-0.370	0.054
-660.959	193.188	-0.140	-0.280
-659.945	800.000	-0.008	-0.041
-658.930	-200.000	-0.001	-0.019
-657.916	-200.000	0.036	0.252
-656.901	99.975	0.088	-0.136
-655.886	-82.543	-0.222	0.095
-654.872	-101.432	-0.218	-0.070
-653.857	430.995	0.035	0.102
-652.843	-126.244	0.267	-0.052
-651.828	-181.201	0.681	0.018
-650.814	-120.834	0.090	0.020
-649.799	135.676	-0.073	-0.126
-648.784	-200.000	0.030	0.239
-647.770	68.782	-0.198	-0.269
-646.755	61.159	0.281	-0.369
-645.741	-72.468	0.292	-0.142
-644.726	-104.730	0.182	-0.055
-643.711	-165.886	0.369	-0.021
-642.697	328.439	-0.129	-0.330
-641.682	-200.000	-0.000	-0.048
-640.668	-72.146	0.116	0.057
-639.653	25.854	-0.279	-0.308
-638.638	352.875	-0.036	-0.094
-637.624	96.816	-0.246	-0.373
-636.609	78.969	-0.168	0.239
-635.595	-91.640	-0.256	0.096
-634.580	-93.660	-0.269	-0.098
-633.565	85.932	-0.269	0.393
-632.551	63.970	-0.126	0.167
-631.536	90.624	0.146	-0.216
-630.522	-98.811	-0.086	0.029
-629.507	800.000	0.081	0.345
-628.492	394.515	0.177	-0.490
-627.478	314.740	-0.138	-0.345
-626.463	46.344	-0.144	-0.177
-625.449	192.627	0.170	-0.341
-624.434	180.610	-0.065	-0.126
-623.419	37.285	0.248	0.290
-622.405	-173.572	0.260	-0.010
-621.390	-100.576	0.357	-0.116
-620.376	-67.457	-0.199	0.103
-619.361	-200.000	0.032	-0.313
-618.346	-102.979	-0.612	0.191
-617.332	448.738	-0.127	-0.372
-616.317	-15.760	-0.215	0.181
-615.303	-117.693	0.825	-0.195
-614.288	349.610	-0.081	0.212
-613.273	218.577	-0.086	0.182
-612.259	26.940	0.101	-0.111
-611.244	-147.448	0.287	0.032
-610.230	68.311	-0.207	-0.281
-609.215	-45.802	-0.205	0.134
-608.201	481.441	-0.233	0.703
-607.186	-102.604	-0.247	-0.077
-606.171	-118.459	-0.349	0.081
-605.157	176.728	-0.379	-0.731
-604.142	-84.013	-0.285	0.119
-603.128	48.907	0.073	-0.091
-602.113	-70.570	0.318	0.158
-601.098	-63.786	-0.083	-0.045
-600.084	450.151	0.131	-0.382
-599.069	-27.999	-0.585	-0.447
-598.055	800.000	0.053	0.200
-597.040	62.851	-0.230	-0.304
-596.025	-96.944	-0.270	-0.093
-595.011	-59.704	-0.390	-0.220
-593.996	631.972	-0.106	0.355
-592.982	-160.910	-0.309	0.021
-591.967	-72.465	-0.249	0.121
-590.952	69.544	0.063	-0.086
-589.938	166.441	0.036	-0.068
-588.923	-86.313	-0.339	-0.137
-587.909	222.818	-0.084	0.180
-586.894	-138.252	-0.345	-0.050
-585.879	-59.659	-0.207	0.117
-584.865	-144.738	-0.056	0.007
-583.850	-200.000	-0.004	-0.339
-582.836	555.563	-0.054	0.171
-581.821	-144.583	0.385	-0.046
-580.806	231.418	0.297	-0.646
-579.792	-124.547	0.147	0.030
-578.777	169.601	-0.282	0.533
-577.763	1.832	0.154	-0.147
-576.748	-200.000	-0.058	0.387
-575.733	-81.208	0.281	0.122
-574.719	-148.640	-0.675	-0.072
-573.704	65.738	-0.345	-0.462
-572.690	394.043	0.030	-0.084
-571.675	-142.392	0.136	-0.018
-570.661	-159.556	0.587	0.042
-569.646	-200.000	-0.026	-0.349
-568.631	-112.519	0.430	0.112
-567.617	32.328	-0.388	0.443
-566.602	-200.000	0.023	-0.157
-565.588	-59.098	0.178	-0.101
-564.573	800.000	0.137	0.564
-563.558	800.000	0.050	0.200
-562.544	286.355	0.018	-0.043
-561.529	93.548	-0.212	0.317
-560.515	76.251	-0.385	-0.539
-559.500	405.980	0.133	-0.373
-558.485	-106.485	0.197	0.058
-557.471	-64.971	0.196	-0.104
-556.456	-40.141	0.598	0.410
-555.442	323.591	-0.146	0.369
-554.427	-29.457	0.082	0.062
-553.412	-35.847	0.475	0.339
-552.398	9.398	0.173	-0.173
-551.383	-130.224	-0.226	-0.040
-550.369	72.928	-0.346	0.477
-549.354	-18.659	0.132	0.109
-548.339	173.149	-0.302	-0.576
-547.325	197.097	-0.039	0.079
-546.310	-39.016	-0.106	0.073
-545.296	-33.800	0.228	0.165
-544.281	-197.015	-0.112	0.001
-543.266	694.332	-0.078	0.271
-542.252	-83.423	0.371	0.156
-541.237	381.375	0.025	0.068
-540.223	559.927	-0.240	-0.769
-539.208	-149.735	-0.570	-0.058
-538.193	68.438	0.128	0.174
-537.179	800.000	0.069	-0.329
-536.164	36.554	-0.297	-0.346
-535.150	75.973	-0.136	-0.190
-534.135	-98.118	-0.181	0.061
-533.121	127.377	-0.165	-0.277
-532.106	-120.132	-0.452	-0.101
-531.091	-200.000	0.030	-0.209
-530.077	128.069	0.183	-0.307
-529.062	17.585	0.157	-0.165
-528.048	540.833	0.068	-0.215
-527.033	-96.718	-0.486	-0.168
-526.018	-200.000	-0.039	0.235
-525.004	-110.273	0.265	0.072
-523.989	461.392	0.043	0.127
-522.975	111.684	-0.222	0.354
-521.960	-82.215	-0.175	0.075
-520.945	-200.000	0.021	-0.372
-519.931	472.581	-0.124	-0.369
-518.916	-147.804	-0.210	-0.023
-517.902	91.278	0.175	-0.259
-516.887	265.265	-0.096	-0.221
-515.872	237.636	0.070	0.153
-514.858	-184.939	0.336	-0.007
-513.843	-200.000	0.061	0.468
-512.829	-48.106	-0.371	-0.235
-511.814	320.246	0.026	-0.066
-510.799	6.582	-0.198	0.194
-509.785	-43.155	0.041	0.027
-508.770	-71.721	0.561	-0.274
-507.756	-144.800	0.386	0.046
-506.741	-200.000	-0.021	0.415
-505.726	752.003	0.065	0.232
-504.712	-72.645	0.196	0.095
-503.697	-116.693	0.182	0.044
-502.683	-168.653	0.316	0.016
-501.668	161.012	-0.253	0.467
-500.653	-107.104	0.477	0.138
-499.639	-132.433	0.543	-0.091
-498.624	669.297	-0.101	0.345
-497.610	-0.326	-0.351	0.328
-496.595	793.509	-0.092	0.333
-495.581	-31.469	0.309	0.228
-494.566	18.743	-0.245	0.258
-493.551	-97.132	0.559	-0.191
-492.537	311.735	-0.054	-0.134
-491.522	-129.482	0.475	-0.086
-490.508	-118.596	0.430	0.099
-489.493	-200.000	0.003	-0.312
-488.478	-135.213	0.200	-0.031
-487.464	-135.333	-0.296	-0.046
-486.449	-102.468	0.430	0.135
-485.435	-122.204	0.165	-0.035
-484.420	758.503	-0.020	0.071
-483.405	60.289	0.137	0.178
-482.391	-183.683	0.093	0.002
-481.376	-95.975	0.892	0.311
-480.362	-6.981	-0.184	-0.164
-479.347	-165.172	0.309	-0.018
-478.332	800.000	0.144	-0.662
-477.318	197.890	-0.068	-0.137
-476.303	-94.439	-0.080	-0.029
-475.289	267.766	0.093	-0.216
-474.274	-200.000	-0.032	-0.480
-473.259	-200.000	-0.012	-0.806
-472.245	-200.000	0.030	0.460
-471.230	-29.753	-0.274	0.205
-470.216	-200.000	-0.030	-0.198
-469.201	-57.736	0.359	0.206
-468.186	-167.495	0.530	0.027
-467.172	-200.000	-0.015	-0.133
-466.157	26.659	0.399	-0.439
-465.143	-200.000	0.001	-0.117
-464.128	-23.460	0.319	0.251
-463.113	-100.751	-0.156	-0.050
-462.099	46.144	-0.155	-0.189
-461.084	-200.000	-0.003	-0.480
-460.070	-200.000	0.000	0.111
-459.055	-102.647	-0.320	-0.100
-458.040	111.368	0.135	0.215
-457.026	175.753	0.205	0.393
-456.011	418.121	-0.091	-0.257
-454.997	59.334	-0.280	-0.362
-453.982	347.789	0.196	-0.509
-452.968	-178.016	-0.202	0.006
-451.953	-200.000	0.004	-0.028
-450.938	-139.171	-0.176	0.025
-449.924	-64.168	0.158	0.084
-448.909	51.144	-0.131	0.163
-447.895	-200.000	-0.017	0.152
-446.880	-49.985	0.112	0.069
-445.865	358.668	-0.261	0.688
-444.851	800.000	-0.069	0.303
-443.836	-108.941	-0.728	0.203
-442.822	-112.366	-0.170	0.044
-441.807	-129.510	-0.178	0.032
-440.792	-117.808	-0.539	-0.126
-439.778	800.000	-0.040	0.180
-438.763	674.665	-0.115	0.394
-437.749	-200.000	-0.089	0.595
-436.734	-92.844	-0.555	-0.202
-435.719	-71.609	0.229	-0.112
-434.705	59.122	-0.205	-0.266
-433.690	374.900	-0.101	0.271
-432.676	-61.423	0.366	-0.201
-431.661	-22.497	0.581	-0.461
-430.646	-181.882	0.447	0.011
-429.632	170.356	-0.028	0.053
-428.617	33.081	-0.264	0.300
-427.603	208.113	-0.052	0.107
-426.588	785.355	-0.075	-0.272
-425.573	-200.000	-0.003	-0.053
-424.559	800.000	-0.126	-0.505
-423.544	50.385	-0.099	0.123
-422.530	-83.269	0.219	0.092
-421.515	-151.764	-0.271	-0.026
-420.500	800.000	-0.054	0.302
-419.486	179.827	0.101	0.194
-418.471	-62.703	0.236	0.128
-417.457	800.000	-0.065	0.275
-416.442	-36.659	-0.407	0.287
-415.428	-161.584	-0.200	0.013
-414.413	158.664	-0.048	0.087
-413.398	-145.006	0.388	0.046
-412.384	160.835	-0.122	0.224
-411.369	-77.002	0.209	0.095
-410.355	112.004	-0.113	0.180
-409.340	-121.754	-0.097	-0.021
-408.325	800.000	-0.088	0.357
-407.311	4.294	-0.199	-0.191
-406.296	-99.869	-0.502	0.164
-405.282	169.903	-0.231	0.435
-404.267	-75.397	-0.374	-0.174
-403.252	-191.179	0.194	-0.003
-402.238	-3.536	-0.404	0.368
-401.223	800.000	0.123	0.649
-400.209	82.745	-0.348	0.497
-399.194	387.262	-0.063	-0.170
-398.179	-147.499	0.160	-0.018
-397.165	-89.602	0.199	-0.076
-396.150	-170.952	-0.263	-0.012
-395.136	-68.802	-0.285	-0.144
-394.121	570.493	0.014	-0.044
-393.106	699.951	0.100	0.346
-392.092	-105.734	0.691	0.203
-391.077	127.006	0.225	-0.374
-390.063	-113.807	0.325	0.082
-389.048	73.511	-0.163	0.224
-388.033	-85.226	-0.460	-0.187
-387.019	-50.137	-0.311	-0.193
-386.004	-29.312	-0.367	0.275
-384.990	288.401	0.175	0.417
-383.975	664.746	0.051	-0.173
-382.960	11.642	0.040	0.040
-381.946	-74.547	-0.302	0.142
-380.931	-26.707	-0.212	0.162
-379.917	-116.568	0.303	-0.073
-378.902	-200.000	0.009	-0.204
-377.888	172.338	0.041	-0.078
-376.873	17.255	0.342	0.356
-375.858	271.713	0.131	0.303
-374.844	661.373	0.034	-0.117
-373.829	361.675	0.119	0.315
-372.815	-150.534	0.407	0.040
-371.800	-4.931	-0.239	0.215
-370.785	-62.469	-0.454	0.246
-369.771	693.405	0.113	0.389
-368.756	168.148	0.126	0.235
-367.742	-20.183	0.336	-0.271
-366.727	174.409	0.023	-0.044
-365.712	-193.014	0.551	-0.006
-364.698	800.000	-0.046	0.189
-363.683	800.000	-0.095	-0.407
-362.669	-84.307	-0.233	-0.096
-361.654	-163.659	-0.180	-0.011
-360.639	-42.601	0.362	0.241
-359.625	-49.432	0.400	-0.249
-358.610	-64.851	0.363	-0.192
-357.596	-69.212	0.087	0.043
-356.581	139.624	0.079	-0.137
-355.566	-105.398	0.369	-0.109
-354.552	-0.664	-0.360	-0.334
-353.537	-45.144	-0.175	0.113
-352.523	800.000	-0.025	0.115
-351.508	-55.098	0.293	0.172
-350.493	800.000	0.102	-0.413
-349.479	233.647	-0.016	0.035
-348.464	-15.213	-0.187	-0.156
-347.450	-187.791	0.419	0.007
-346.435	630.064	0.051	-0.171
-345.420	-147.482	0.426	-0.047
-344.406	-25.783	-0.192	0.148
-343.391	-86.458	-0.334	0.133
-342.377	-39.253	0.082	0.056
-341.362	-110.948	-0.112	-0.030
-340.348	120.029	-0.186	-0.303
-339.333	-145.174	0.097	-0.011
-338.318	201.004	0.247	-0.498
-337.304	294.653	-0.189	-0.453
-336.289	-122.551	-0.341	-0.072
-335.275	-131.056	0.113	0.020
-334.260	-65.510	-0.269	-0.141
-333.245	179.872	-0.192	-0.369
-332.231	203.978	0.067	-0.137
-331.216	-200.000	-0.016	-0.596
-330.202	-200.000	-0.022	-0.229
-329.187	-43.064	0.159	-0.105
-328.172	5.222	0.385	0.371
-327.158	-46.854	0.521	0.332
-326.143	719.241	-0.055	-0.194
-325.129	263.832	-0.029	-0.067
-324.114	349.828	0.149	0.388
-323.099	-30.932	-0.153	0.113
-322.085	-200.000	-0.002	0.154
-321.070	-154.194	0.424	0.037
-320.056	-8.692	0.376	0.329
-319.041	136.725	-0.171	-0.293
-318.026	-12.454	0.274	0.234
-317.012	800.000	0.066	0.283
-315.997	-51.806	0.426	-0.258
-314.983	-93.261	0.379	0.137
-313.968	-143.542	-0.623	-0.077
-312.953	-79.053	-0.412	-0.182
-311.939	800.000	-0.027	-0.137
-310.924	-102.048	0.564	-0.177
-309.910	-165.505	0.169	0.009
-308.895	16.589	0.136	0.141
-307.880	3.788	0.401	0.382
-306.866	48.840	0.259	-0.318
-305.851	-121.268	-0.278	-0.060
-304.837	544.561	-0.063	-0.199
-303.822	-112.128	-0.431	-0.112
-302.807	800.000	-0.065	0.309
-301.793	363.425	-0.115	0.304
-300.778	35.275	0.119	0.136
-299.764	-92.124	0.330	-0.121
-298.749	-153.693	0.353	-0.031
-297.735	-74.204	-0.207	0.097
-296.720	-38.715	0.329	-0.226
-295.705	-54.775	-0.241	0.142
-294.691	209.341	-0.164	0.336
-293.676	11.644	-0.249	0.249
-292.662	-123.041	0.442	0.092
-291.647	261.970	-0.209	0.476
-290.632	16.630	-0.461	0.475
-289.618	-57.701	0.190	0.108
-288.603	-173.337	0.239	0.009
-287.589	624.308	-0.172	-0.569
-286.574	-200.000	-0.003	0.129
-285.559	-159.932	-0.455	0.032
-284.545	-44.733	0.042	-0.027
-283.530	-150.734	-0.066	0.007
-282.516	66.067	-0.354	-0.469
-281.501	-56.918	0.246	0.141
-280.486	-21.722	0.384	0.305
-279.472	191.211	-0.178	-0.352
-278.457	-7.065	-0.185	0.163
-277.443	31.804	-0.295	0.331
-276.428	-121.444	-0.699	-0.150
-275.413	-107.211	-0.275	0.078
-274.399	-62.738	-0.337	0.182
-273.384	105.496	-0.214	0.331
-272.370	521.585	0.064	-0.197
-271.355	236.879	0.060	-0.129
-270.340	-193.693	0.041	0.000
-269.326	-57.498	0.149	0.085
-268.311	170.941	0.085	0.159
-267.297	-112.643	0.410	0.106
-266.282	289.181	-0.175	0.416
-265.267	46.546	0.129	0.156
-264.253	-146.374	0.309	0.035
-263.238	-200.000	-0.011	-0.093
-262.224	-149.019	0.279	0.029
-261.209	63.423	0.483	-0.632
-260.195	437.277	-0.146	0.417
-259.180	516.762	0.147	-0.452
-258.165	54.492	0.175	0.220
-257.151	-131.666	0.296	-0.050
-256.136	152.050	0.104	0.186
-255.122	-58.303	-0.350	-0.198
-254.107	-200.000	-0.002	-0.312
-253.092	800.000	0.110	0.418
-252.078	-102.736	-0.181	0.056
-251.063	-106.374	0.289	0.084
-250.049	-41.945	0.343	0.228
-249.034	-110.040	-0.568	0.154
-248.019	278.202	-0.054	0.125
-247.005	-148.439	-0.254	0.027
-245.990	-3.886	-0.299	0.270
-244.976	160.505	-0.163	-0.297
-243.961	-144.827	0.380	-0.045
-242.946	231.721	-0.053	0.113
-241.932	-150.657	0.459	-0.045
-240.917	-200.000	0.005	0.172
-239.903	209.082	-0.123	0.252
-238.888	769.894	-0.164	0.586
-237.873	353.289	-0.102	-0.266
-236.859	-160.214	-0.375	0.026
-235.844	67.839	0.061	0.081
-234.830	97.077	0.136	-0.203
-233.815	-153.921	-0.586	-0.051
-232.800	-123.915	0.104	0.021
-231.786	-81.798	-0.448	-0.190
-230.771	-102.821	0.419	-0.129
-229.757	1.792	0.376	-0.353
-228.742	80.594	-0.139	-0.195
-227.727	-104.841	-0.331	0.098
-226.713	-168.491	0.197	0.010
-225.698	61.594	0.096	0.125
-224.684	229.530	0.175	0.374
-223.669	-200.000	-0.022	0.177
-222.655	-62.986	0.479	-0.257
-221.640	-96.755	0.267	-0.091
-220.625	-59.977	0.534	-0.296
-219.611	88.002	-0.127	0.183
-218.596	-74.401	0.052	0.024
-217.582	-200.000	-0.023	0.164
-216.567	-61.918	-0.360	-0.195
-215.552	-200.000	-0.012	-0.212
-214.538	667.461	0.032	-0.109
-213.523	-191.745	-0.271	0.003
-212.509	2.725	0.347	-0.327
-211.494	-90.232	-0.155	0.058
-210.479	-115.556	-0.374	0.091
-209.465	73.689	-0.085	0.116
-208.450	698.783	0.025	0.085
-207.436	-130.507	0.105	-0.018
-206.421	800.000	0.081	-0.300
-205.406	-0.269	0.188	0.174
-204.392	6.803	0.374	0.362
-203.377	-200.000	-0.023	0.193
-202.363	-36.221	-0.225	-0.158
-201.348	-28.355	-0.337	-0.252
-200.333	-171.431	-0.179	0.008
-199.319	-125.087	-0.216	0.043
-198.304	379.114	-0.070	-0.187
-197.290	-121.208	-0.123	-0.027
-196.275	85.247	-0.074	0.106
-195.260	-100.552	0.210	-0.067
-194.246	236.345	0.337	-0.728
-193.231	-200.000	0.022	-0.276
-192.217	379.952	0.080	-0.214
-191.202	626.247	-0.057	-0.189
-190.187	-37.203	-0.198	-0.137
-189.173	456.283	-0.138	-0.399
-188.158	578.150	-0.067	-0.214
-187.144	-200.000	0.001	0.135
-186.129	368.998	0.057	0.150
-185.114	-200.000	0.012	0.131
-184.100	-126.958	-0.316	-0.060
-183.085	599.123	0.048	-0.154
-182.071	407.024	-0.104	-0.286
-181.056	-99.004	0.163	0.053
-180.042	15.477	0.180	0.184
-179.027	-200.000	0.044	-0.260
-178.012	-200.000	-0.016	-0.108
-176.998	-151.702	0.304	0.029
-175.983	-49.804	-0.120	-0.074
-174.969	3.975	-0.274	0.261
-173.954	-126.082	0.240	0.046
-172.939	45.375	-0.389	0.466
-171.925	-115.895	-0.115	0.028
-170.910	56.166	0.364	0.460
-169.896	-21.121	0.308	0.244
-168.881	55.107	0.139	0.175
-167.866	-116.712	0.672	-0.159
-166.852	-71.569	-0.212	0.103
-165.837	-172.004	-0.817	-0.034
-164.823	-110.699	0.276	0.073
-163.808	91.152	0.051	-0.075
-162.793	568.847	0.098	-0.310
-161.779	800.000	0.045	0.239
-160.764	-83.946	-0.371	0.153
-159.750	19.769	-0.524	-0.548
-158.735	175.206	0.091	-0.172
-157.720	13.920	0.120	-0.122
-156.706	-164.895	0.534	0.031
-155.691	25.926	0.201	0.218
-154.677	-16.342	-0.386	0.317
-153.662	-200.000	0.059	-0.350
-152.647	-155.965	-0.349	-0.028
-151.633	-200.000	-0.007	-0.273
-150.618	-200.000	0.008	0.326
-149.604	26.202	-0.460	0.499
-148.589	-84.720	0.214	0.087
-147.574	87.609	0.114	0.165
-146.560	800.000	0.049	-0.229
-145.545	-89.861	-0.235	-0.089
-144.531	-17.083	0.329	0.269
-143.516	800.000	0.110	0.612
-142.502	535.954	0.030	0.093
-141.487	-200.000	-0.058	0.368
-140.472	-99.023	-0.431	0.141
-139.458	-81.232	0.267	0.114
-138.443	-110.941	-0.350	0.093
-137.429	52.339	0.159	-0.197
-136.414	-101.869	0.612	0.191
-135.399	-112.171	0.259	-0.067
-134.385	-85.781	0.583	0.233
-133.370	-101.773	0.335	0.105
-132.356	-177.286	-0.249	0.008
-131.341	164.030	-0.135	0.247
-130.326	-130.437	0.356	-0.062
-129.312	73.791	0.141	-0.192
-128.297	485.429	-0.199	0.591
-127.283	22.846	-0.183	0.194
-126.268	183.046	-0.024	-0.046
-125.253	800.000	0.054	0.212
-124.239	-159.099	-0.065	-0.005
-123.224	-156.335	0.200	0.016
-122.210	97.483	0.293	-0.437
-121.195	551.007	0.129	0.402
-120.180	-39.159	0.382	0.260
-119.166	-200.000	-0.024	0.224
-118.151	-68.520	-0.288	0.144
-117.137	21.790	-0.290	-0.307
-116.122	172.865	-0.238	0.446
-115.107	-53.892	0.139	-0.082
-114.093	-129.286	0.043	0.008
-113.078	91.701	-0.226	-0.330
-112.064	232.615	0.098	-0.209
-111.049	-54.178	0.256	-0.150
-110.034	-136.118	0.342	0.051
-109.020	39.155	-0.339	0.393
-108.005	-2.842	-0.200	-0.181
-106.991	365.744	0.021	0.055
-105.976	-92.707	-0.175	-0.063
-104.962	-200.000	-0.000	0.042
-103.947	-104.980	0.630	0.186
-102.932	273.745	0.077	0.176
-101.918	-72.112	-0.555	-0.266
-100.903	-34.968	0.216	-0.152
-99.889	62.280	-0.240	0.311
-98.874	-31.622	-0.261	-0.189
-97.859	292.998	-0.083	-0.198
-96.845	109.292	-0.208	-0.324
-95.830	-200.000	0.062	0.456
-94.816	-36.361	0.340	0.237
-93.801	-127.689	-0.332	-0.062
-92.786	-138.617	-0.393	-0.055
-91.772	120.110	0.162	0.260
-90.757	58.189	0.310	0.394
-89.743	292.214	0.144	0.340
-88.728	-135.546	-0.237	0.036
-87.713	76.576	0.225	0.309
-86.699	-11.815	-0.381	0.323
-85.684	-54.804	0.087	-0.051
-84.670	-70.824	0.358	0.174
-83.655	-41.481	-0.387	0.257
-82.640	-133.499	-0.315	0.051
-81.626	800.000	-0.076	0.416
-80.611	-200.000	-0.056	0.385
-79.597	-105.697	0.170	-0.049
-78.582	385.133	-0.034	-0.091
-77.567	-78.554	-0.375	0.165
-76.553	-94.541	0.430	-0.151
-75.538	-54.032	-0.629	-0.369
-74.524	-117.928	0.280	-0.064
-73.509	76.939	0.097	-0.134
-72.494	-46.833	-0.358	0.226
-71.480	-45.350	0.347	-0.222
-70.465	-200.000	0.023	-0.269
-69.451	800.000	0.045	-0.166
-68.436	336.123	-0.185	-0.466
-67.422	-148.036	-0.218	-0.023
-66.407	125.897	-0.315	-0.516
-65.392	-156.836	-0.731	-0.057
-64.378	-36.820	-0.342	-0.237
-63.363	-144.073	-0.137	0.016
-62.349	-61.303	0.470	0.255
-61.334	63.131	-2.064	-2.677
-60.319	45.339	1.378	1.646
-59.305	270.742	-3.502	-8.001
-58.290	67.786	3.778	5.000
-57.276	399.820	3.757	10.234
-56.261	-200.000	24.541	321.054
-55.246	352.039	1307.090	3364.375
-54.232	52.583	2847.256	3519.444
-53.217	51.139	2659.399	3264.767
-52.203	31.538	2388.400	2655.746
-51.188	27.556	2055.660	2236.658
-50.173	24.235	1942.349	2074.501
-49.159	23.165	1929.835	2048.603
-48.144	22.702	1925.107	2038.131
-47.130	22.576	1923.012	2034.370
-46.115	22.591	1921.145	2032.493
-45.100	22.546	1920.272	2030.960
-44.086	22.544	1918.546	2029.033
-43.071	22.437	1916.978	2026.056
-42.057	22.586	1915.441	2026.071
-41.042	22.546	1913.690	2023.682
-40.027	22.529	1912.690	2022.349
-39.013	22.577	1910.639	2020.649
-37.998	22.614	1908.850	2019.101
-36.984	22.590	1908.550	2018.434
-35.969	22.536	1906.444	2015.502
-34.954	22.452	1905.769	2013.739
-33.940	22.441	1904.899	2012.615
-32.925	22.489	1903.385	2011.486
-31.911	22.417	1902.369	2009.506
-30.896	22.511	1900.289	2008.306
-29.881	22.348	1899.619	2005.654
-28.867	22.459	1898.073	2005.209
-27.852	22.443	1895.804	2002.557
-26.838	22.471	1894.677	2001.600
-25.823	22.457	1892.822	1999.401
-24.809	22.333	1892.456	1997.519
-23.794	22.358	1891.416	1996.633
-22.779	22.338	1890.144	1994.981
-21.765	22.414	1888.838	1994.390
-20.750	22.428	1886.960	1992.492
-19.736	22.324	1886.498	1990.739
-18.721	22.354	1885.811	1990.278
-17.706	22.340	1884.344	1988.487
-16.692	22.359	1882.920	1987.127
-15.677	22.208	1882.003	1984.363
-14.663	22.156	1880.663	1982.286
-13.648	22.322	1879.059	1982.395
-12.633	22.318	1878.385	1981.560
-11.619	22.249	1876.838	1979.061
-10.604	22.335	1875.141	1978.168
-9.590	22.246	1874.741	1976.668
-8.575	22.170	1873.128	1974.024
-7.560	22.354	1871.477	1974.286
-6.546	22.294	1870.534	1972.530
-5.531	22.264	1870.057	1971.615
-4.517	22.201	1869.187	1969.909
-3.502	22.275	1867.529	1968.913
-2.487	22.281	1866.065	1967.359
-1.473	22.429	1862.364	1965.040
-0.458	22.159	1845.151	1943.807
0.556	18.970	1992.458	2048.588
1.571	17.506	2195.932	2238.195
2.586	18.471	2234.103	2289.797
3.600	18.410	2237.190	2291.859
4.615	18.412	2236.258	2290.654
5.629	18.390	2233.790	2287.564
6.644	18.448	2231.772	2286.001
7.659	18.369	2230.254	2283.117
8.673	18.373	2228.373	2280.970
9.688	18.171	2237.378	2287.191
10.702	17.248	2318.155	2356.632
11.717	15.702	2381.784	2398.869
12.731	7.335	2362.460	2259.671
13.746	0.907	2346.102	2152.102
14.761	0.153	2341.511	2136.874
15.775	0.126	2339.976	2134.830
16.790	0.088	2337.368	2131.659
17.804	0.094	2336.509	2130.708
18.819	0.094	2335.826	2129.822
19.834	0.053	2333.736	2127.085
20.848	0.054	2332.549	2125.760
21.863	0.065	2330.776	2124.048
22.877	-0.007	2329.492	2121.596
23.892	-0.031	2326.907	2118.647
24.907	-0.005	2324.351	2116.434
25.921	0.042	2322.252	2114.937
26.936	0.021	2320.034	2112.365
27.950	-0.033	2318.028	2109.528
28.965	0.045	2315.169	2107.778
29.980	0.171	2313.003	2107.319
30.994	0.125	2311.609	2105.152
32.009	3.920	2323.359	2169.159
33.023	13.265	2349.995	2326.471
34.038	17.470	2356.731	2392.387
35.053	17.768	2355.680	2395.245
36.067	17.875	2353.325	2394.077
37.082	17.811	2351.269	2390.791
38.096	17.804	2349.580	2388.685
39.111	17.926	2347.647	2388.158
40.126	18.021	2345.479	2386.999
41.140	18.138	2343.595	2386.442
42.155	18.004	2342.347	2383.002
43.169	17.961	2340.384	2380.117
44.184	17.885	2336.925	2375.252
45.199	17.922	2334.445	2372.966
46.213	17.850	2334.704	2371.933
47.228	17.943	2333.322	2371.539
48.242	18.021	2331.319	2370.317
49.257	18.167	2328.298	2368.989
50.271	18.153	2325.916	2366.091
51.286	17.984	2324.048	2361.553
52.301	17.921	2322.534	2358.863
53.315	18.248	2324.205	2364.814
54.330	20.058	2327.652	2393.201
55.344	21.269	2327.275	2409.318
56.359	21.339	2324.927	2407.574
57.374	21.510	2324.455	2409.167
58.388	21.586	2321.131	2406.477
59.403	21.590	2317.434	2402.417
60.417	21.215	2315.687	2395.143
61.432	21.373	2313.581	2394.857
62.447	21.606	2312.229	2396.380
63.461	21.661	2310.175	2394.723
64.476	21.688	2308.903	2393.482
65.490	21.622	2306.668	2389.979
66.505	20.992	2304.378	2378.677
67.520	19.569	2298.632	2352.986
68.534	18.282	2291.603	2327.931
69.549	17.957	2288.173	2319.721
70.563	17.965	2286.651	2318.020
71.578	17.979	2284.753	2316.001
72.593	17.942	2283.025	2313.471
73.607	18.065	2281.679	2313.505
74.622	18.147	2278.820	2311.443
75.636	18.046	2275.951	2306.881
76.651	18.033	2274.363	2304.819
77.666	17.974	2272.870	2302.236
78.680	18.065	2270.194	2300.482
79.695	17.931	2268.100	2296.276
80.709	17.778	2267.943	2293.769
81.724	17.982	2264.689	2292.964
82.739	18.034	2261.412	2290.063
83.753	17.797	2260.323	2285.499
84.768	17.833	2258.023	2283.387
85.782	17.856	2257.477	2282.870
86.797	17.778	2255.317	2279.363
87.812	17.804	2253.122	2277.217
88.826	17.805	2251.553	2275.375
89.841	17.867	2249.377	2273.736
90.855	17.949	2245.927	2271.068
91.870	18.009	2244.314	2269.965
92.884	17.926	2243.139	2267.401
93.899	17.889	2242.394	2265.889
94.914	18.297	2243.475	2272.144
95.928	19.768	2248.367	2296.481
96.943	20.462	2244.769	2301.772
97.957	18.843	2238.118	2273.174
98.972	17.973	2233.707	2256.863
99.987	17.848	2230.147	2251.351
101.001	17.809	2228.786	2249.179
102.016	17.882	2226.147	2247.219
103.030	17.797	2224.357	2244.017
104.045	17.852	2222.688	2242.789
105.060	17.896	2219.837	2240.222
106.074	17.942	2218.062	2238.771
107.089	17.910	2216.976	2236.993
108.103	17.814	2215.828	2234.302
109.118	17.949	2214.103	2234.070
110.133	18.166	2211.589	2234.117
111.147	17.976	2210.061	2229.811
112.162	17.997	2208.483	2228.221
113.176	17.903	2206.763	2224.999
114.191	18.102	2204.423	2224.971
115.206	18.012	2202.971	2222.067
116.220	18.015	2201.520	2220.366
117.235	17.862	2199.452	2216.028
118.249	17.833	2197.611	2213.520
119.264	17.906	2195.868	2212.452
120.279	18.005	2194.514	2212.113
121.293	17.912	2192.565	2208.676
122.308	17.883	2191.077	2206.541
123.322	17.916	2189.783	2205.394
124.337	18.261	2190.536	2210.377
125.352	20.046	2195.116	2237.921
126.366	20.401	2193.029	2240.137
127.381	18.598	2185.221	2208.577
128.395	17.864	2181.198	2194.762
129.410	17.925	2179.195	2193.279
130.424	17.952	2176.893	2191.042
131.439	17.779	2175.913	2187.562
132.454	17.897	2173.871	2186.773
133.468	17.918	2171.074	2183.967
134.483	17.997	2169.746	2183.383
135.497	17.819	2169.160	2180.250
136.512	17.900	2166.111	2177.964
137.527	17.892	2164.373	2175.844
138.541	17.863	2162.943	2173.777
139.556	17.814	2162.462	2172.401
140.570	17.836	2160.843	2170.805
141.585	17.790	2159.025	2168.131
142.600	17.806	2156.915	2165.958
143.614	17.741	2155.955	2163.898
144.629	17.861	2153.159	2162.360
145.643	17.739	2152.093	2159.477
146.658	17.679	2150.922	2157.287
147.673	17.764	2148.288	2155.458
148.687	17.887	2148.019	2156.504
149.702	17.927	2146.677	2155.400
150.716	17.804	2145.962	2152.867
151.731	17.947	2143.355	2151.802
152.746	17.783	2143.838	2149.954
153.760	18.330	2144.918	2157.715
154.775	20.023	2148.405	2182.419
155.789	20.432	2146.597	2185.494
156.804	18.833	2138.202	2156.526
157.819	17.872	2133.527	2139.447
158.833	17.895	2130.521	2136.472
159.848	17.958	2129.050	2135.538
160.862	17.901	2127.847	2133.352
161.877	17.992	2127.047	2133.442
162.892	17.913	2125.802	2130.938
163.906	18.019	2123.967	2130.183
164.921	17.969	2122.090	2127.413
165.935	17.945	2119.881	2124.646
166.950	18.046	2117.564	2123.326
167.964	17.973	2115.805	2120.397
168.979	17.801	2114.426	2116.625
169.994	17.838	2112.588	2114.992
171.008	17.931	2110.874	2114.183
172.023	17.915	2110.028	2112.882
173.037	17.815	2108.559	2109.907
174.052	17.939	2107.166	2109.802
175.067	17.888	2104.953	2106.702
176.081	17.814	2104.483	2105.063
177.096	17.756	2103.657	2103.269
178.110	17.808	2101.629	2101.626
179.125	17.876	2099.564	2100.160
180.140	17.788	2099.227	2098.483
181.154	17.866	2097.836	2097.795
182.169	17.883	2096.393	2096.316
183.183	18.356	2096.840	2102.343
184.198	20.202	2102.222	2130.304
185.213	20.552	2099.494	2131.602
186.227	18.829	2093.060	2103.627
187.242	17.948	2089.257	2088.730
188.256	17.902	2087.346	2086.007
189.271	17.916	2085.782	2084.365
190.286	17.971	2083.669	2082.675
191.300	17.960	2081.167	2079.795
192.315	17.940	2079.174	2077.308
193.329	18.022	2078.290	2077.179
194.344	18.051	2077.263	2076.255
195.359	18.000	2076.850	2074.968
196.373	17.863	2074.604	2070.810
197.388	17.942	2071.916	2068.837
198.402	17.841	2068.411	2063.860
199.417	17.813	2067.476	2062.344
200.432	17.795	2066.297	2060.705
201.446	17.972	2064.908	2061.218
202.461	17.839	2063.613	2058.064
203.475	17.756	2062.260	2055.464
204.490	17.865	2059.041	2053.330
205.504	17.893	2057.504	2051.892
206.519	17.883	2055.207	2049.233
207.534	17.827	2053.400	2046.506
208.548	17.823	2052.836	2045.649
209.563	17.865	2051.231	2044.321
210.577	17.868	2050.238	2043.114
211.592	17.986	2049.602	2043.661
212.607	18.860	2052.820	2057.146
213.621	20.918	2056.993	2085.863
214.636	20.530	2051.672	2075.559
215.650	18.394	2045.189	2043.178
216.665	17.972	2041.979	2034.666
217.680	17.975	2041.025	2033.517
218.694	17.881	2039.399	2030.523
219.709	17.995	2037.319	2029.577
220.723	18.084	2036.207	2029.287
221.738	18.021	2034.089	2026.180
222.753	18.001	2032.735	2024.352
223.767	17.921	2031.318	2021.746
224.782	17.979	2028.971	2019.860
225.796	18.064	2028.057	2019.715
226.811	17.974	2026.776	2017.129
227.826	18.020	2025.032	2015.693
228.840	18.074	2023.365	2014.439
229.855	17.926	2022.500	2011.582
230.869	18.058	2019.673	2010.092
231.884	17.923	2018.722	2007.305
232.899	17.953	2016.570	2005.276
233.913	17.930	2015.867	2004.068
234.928	17.931	2014.301	2002.279
235.942	17.833	2012.845	1999.446
236.957	17.914	2011.834	1999.149
237.972	17.949	2010.007	1997.511
238.986	17.973	2009.242	1996.796
240.001	17.907	2007.262	1993.808
241.015	17.842	2006.622	1992.170
242.030	18.276	2007.858	1998.261
243.045	19.980	2011.173	2021.325
244.059	20.105	2008.398	2019.755
245.074	18.472	2000.707	1992.718
246.088	17.910	1998.650	1983.869
247.103	18.015	1995.975	1982.192
248.117	18.097	1995.053	1981.998
249.132	17.824	1994.102	1977.642
250.147	17.883	1991.833	1975.835
251.161	17.871	1990.394	1974.037
252.176	18.036	1989.079	1974.412
253.190	18.194	1986.806	1973.745
254.205	18.146	1985.311	1971.476
255.220	18.181	1983.614	1969.956
256.234	18.108	1983.539	1968.803
257.249	18.100	1981.748	1966.695
258.263	18.034	1980.814	1964.774
259.278	18.167	1979.107	1964.375
260.293	18.043	1977.581	1961.201
261.307	17.896	1975.604	1957.305
262.322	18.004	1972.964	1955.700
263.336	17.984	1970.889	1953.180
264.351	17.827	1969.775	1950.037
265.366	17.852	1968.396	1948.731
266.380	17.831	1967.734	1947.592
267.395	17.824	1966.684	1946.240
268.409	17.864	1964.533	1944.338
269.424	17.886	1964.121	1943.951
270.439	17.983	1962.562	1943.290
271.453	18.482	1964.160	1950.348
272.468	20.159	1966.616	1971.732
273.482	20.304	1963.052	1969.584
274.497	18.611	1956.913	1943.921
275.512	17.976	1953.413	1932.993
276.526	18.021	1950.449	1930.336
277.541	17.844	1949.918	1927.572
278.555	17.852	1948.179	1925.709
279.570	17.718	1946.797	1922.591
280.585	17.725	1945.396	1921.062
281.599	17.789	1943.538	1919.718
282.614	17.986	1942.671	1920.858
283.628	18.079	1941.782	1920.804
284.643	18.095	1941.368	1920.350
285.657	18.231	1939.769	1920.072
286.672	18.216	1937.430	1917.348
287.687	18.245	1935.827	1915.859
288.701	18.109	1935.703	1913.977
289.716	18.162	1933.615	1912.283
290.730	18.047	1931.814	1908.980
291.745	18.081	1930.544	1907.876
292.760	18.099	1928.525	1905.864
293.774	18.155	1928.934	1906.659
294.789	18.006	1927.020	1902.873
295.803	18.033	1923.794	1899.764
296.818	17.919	1924.332	1898.794
297.833	17.845	1923.266	1896.681
298.847	17.922	1921.311	1895.391
299.862	18.008	1919.479	1894.319
300.876	18.387	1919.477	1898.307
301.891	20.367	1923.663	1924.299
302.906	20.648	1921.523	1925.051
303.920	18.811	1915.987	1898.885
304.935	18.086	1911.947	1886.621
305.949	18.013	1910.077	1883.732
306.964	17.980	1908.455	1881.543
307.979	18.091	1906.804	1880.926
308.993	18.144	1906.350	1880.836
310.008	18.259	1903.775	1879.338
311.022	18.217	1902.699	1877.583
312.037	18.092	1902.017	1875.311
313.052	18.153	1899.464	1873.246
314.066	18.167	1898.436	1872.160
315.081	18.139	1898.386	1871.577
316.095	18.124	1896.299	1869.134
317.110	18.195	1894.414	1867.830
318.125	18.103	1892.985	1865.181
319.139	18.255	1891.628	1865.286
320.154	18.116	1890.614	1862.549
321.168	18.118	1888.346	1860.113
322.183	18.152	1886.591	1858.533
323.197	17.900	1886.227	1855.192
324.212	17.922	1884.207	1853.224
325.227	17.845	1882.356	1850.346
326.241	17.860	1880.441	1848.401
327.256	17.894	1879.589	1847.722
328.270	17.850	1878.495	1845.943
329.285	17.725	1878.578	1844.440
330.300	18.518	1880.618	1854.853
331.314	20.544	1884.025	1880.041
332.329	20.310	1880.123	1873.380
333.343	18.502	1873.269	1846.765
334.358	17.999	1870.344	1838.219
335.373	17.964	1868.863	1836.172
336.387	18.006	1865.860	1833.448
337.402	17.988	1864.714	1831.909
338.416	17.837	1863.464	1828.835
339.431	17.965	1861.880	1828.444
340.446	18.029	1860.533	1827.587
341.460	17.927	1860.574	1826.317
342.475	18.114	1858.836	1826.399
343.489	18.226	1856.760	1825.336
344.504	18.116	1855.515	1822.723
345.519	18.121	1854.660	1821.712
346.533	18.215	1852.621	1820.495
347.548	18.422	1851.751	1821.639
348.562	18.284	1850.677	1818.889
349.577	18.250	1849.283	1816.943
350.592	18.296	1848.687	1816.631
351.606	18.207	1847.446	1814.239
352.621	18.275	1844.469	1811.824
353.635	18.087	1843.547	1808.702
354.650	17.993	1841.712	1805.688
355.665	18.022	1840.569	1804.663
356.679	17.944	1839.760	1802.826
357.694	18.001	1837.840	1801.331
358.708	17.899	1836.754	1798.967
359.723	18.663	1839.169	1809.220
360.738	20.561	1841.502	1831.413
361.752	20.109	1837.575	1822.516
362.767	18.345	1832.044	1798.199
363.781	17.946	1828.858	1790.660
364.796	17.901	1828.098	1789.220
365.810	17.835	1827.132	1787.375
366.825	17.858	1825.503	1785.808
367.840	18.083	1825.098	1787.561
368.854	18.036	1823.837	1785.621
369.869	18.007	1821.192	1782.506
370.883	17.730	1820.692	1778.901
371.898	17.806	1819.444	1778.269
372.913	17.863	1818.381	1777.615
373.927	17.960	1816.787	1776.855
374.942	17.893	1816.121	1775.292
375.956	17.944	1814.274	1773.809
376.971	17.956	1812.092	1771.580
377.986	17.847	1810.689	1768.870
379.000	17.985	1808.914	1768.355
380.015	18.150	1807.857	1768.823
381.029	18.118	1806.046	1766.510
382.044	18.017	1803.857	1763.109
383.059	17.907	1802.943	1760.861
384.073	17.921	1803.019	1760.877
385.088	17.983	1800.933	1759.273
386.102	17.871	1799.218	1756.225
387.117	17.776	1797.629	1753.486
388.132	17.756	1797.663	1753.099
389.146	18.475	1800.327	1762.926
390.161	20.423	1802.809	1785.287
391.175	20.299	1796.203	1777.260
392.190	18.385	1790.057	1751.315
393.205	17.806	1787.908	1743.058
394.219	17.933	1785.665	1741.965
395.234	17.904	1784.811	1740.623
396.248	17.900	1783.703	1739.297
397.263	17.845	1781.275	1736.158
398.278	17.950	1779.261	1735.058
399.292	17.882	1778.722	1733.624
400.307	17.899	1778.180	1733.065
401.321	18.001	1777.510	1733.245
402.336	17.962	1776.304	1731.463
403.350	18.156	1773.129	1730.135
404.365	18.152	1772.813	1729.576
405.380	18.342	1772.408	1730.907
406.394	18.509	1771.086	1731.110
407.409	18.327	1769.624	1727.625
408.423	18.284	1767.224	1724.637
409.438	18.261	1766.319	1723.319
410.453	18.290	1765.180	1722.291
411.467	18.215	1764.937	1721.088
412.482	18.213	1763.165	1719.131
413.496	18.116	1761.011	1715.853
414.511	18.055	1759.175	1713.243
415.526	18.003	1756.800	1710.200
416.540	17.881	1755.729	1707.724
417.555	17.950	1754.996	1707.507
418.569	17.980	1754.973	1707.575
419.584	18.069	1754.867	1708.162
420.599	18.105	1754.851	1708.310
421.613	17.981	1753.073	1705.123
422.628	18.051	1751.702	1704.294
423.642	17.857	1750.629	1701.098
424.657	18.224	1747.999	1702.007
425.672	18.136	1746.836	1699.792
426.686	17.949	1746.246	1697.150
427.701	17.925	1744.836	1695.340
428.715	18.030	1742.716	1694.121
429.730	18.128	1741.217	1693.434
430.745	18.126	1740.152	1692.178
431.759	17.974	1739.642	1689.963
432.774	18.059	1739.066	1690.046
433.788	18.184	1738.371	1690.415
434.803	18.332	1737.311	1690.646
435.818	18.258	1736.727	1689.143
436.832	18.121	1735.728	1686.616
437.847	17.236	1728.727	1670.862
438.861	9.493	1708.932	1575.620
439.876	1.730	1694.247	1485.966
440.890	0.280	1691.677	1469.325
441.905	0.193	1689.744	1466.612
442.920	0.218	1687.808	1465.006
443.934	0.222	1686.765	1463.960
444.949	0.205	1685.856	1462.829
445.963	0.080	1685.346	1460.994
446.978	0.051	1685.221	1460.434
447.993	0.182	1683.198	1459.774
449.007	0.157	1680.596	1457.104
450.022	0.188	1678.322	1455.257
451.036	0.153	1678.038	1454.498
452.051	1.095	1682.249	1467.144
453.066	8.819	1698.759	1557.034
454.080	16.404	1710.173	1641.646
455.095	17.800	1711.905	1656.749
456.109	17.972	1711.366	1657.705
457.124	18.076	1710.287	1657.476
458.139	18.016	1709.779	1656.204
459.153	17.992	1708.998	1655.008
460.168	18.008	1706.760	1652.802
461.182	18.103	1705.058	1651.877
462.197	18.102	1703.864	1650.520
463.212	17.951	1702.207	1647.250
464.226	17.866	1702.221	1646.244
465.241	18.057	1700.351	1646.083
466.255	18.106	1698.715	1644.777
467.270	17.990	1697.450	1642.232
468.285	17.992	1696.241	1640.890
469.299	17.954	1694.878	1639.010
470.314	17.972	1693.940	1638.077
471.328	17.961	1692.394	1636.283
472.343	17.982	1691.182	1635.115
473.358	18.115	1690.065	1635.118
474.372	18.107	1688.951	1633.764
475.387	18.016	1687.187	1630.988
476.401	18.083	1685.413	1629.721
477.416	18.127	1684.398	1628.966
478.430	18.042	1683.750	1627.333
479.445	18.050	1682.249	1625.760
480.460	17.907	1680.978	1622.975
481.474	18.026	1680.299	1623.265
482.489	18.095	1678.415	1621.904
483.503	18.114	1676.651	1620.190
484.518	18.204	1675.357	1619.603
485.533	18.131	1674.857	1618.226
486.547	18.070	1673.591	1616.232
487.562	18.035	1672.418	1614.573
488.576	18.197	1670.679	1614.240
489.591	18.135	1669.089	1611.924
490.606	18.100	1667.496	1609.854
491.620	18.135	1665.785	1608.348
492.635	18.321	1663.764	1607.957
493.649	18.274	1663.230	1606.800
494.664	18.049	1662.239	1603.529
495.679	17.945	1660.637	1600.816
496.693	18.044	1659.229	1600.202
497.708	17.998	1658.364	1598.740
498.722	18.025	1657.637	1598.102
499.737	18.097	1656.309	1597.303
500.752	18.129	1654.574	1595.738
501.766	18.171	1652.673	1594.114
502.781	18.010	1651.498	1591.281
503.795	18.219	1649.593	1591.211
504.810	18.159	1648.924	1589.810
505.825	18.168	1648.569	1589.364
506.839	18.088	1647.773	1587.662
507.854	18.210	1646.089	1586.986
508.868	18.275	1643.938	1585.328
509.883	18.006	1644.543	1583.211
510.898	18.202	1642.656	1583.028
511.912	18.149	1640.507	1580.276
512.927	18.003	1638.898	1577.183
513.941	17.931	1637.537	1575.019
514.956	18.037	1636.434	1574.749
515.971	18.083	1634.815	1573.428
516.985	17.904	1634.399	1571.184
518.000	18.059	1633.320	1571.391
519.014	18.133	1632.081	1570.691
520.029	18.078	1631.051	1569.012
521.043	18.215	1629.694	1568.777
522.058	18.109	1628.164	1566.143
523.073	18.128	1628.137	1566.106
524.087	18.296	1626.230	1565.626
525.102	18.243	1625.004	1563.772
526.116	18.043	1624.378	1561.142
527.131	18.198	1622.702	1560.768
528.146	18.246	1622.158	1560.503
529.160	18.325	1620.341	1559.289
530.175	18.198	1619.626	1557.250
531.189	18.155	1618.919	1555.994
532.204	18.165	1617.098	1554.144
533.219	18.195	1615.736	1552.923
534.233	18.145	1615.272	1551.837
535.248	18.104	1615.114	1551.128
536.262	18.285	1613.454	1550.995
537.277	18.171	1612.211	1548.580
538.292	18.116	1610.119	1545.880
539.306	18.189	1608.019	1544.346
540.321	18.182	1606.769	1542.896
541.335	18.183	1605.450	1541.454
542.350	18.246	1604.231	1540.664
543.365	18.259	1602.727	1539.154
544.379	18.102	1601.961	1536.817
545.394	18.231	1600.768	1536.651
546.408	18.024	1599.766	1533.637
547.423	18.198	1598.103	1533.433
548.438	18.032	1596.964	1530.661
549.452	18.120	1596.282	1530.615
550.467	18.207	1595.388	1530.355
551.481	18.141	1594.006	1528.256
552.496	18.307	1592.938	1528.542
553.511	18.247	1592.077	1526.993
554.525	18.161	1591.455	1525.439
555.540	18.339	1590.554	1525.991
556.554	18.300	1589.290	1524.248
557.569	18.272	1586.736	1521.364
558.583	18.241	1585.672	1519.879
559.598	18.286	1584.739	1519.205
560.613	18.211	1584.226	1517.865
561.627	18.311	1582.256	1516.686
562.642	18.325	1580.325	1514.779
563.656	18.327	1579.926	1514.238
564.671	18.234	1579.206	1512.540
565.686	18.287	1577.606	1511.290
566.700	18.089	1575.734	1507.563
567.715	18.083	1574.158	1505.819
568.729	18.080	1572.535	1504.062
569.744	18.123	1571.543	1503.316
570.759	18.086	1569.763	1501.106
571.773	18.053	1569.434	1500.322
572.788	17.986	1568.359	1498.520
573.802	18.237	1566.784	1499.045
574.817	18.243	1564.730	1496.957
575.832	18.334	1564.472	1497.325
576.846	18.248	1563.924	1495.874
577.861	18.151	1562.400	1493.382
578.875	18.197	1561.571	1492.818
579.890	18.327	1560.187	1492.449
580.905	18.406	1559.314	1492.131
581.919	18.363	1558.849	1491.130
582.934	18.489	1558.104	1491.343
583.948	18.368	1556.416	1488.490
584.963	18.321	1555.508	1487.029
585.978	18.358	1553.747	1485.498
586.992	18.312	1553.053	1484.248
588.007	18.425	1552.170	1484.211
589.021	18.327	1551.163	1482.223
590.036	18.229	1549.505	1479.604
591.051	18.317	1547.945	1478.703
592.065	18.376	1546.071	1477.250
593.080	18.343	1545.051	1475.813
594.094	18.374	1543.551	1474.468
595.109	18.297	1541.879	1472.032
596.123	18.214	1540.080	1469.425
597.138	18.204	1539.900	1468.986
598.153	18.384	1538.630	1469.155
599.167	18.401	1536.796	1467.368
600.182	18.441	1536.427	1467.188
601.196	18.342	1535.395	1465.178
602.211	18.304	1533.990	1463.333
603.226	18.472	1532.727	1463.396
604.240	18.439	1531.310	1461.582
605.255	18.418	1530.257	1460.222
606.269	18.355	1529.440	1458.730
607.284	18.366	1528.571	1457.817
608.299	18.370	1527.155	1456.332
609.313	18.304	1525.959	1454.447
610.328	18.353	1524.950	1453.736
611.342	18.183	1524.165	1451.363
612.357	18.325	1523.296	1451.569
613.372	18.417	1521.797	1450.749
614.386	18.388	1520.939	1449.512
615.401	18.335	1520.207	1448.194
616.415	18.591	1518.444	1448.508
617.430	18.513	1517.831	1447.096
618.445	18.404	1516.631	1444.854
619.459	18.416	1515.992	1444.173
620.474	18.158	1515.243	1441.096
621.488	18.261	1512.502	1439.188
622.503	18.165	1511.756	1437.495
623.518	18.197	1511.429	1437.285
624.532	18.265	1509.530	1435.878
625.547	18.411	1508.544	1435.997
626.561	18.469	1508.501	1436.276
627.576	18.519	1506.834	1434.939
628.591	18.478	1504.537	1432.231
629.605	18.287	1503.551	1429.523
630.620	18.281	1502.310	1428.116
631.634	18.291	1501.313	1427.084
632.649	18.166	1500.601	1425.190
633.663	18.289	1499.191	1424.712
634.678	18.323	1498.438	1424.107
635.693	18.413	1496.885	1423.213
636.707	18.649	1495.111	1423.325
637.722	18.608	1494.643	1422.366
638.736	18.565	1493.704	1420.941
639.751	18.556	1492.605	1419.652
640.766	18.581	1491.244	1418.402
641.780	18.658	1489.457	1417.169
642.795	18.492	1489.363	1415.529
643.809	18.533	1488.875	1415.236
644.824	18.712	1487.806	1415.532
645.839	18.620	1486.839	1413.682
646.853	18.421	1486.203	1411.261
647.868	18.466	1484.381	1409.736
648.882	18.668	1482.972	1409.896
649.897	18.536	1481.107	1406.867
650.912	18.552	1479.772	1405.561
651.926	18.468	1478.637	1403.623
652.941	18.295	1477.408	1400.868
653.955	18.307	1476.270	1399.721
654.970	18.365	1474.378	1398.235
655.985	18.287	1473.294	1396.395
656.999	18.352	1472.329	1395.846
658.014	18.441	1471.044	1395.196
659.028	18.539	1469.528	1394.388
660.043	18.473	1469.259	1393.429
661.058	18.490	1467.977	1392.186
662.072	18.365	1467.530	1390.575
663.087	18.503	1466.446	1390.503
664.101	18.518	1465.175	1389.253
665.116	18.566	1464.229	1388.580
666.131	18.587	1463.433	1387.829
667.145	18.589	1462.228	1386.543
668.160	18.565	1461.265	1385.265
669.174	18.687	1459.436	1384.354
670.189	18.527	1458.241	1381.756
671.204	18.610	1457.555	1381.613
672.218	18.530	1456.469	1379.773
673.233	18.799	1455.728	1381.082
674.247	18.735	1454.060	1378.815
675.262	18.640	1453.454	1377.309
676.276	18.717	1451.913	1376.309
677.291	18.706	1451.559	1375.714
678.306	18.630	1450.239	1373.689
679.320	18.585	1448.623	1371.630
680.335	18.530	1448.961	1371.349
681.349	18.663	1447.492	1370.859
682.364	18.629	1445.968	1368.980
683.379	18.730	1444.174	1367.926
684.393	18.469	1443.852	1365.366
685.408	18.589	1443.281	1365.622
686.422	18.486	1441.593	1363.043
687.437	18.625	1441.136	1363.554
688.452	18.588	1440.582	1362.577
689.466	18.531	1438.669	1360.147
690.481	18.486	1437.022	1358.068
691.495	18.436	1436.246	1356.777
692.510	18.312	1434.583	1354.057
693.525	18.421	1432.603	1352.888
694.539	18.247	1432.351	1351.111
695.554	18.475	1432.497	1352.891
696.568	18.612	1431.097	1352.498
697.583	18.572	1430.571	1351.520
698.598	18.564	1430.025	1350.777
699.612	18.607	1428.960	1349.949
700.627	18.639	1427.572	1348.734
701.641	18.661	1426.169	1347.417
702.656	18.720	1425.501	1347.093
703.671	18.808	1425.072	1347.219
704.685	18.785	1424.253	1346.099
705.700	18.665	1422.630	1343.459
706.714	18.755	1420.331	1341.833
707.729	18.748	1419.045	1340.404
708.744	18.758	1418.240	1339.568
709.758	18.635	1417.026	1337.295
710.773	18.587	1416.213	1335.991
711.787	18.550	1414.361	1333.796
712.802	18.436	1413.124	1331.576
713.816	18.537	1412.898	1331.990
714.831	18.553	1411.916	1331.033
715.846	18.832	1410.817	1332.009
716.860	18.735	1409.681	1330.023
717.875	18.664	1408.717	1328.403
718.889	18.745	1407.742	1327.958
719.904	18.834	1406.540	1327.354
720.919	18.718	1405.698	1325.498
721.933	18.737	1404.848	1324.691
722.948	18.748	1403.799	1323.626
723.962	18.911	1402.553	1323.553
724.977	18.741	1401.803	1321.370
725.992	18.774	1401.184	1320.885
727.006	18.738	1399.585	1318.940
728.021	18.805	1397.627	1317.455
729.035	18.865	1396.638	1316.830
730.050	18.754	1396.080	1315.291
731.065	18.774	1394.737	1314.019
732.079	18.816	1393.406	1312.934
733.094	18.852	1392.094	1311.812
734.108	18.781	1390.990	1310.073
735.123	18.838	1389.308	1308.767
736.138	18.817	1388.707	1307.882
737.152	18.746	1388.039	1306.560
738.167	19.005	1386.545	1306.970
739.181	18.873	1385.877	1305.180
740.196	18.871	1385.004	1304.182
741.211	18.845	1384.228	1303.099
742.225	18.663	1383.535	1300.902
743.240	18.796	1381.952	1300.272
744.254	18.777	1381.157	1299.227
745.269	18.855	1379.698	1298.290
746.284	18.666	1379.202	1296.230
747.298	18.705	1377.412	1294.690
748.313	18.513	1376.252	1291.987
749.327	18.375	1375.149	1289.754
750.342	18.323	1374.495	1288.594
751.356	18.240	1373.155	1286.557
752.371	18.502	1371.645	1286.966
753.386	18.583	1371.797	1287.566
754.400	18.741	1371.274	1288.109
755.415	18.875	1370.062	1287.832
756.429	18.873	1368.888	1286.560
757.444	18.825	1367.245	1284.500
758.459	18.880	1366.475	1284.030
759.473	18.864	1365.593	1282.933
760.488	18.857	1364.773	1281.951
761.502	18.957	1363.720	1281.557
762.517	18.932	1362.101	1279.697
763.532	18.893	1360.816	1278.050
764.546	18.837	1359.740	1276.466
765.561	18.543	1359.437	1273.831
766.575	18.645	1357.437	1272.566
767.590	18.674	1356.179	1271.452
768.605	18.714	1355.336	1270.803
769.619	18.853	1354.022	1270.453
770.634	18.887	1353.286	1269.864
771.648	18.928	1352.834	1269.591
772.663	18.881	1352.641	1268.915
773.678	18.820	1351.797	1267.513
774.692	18.838	1350.456	1266.240
775.707	18.893	1349.928	1265.998
776.721	19.080	1349.004	1266.368
777.736	19.026	1347.525	1264.428
778.751	19.028	1347.131	1263.919
779.765	18.851	1346.222	1261.611
780.780	18.895	1345.681	1261.273
781.794	18.862	1344.223	1259.515
782.809	18.720	1343.454	1257.596
783.824	18.725	1342.426	1256.519
784.838	18.588	1340.405	1253.473
785.853	18.355	1339.169	1250.459
786.867	18.360	1338.774	1249.974
787.882	18.567	1337.939	1250.564
788.897	18.496	1337.856	1249.818
789.911	18.687	1336.411	1249.713
790.926	18.719	1335.303	1248.767
791.940	18.838	1333.505	1247.800
792.955	18.873	1332.015	1246.513
793.969	18.887	1331.260	1245.758
794.984	18.893	1330.682	1245.115
795.999	18.944	1329.807	1244.518
797.013	19.036	1327.921	1243.272
798.028	19.102	1326.057	1241.856
799.042	18.860	1326.287	1240.168
800.057	18.873	1325.515	1239.391
801.072	19.020	1323.741	1238.645
802.086	18.993	1322.530	1237.173
803.101	18.992	1321.723	1236.263
804.115	19.020	1321.089	1235.722
805.130	18.845	1320.320	1233.593
806.145	19.033	1318.860	1233.438
807.159	19.113	1317.555	1232.641
808.174	18.973	1315.861	1229.906
809.188	18.893	1314.636	1228.036
810.203	18.841	1313.028	1226.013
811.218	18.725	1311.554	1223.665
812.232	18.545	1310.229	1220.993
813.247	18.735	1309.201	1221.247
814.261	18.795	1309.199	1221.527
815.276	18.909	1308.556	1221.594
816.291	19.037	1307.397	1221.278
817.305	19.177	1306.162	1220.981
818.320	19.039	1305.082	1218.837
819.334	19.024	1303.165	1216.797
820.349	19.198	1301.965	1216.765
821.364	19.079	1300.766	1214.653
822.378	19.016	1299.408	1212.798
823.393	18.938	1298.510	1211.259
824.407	18.946	1296.912	1209.679
825.422	18.983	1296.658	1209.558
826.437	18.909	1295.879	1208.167
827.451	18.874	1293.398	1205.459
828.466	18.540	1291.783	1201.461
829.480	18.468	1290.173	1199.317
830.495	18.551	1288.929	1198.596
831.509	18.697	1288.781	1199.344
832.524	18.744	1287.900	1198.705
833.539	18.978	1286.332	1198.747
834.553	19.065	1285.698	1198.622
835.568	19.002	1284.754	1197.157
836.582	19.266	1283.170	1197.379
837.597	19.204	1281.880	1195.597
838.612	19.149	1280.318	1193.614
839.626	19.224	1279.312	1193.058
840.641	19.035	1278.329	1190.687
841.655	18.765	1278.402	1188.728
842.670	18.649	1277.027	1186.501
843.685	18.565	1275.710	1184.554
844.699	18.729	1274.361	1184.298
845.714	18.830	1273.552	1184.107
846.728	18.995	1272.456	1184.083
847.743	19.059	1271.920	1183.891
848.758	19.086	1270.870	1182.956
849.772	19.004	1269.457	1180.931
850.787	19.034	1268.608	1180.206
851.801	18.939	1267.452	1178.336
852.816	18.925	1266.037	1176.786
853.831	18.820	1264.285	1174.296
854.845	18.892	1261.888	1172.423
855.860	18.895	1260.771	1171.262
856.874	18.926	1259.334	1170.001
857.889	18.835	1258.259	1168.242
858.904	18.533	1256.993	1164.864
859.918	18.555	1254.933	1162.962
860.933	18.480	1253.580	1161.061
861.947	18.666	1253.338	1161.962
862.962	18.765	1252.452	1161.675
863.977	18.827	1251.323	1160.910
864.991	18.814	1250.842	1160.240
866.006	19.010	1250.132	1160.769
867.020	19.106	1248.802	1160.043
868.035	19.058	1248.291	1159.109
869.049	18.998	1247.770	1158.076
870.064	19.083	1246.587	1157.413
871.079	19.061	1245.626	1156.239
872.093	19.174	1244.636	1155.939
873.108	19.060	1244.128	1154.566
874.122	19.056	1242.963	1153.314
875.137	18.837	1242.122	1150.924
876.152	19.014	1240.811	1150.762
877.166	18.953	1238.674	1148.230
878.181	19.171	1237.435	1148.410
879.195	19.219	1237.614	1148.757
880.210	19.125	1237.083	1147.498
881.225	19.149	1235.799	1146.329
882.239	19.180	1235.380	1146.010
883.254	19.224	1233.843	1144.743
884.268	19.182	1232.929	1143.480
885.283	19.296	1231.433	1142.711
886.298	19.243	1230.358	1141.226
887.312	19.322	1229.359	1140.690
888.327	19.269	1228.281	1139.197
889.341	19.203	1227.080	1137.508
890.356	19.320	1226.650	1137.754
891.371	19.195	1226.011	1136.194
892.385	19.156	1224.893	1134.766
893.400	19.075	1223.979	1133.248
894.414	18.810	1223.404	1130.826
895.429	18.973	1221.716	1130.209
896.444	18.645	1219.492	1125.849
897.458	18.555	1217.648	1123.419
898.473	18.632	1217.499	1123.657
899.487	18.864	1217.156	1124.730
900.502	19.071	1216.411	1125.270
901.517	19.044	1215.317	1123.944
902.531	19.321	1213.976	1124.383
903.546	19.350	1213.456	1123.959
904.560	19.384	1213.083	1123.703
905.575	19.358	1212.648	1122.996
906.589	19.306	1211.321	1121.292
907.604	19.284	1210.422	1120.184
