DTS Sentinel unit serial number:	SN409020Multiplexer serial number:	ORYXHardware model number:	OX4-SRSoftware version number:	ORYX F/W v3.00 Oryx Data Collector v3.7.2.0data status	okinstallation	HaddamTimeLapsedifferential loss correction	single-endedforward channel	channel 3reverse channel	N/Adate	2011/06/22time	09:51:17forward acquisition time	30.00reverse acquisition time	0.00gamma	498.7831k internal	0.1803k external	0.1803temperature offset calibration	1.0074default loss term (dB/km)	0.3790temperature slope calibration	1.3530multiplexer offset coefficient	1.0000multiplexer slope coefficient	1.0000fibre end	0.00T internal ref (°C)	28.31T ext. ref 1 (°C)	25.91T ext. ref 2 (°C)	0.19length (m)	temperature (°C)	Stokes	anti-Stokes-747.200	539.640	-0.144	-0.444
-746.185	-98.657	-0.235	-0.077
-745.171	-160.690	-0.276	-0.019
-744.156	56.662	-0.197	0.248
-743.142	-61.611	0.231	0.124
-742.127	-30.703	0.275	-0.200
-741.112	-77.147	-0.231	-0.103
-740.098	31.431	0.267	0.296
-739.083	22.908	0.114	-0.121
-738.069	-76.374	-0.407	0.184
-737.054	-127.698	0.163	-0.030
-736.039	800.000	0.106	0.523
-735.025	-5.908	0.158	0.139
-734.010	358.469	0.067	-0.174
-732.996	-133.495	-0.316	0.051
-731.981	-162.022	0.814	-0.052
-730.966	71.169	0.062	0.082
-729.952	-76.593	0.240	0.108
-728.937	-50.613	-0.249	-0.151
-727.923	800.000	-0.076	0.288
-726.908	-79.155	-0.485	0.211
-725.894	747.634	0.063	-0.222
-724.879	-51.358	0.195	-0.117
-723.864	152.088	-0.097	0.171
-722.850	52.528	-0.356	-0.439
-721.835	512.953	-0.064	-0.194
-720.821	-200.000	0.022	-0.314
-719.806	-85.287	-0.566	-0.227
-718.791	93.498	-0.280	-0.409
-717.777	800.000	-0.048	-0.175
-716.762	-12.510	-0.287	-0.241
-715.748	-76.374	0.492	0.222
-714.733	36.180	0.346	0.393
-713.718	-175.819	0.494	-0.017
-712.704	-200.000	0.045	-0.371
-711.689	-154.841	0.367	0.031
-710.675	-81.846	0.100	0.042
-709.660	19.959	-0.145	-0.150
-708.645	75.769	0.275	0.375
-707.631	-105.035	0.187	0.055
-706.616	-27.789	0.055	0.041
-705.602	69.010	-0.082	0.109
-704.587	22.780	-0.023	-0.024
-703.572	800.000	-0.168	0.638
-702.558	-91.079	-0.280	-0.103
-701.543	-12.093	0.214	-0.181
-700.529	352.684	0.080	-0.205
-699.514	189.159	0.045	0.086
-698.499	-176.830	0.288	-0.009
-697.485	-200.000	-0.008	-0.224
-696.470	-15.822	0.070	0.057
-695.456	800.000	0.067	-0.261
-694.441	20.191	0.235	-0.244
-693.426	-139.147	-0.337	-0.046
-692.412	233.652	0.256	-0.544
-691.397	43.520	0.140	-0.164
-690.383	800.000	0.013	-0.051
-689.368	-116.868	0.605	-0.142
-688.354	373.711	0.172	-0.453
-687.339	436.740	-0.120	-0.338
-686.324	-153.369	-0.575	0.051
-685.310	-137.121	-0.218	-0.032
-684.295	199.397	0.260	-0.516
-683.281	-23.967	-0.187	-0.144
-682.266	-38.887	-0.240	0.162
-681.251	-136.194	0.625	-0.093
-680.237	138.403	-0.079	0.133
-679.222	-155.639	0.591	-0.048
-678.208	-51.267	0.302	0.181
-677.193	220.091	-0.151	-0.313
-676.178	478.823	-0.043	0.127
-675.164	59.899	-0.236	0.300
-674.149	245.005	-0.099	-0.215
-673.135	103.660	-0.056	0.085
-672.120	8.485	0.210	0.203
-671.105	-200.000	-0.024	0.184
-670.091	-200.000	-0.028	-0.285
-669.076	-5.524	-0.130	-0.114
-668.062	-200.000	0.005	-0.070
-667.047	-23.143	-0.306	0.236
-666.032	-200.000	-0.007	-0.251
-665.018	-115.726	-0.398	0.095
-664.003	-36.649	-0.328	0.226
-662.989	-188.900	-0.425	0.006
-661.974	159.732	-0.069	-0.124
-660.959	-138.666	0.048	0.007
-659.945	-47.387	-0.072	-0.045
-658.930	727.141	0.046	0.159
-657.916	47.632	0.237	-0.284
-656.901	-116.760	-0.120	0.028
-655.886	50.158	0.080	0.097
-654.872	-191.112	-0.461	0.006
-653.857	-114.065	0.250	0.062
-652.843	-144.676	0.073	-0.009
-651.828	-84.719	0.333	0.134
-650.814	-200.000	0.013	-0.090
-649.799	-81.143	0.312	-0.132
-648.784	-51.267	0.215	-0.129
-647.770	-38.170	-0.380	-0.258
-646.755	-200.000	-0.026	0.174
-645.741	65.519	0.122	-0.159
-644.726	45.241	0.236	-0.280
-643.711	-159.579	0.478	-0.034
-642.697	-50.704	-0.339	0.205
-641.682	-180.458	-0.593	-0.016
-640.668	800.000	-0.046	0.238
-639.653	-24.870	-0.301	-0.229
-638.638	104.599	-0.152	-0.230
-637.624	-160.640	-0.113	-0.008
-636.609	-200.000	0.006	0.137
-635.595	-200.000	-0.030	0.275
-634.580	-66.762	-0.126	0.064
-633.565	0.691	-0.106	-0.097
-632.551	-81.395	-0.469	0.197
-631.536	692.664	0.121	-0.410
-630.522	-86.063	-0.267	-0.105
-629.507	-137.444	-0.590	-0.085
-628.492	-17.960	-0.329	-0.265
-627.478	-200.000	0.041	0.553
-626.463	-62.834	-0.137	-0.073
-625.449	-200.000	-0.080	-0.493
-624.434	720.308	-0.233	-0.799
-623.419	-103.217	0.354	-0.107
-622.405	-93.670	-0.486	-0.171
-621.390	21.388	-0.288	-0.300
-620.376	-157.566	-0.147	-0.011
-619.361	3.692	0.247	0.231
-618.346	22.185	0.329	-0.344
-617.332	-57.808	-0.173	-0.097
-616.317	-139.457	0.423	-0.058
-615.303	-20.396	0.165	0.130
-614.288	-200.000	0.004	0.141
-613.273	-57.012	0.305	-0.172
-612.259	270.186	0.031	0.071
-611.244	437.632	-0.105	0.294
-610.230	-38.470	-0.112	0.076
-609.215	-200.000	0.000	0.117
-608.201	304.955	-0.269	0.644
-607.186	-164.514	-0.656	0.038
-606.171	2.797	-0.131	-0.121
-605.157	800.000	0.060	0.267
-604.142	-46.350	-0.175	0.110
-603.128	73.111	0.128	-0.172
-602.113	-35.068	-0.184	0.129
-601.098	-150.421	0.182	0.018
-600.084	351.181	0.156	0.398
-599.069	12.635	-0.313	0.310
-598.055	-56.457	-0.212	-0.120
-597.040	314.524	0.088	-0.212
-596.025	-149.283	0.356	-0.036
-595.011	-98.162	0.399	0.131
-593.996	-200.000	-0.023	-0.294
-592.982	565.773	0.077	0.241
-591.967	-10.536	-0.210	0.178
-590.952	19.186	-0.295	-0.304
-589.938	126.634	0.229	0.372
-588.923	-200.000	0.017	0.233
-587.909	800.000	0.045	-0.186
-586.894	90.690	0.153	0.221
-585.879	267.916	0.183	0.413
-584.865	800.000	0.021	0.082
-583.850	241.911	-0.087	-0.187
-582.836	304.361	0.049	0.117
-581.821	-123.467	0.187	-0.038
-580.806	700.368	-0.081	-0.276
-579.792	83.039	0.322	-0.450
-578.777	-142.321	0.263	-0.033
-577.763	-200.000	-0.008	0.547
-576.748	-200.000	-0.009	0.124
-575.733	-63.135	-0.155	-0.081
-574.719	653.690	0.079	-0.263
-573.704	13.632	0.417	-0.414
-572.690	-200.000	0.028	0.483
-571.675	-200.000	0.074	0.634
-570.661	-130.327	0.135	0.023
-569.646	283.172	-0.060	-0.140
-568.631	-200.000	0.049	-0.567
-567.617	-83.969	-0.372	-0.151
-566.602	214.341	0.094	0.191
-565.588	-13.084	-0.051	-0.043
-564.573	800.000	-0.100	-0.388
-563.558	800.000	0.028	0.104
-562.544	-77.464	-0.455	0.201
-561.529	28.234	0.130	-0.141
-560.515	36.008	0.458	0.516
-559.500	118.005	0.224	0.354
-558.485	61.364	0.159	0.202
-557.471	-53.680	-0.200	-0.117
-556.456	43.172	0.027	-0.031
-555.442	3.030	-0.109	-0.101
-554.427	-108.612	0.226	-0.062
-553.412	-3.089	-0.314	-0.281
-552.398	-117.446	-0.368	-0.085
-551.383	-62.775	0.125	-0.066
-550.369	-1.673	0.381	-0.344
-549.354	-152.228	-0.473	0.043
-548.339	77.939	0.347	0.474
-547.325	-190.250	-0.366	-0.005
-546.310	-95.626	0.217	-0.074
-545.296	-99.831	-0.200	-0.064
-544.281	-114.252	-0.726	0.178
-543.266	-200.000	0.043	-0.635
-542.252	-151.169	0.478	-0.045
-541.237	-75.646	0.419	0.190
-540.223	123.750	-0.202	0.325
-539.208	-198.861	-0.033	0.000
-538.193	-74.097	-0.482	-0.222
-537.179	545.625	0.091	0.279
-536.164	47.316	-0.157	0.187
-535.150	-72.990	0.636	-0.297
-534.135	-92.884	0.217	0.077
-533.121	-58.857	-0.342	0.189
-532.106	-111.491	-0.337	-0.087
-531.091	-106.932	-0.370	0.104
-530.077	-74.006	0.402	-0.186
-529.062	-57.935	0.383	-0.213
-528.048	-19.028	-0.071	0.056
-527.033	87.498	-0.192	-0.272
-526.018	800.000	-0.070	0.320
-525.004	-200.000	0.025	-0.449
-523.989	-28.565	-0.286	0.210
-522.975	-47.584	-0.237	0.147
-521.960	20.989	0.169	-0.175
-520.945	-54.756	-0.332	-0.191
-519.931	-159.524	0.129	0.009
-518.916	30.115	-0.216	0.236
-517.902	-84.829	0.248	0.099
-516.887	-89.499	0.211	0.079
-515.872	172.277	-0.071	-0.130
-514.858	2.089	0.118	0.109
-513.843	-200.000	0.001	-0.064
-512.829	-167.548	-0.176	-0.009
-511.814	349.443	-0.168	0.425
-510.799	68.951	0.187	0.245
-509.785	800.000	0.039	0.160
-508.770	-98.459	0.468	0.152
-507.756	87.305	0.223	0.316
-506.741	2.278	-0.121	-0.112
-505.726	-62.333	0.017	0.009
-504.712	-69.610	-0.135	0.066
-503.697	-0.679	-0.236	-0.213
-502.683	137.944	0.120	-0.202
-501.668	-56.347	0.104	-0.059
-500.653	0.032	0.436	-0.397
-499.639	-121.796	-0.464	0.097
-498.624	-200.000	0.034	0.288
-497.610	157.072	-0.277	0.491
-496.595	800.000	0.096	0.357
-495.581	740.970	0.094	0.325
-494.566	-137.394	0.204	-0.029
-493.551	74.161	-0.026	0.035
-492.537	-141.481	0.243	-0.031
-491.522	-66.794	0.443	0.223
-490.508	262.041	-0.065	-0.144
-489.493	-169.028	-0.182	0.009
-488.478	-185.976	0.300	-0.006
-487.464	-76.171	0.113	0.051
-486.449	-200.000	0.057	-0.367
-485.435	140.441	-0.040	-0.068
-484.420	93.181	0.290	-0.419
-483.405	50.144	0.167	-0.201
-482.391	26.309	-0.051	-0.054
-481.376	800.000	0.053	-0.292
-480.362	142.403	0.058	0.098
-479.347	-134.597	0.242	0.037
-478.332	-76.730	-0.252	-0.112
-477.318	36.124	-0.119	-0.133
-476.303	-94.056	0.328	-0.114
-475.289	-114.753	-0.585	-0.142
-474.274	-66.179	0.145	0.073
-473.259	-200.000	-0.021	0.233
-472.245	-147.099	-0.317	0.034
-471.230	-95.382	0.151	0.052
-470.216	800.000	-0.088	0.454
-469.201	800.000	-0.086	0.445
-468.186	-200.000	0.010	0.386
-467.172	-134.250	0.286	-0.044
-466.157	28.939	0.168	-0.182
-465.143	-122.207	0.139	0.029
-464.128	-57.666	-0.423	-0.236
-463.113	-53.364	0.175	0.102
-462.099	-200.000	-0.026	0.415
-461.084	-200.000	0.026	-0.328
-460.070	2.014	-0.232	0.214
-459.055	-110.616	0.079	-0.021
-458.040	379.190	-0.078	0.205
-457.026	-118.843	-0.619	0.138
-456.011	368.682	0.098	0.254
-454.997	-200.000	0.072	0.469
-453.982	317.784	-0.116	0.281
-452.968	-100.490	0.395	0.124
-451.953	-35.817	0.211	-0.145
-450.938	-97.913	0.196	0.064
-449.924	293.306	0.200	-0.466
-448.909	-27.385	0.384	-0.284
-447.895	-17.628	-0.039	0.031
-446.880	-200.000	-0.057	-0.345
-445.865	694.263	0.162	-0.545
-444.851	259.686	0.061	-0.134
-443.836	23.391	0.369	0.386
-442.822	800.000	-0.110	0.407
-441.807	-62.589	0.206	-0.109
-440.792	-16.729	0.368	-0.296
-439.778	-52.189	0.060	0.035
-438.763	30.657	0.264	-0.288
-437.749	-109.234	-0.449	-0.121
-436.734	-13.811	-0.058	-0.048
-435.719	-42.828	-0.445	-0.287
-434.705	-70.296	0.211	0.102
-433.690	391.406	0.060	-0.159
-432.676	-73.911	-0.225	-0.103
-431.661	-79.445	-0.304	0.130
-430.646	-89.204	0.345	-0.129
-429.632	-200.000	0.126	-0.822
-428.617	-142.419	0.222	-0.028
-427.603	564.362	0.045	0.139
-426.588	800.000	-0.078	-0.430
-425.573	188.174	0.344	-0.656
-424.559	-8.851	-0.250	-0.213
-423.544	-200.000	-0.004	0.075
-422.530	-117.176	-0.306	-0.070
-421.515	-83.489	-0.262	0.106
-420.500	-48.323	0.068	-0.042
-419.486	56.977	0.219	-0.272
-418.471	-125.402	0.864	-0.166
-417.457	42.534	-0.361	0.419
-416.442	116.693	0.103	-0.161
-415.428	155.361	0.053	0.093
-414.413	-104.128	-0.129	0.038
-413.398	800.000	-0.059	-0.274
-412.384	-200.000	0.018	-0.254
-411.369	-200.000	-0.010	-0.393
-410.355	-1.620	-0.431	-0.387
-409.340	364.266	-0.080	0.207
-408.325	-150.774	0.419	-0.040
-407.311	55.115	0.209	0.257
-406.296	-48.346	-0.258	-0.158
-405.282	102.973	0.366	0.547
-404.267	-157.576	0.372	0.028
-403.252	-200.000	0.013	-0.200
-402.238	-126.054	-0.169	0.032
-401.223	33.080	0.182	0.201
-400.209	-200.000	-0.007	-0.066
-399.194	-41.109	-0.235	-0.154
-398.179	800.000	-0.050	0.188
-397.165	190.852	-0.126	0.242
-396.150	129.068	0.037	-0.061
-395.136	462.330	0.074	-0.211
-394.121	-200.000	-0.053	-0.315
-393.106	80.862	0.283	0.389
-392.092	-60.953	-0.284	-0.152
-391.077	159.206	0.075	0.133
-390.063	-92.048	0.188	0.067
-389.048	-200.000	0.010	0.109
-388.033	9.562	-0.198	-0.191
-387.019	-129.233	0.333	0.059
-386.004	-58.867	0.467	0.256
-384.990	-13.490	0.159	0.131
-383.975	-73.124	-0.337	0.156
-382.960	9.466	-0.076	-0.073
-381.946	-28.377	0.197	0.145
-380.931	-200.000	-0.066	0.565
-379.917	218.323	0.075	0.153
-378.902	-77.138	0.326	0.144
-377.888	-116.543	-0.217	-0.050
-376.873	-200.000	-0.042	0.442
-375.858	335.721	-0.103	0.255
-374.844	628.216	0.093	0.300
-373.829	-111.307	-0.276	0.071
-372.815	-135.594	0.451	0.067
-371.800	-86.803	0.253	0.098
-370.785	342.268	-0.023	-0.057
-369.771	-158.557	0.125	0.009
-368.756	800.000	0.087	-0.349
-367.742	-95.622	0.210	0.071
-366.727	-117.472	-0.168	-0.038
-365.712	-55.930	0.401	0.227
-364.698	-200.000	-0.002	0.073
-363.683	343.452	-0.277	0.693
-362.669	-49.323	-0.245	0.148
-361.654	-171.700	0.156	0.006
-360.639	-69.561	0.395	-0.192
-359.625	-200.000	0.026	-0.543
-358.610	18.305	0.386	0.391
-357.596	8.581	0.302	0.289
-356.581	-52.745	-0.114	-0.066
-355.566	529.367	0.175	-0.527
-354.552	-200.000	-0.028	-0.373
-353.537	-22.203	0.096	0.074
-352.523	-200.000	-0.019	0.248
-351.508	-200.000	-0.047	-0.469
-350.493	-34.723	-0.147	0.102
-349.479	-200.000	-0.012	0.358
-348.464	118.098	0.050	0.078
-347.450	-200.000	0.004	-0.110
-346.435	-200.000	0.012	-0.113
-345.420	-141.893	-0.327	-0.041
-344.406	169.159	-0.034	-0.061
-343.391	-83.921	-0.443	-0.178
-342.377	-100.630	-0.415	0.129
-341.362	-135.487	0.147	-0.022
-340.348	12.486	-0.214	0.210
-339.333	-200.000	-0.018	-0.422
-338.318	-200.000	0.039	-0.376
-337.304	-81.390	-0.189	0.079
-336.289	7.708	0.400	-0.380
-335.275	200.998	0.252	0.493
-334.260	97.715	0.200	-0.292
-333.245	-56.569	-0.232	-0.130
-332.231	96.670	-0.186	0.271
-331.216	540.808	-0.097	0.296
-330.202	730.802	-0.111	0.381
-329.187	-145.144	-0.220	-0.025
-328.172	-150.871	-0.414	-0.039
-327.158	-100.005	-0.411	-0.129
-326.143	-35.090	0.115	0.079
-325.129	-99.019	0.517	-0.165
-324.114	-122.106	0.098	0.020
-323.099	158.790	0.078	-0.137
-322.085	-50.557	0.254	0.152
-321.070	-200.000	-0.006	-0.160
-320.056	-171.478	0.102	-0.004
-319.041	-200.000	-0.000	-0.090
-318.026	0.683	-0.231	-0.209
-317.012	-200.000	0.017	-0.258
-315.997	-79.051	-0.568	-0.244
-314.983	68.367	-0.104	0.135
-313.968	-194.090	0.200	0.002
-312.953	-109.438	0.384	-0.102
-311.939	-90.460	0.171	0.062
-310.924	38.318	-0.281	-0.317
-309.910	706.780	0.078	0.264
-308.895	-75.574	-0.080	0.036
-307.880	800.000	0.068	-0.298
-306.866	-200.000	0.010	0.278
-305.851	-200.000	0.028	-0.238
-304.837	-14.352	0.099	-0.081
-303.822	-33.673	-0.107	-0.074
-302.807	-77.543	0.036	-0.016
-301.793	-200.000	-0.020	-0.283
-300.778	-200.000	-0.001	0.137
-299.764	-153.511	0.354	0.031
-298.749	280.363	0.112	-0.255
-297.735	-89.409	-0.419	-0.156
-296.720	-148.497	-0.120	0.012
-295.705	-123.498	0.378	0.075
-294.691	-0.793	0.493	0.443
-293.676	-178.448	-0.367	0.011
-292.662	-91.165	-0.484	-0.175
-291.647	-76.713	-0.296	0.131
-290.632	800.000	-0.069	0.353
-289.618	52.156	-0.081	-0.098
-288.603	-200.000	0.047	-0.299
-287.589	800.000	0.048	-0.215
-286.574	-20.540	0.221	-0.172
-285.559	-200.000	-0.008	-0.312
-284.545	600.548	0.026	0.081
-283.530	-71.128	0.139	-0.066
-282.516	259.152	0.202	0.442
-281.501	800.000	0.139	0.547
-280.486	-24.977	0.362	0.271
-279.472	-161.765	0.175	0.011
-278.457	8.626	-0.468	0.446
-277.443	-41.251	0.238	0.155
-276.428	122.398	-0.177	-0.280
-275.413	228.934	-0.088	-0.182
-274.399	-200.000	0.011	0.214
-273.384	-88.195	0.053	0.020
-272.370	-200.000	0.006	0.120
-271.355	-200.000	0.005	-0.180
-270.340	-200.000	-0.003	0.263
-269.326	-200.000	-0.098	-0.000
-268.311	-29.975	-0.554	0.399
-267.297	800.000	0.019	0.092
-266.282	151.088	-0.055	-0.095
-265.267	-105.039	0.556	0.160
-264.253	1.818	0.291	0.265
-263.238	-98.891	-0.111	0.036
-262.224	-105.129	-0.417	-0.120
-261.209	382.576	-0.157	-0.411
-260.195	-109.141	0.091	0.024
-259.180	330.685	0.036	0.088
-258.165	-200.000	0.025	-0.535
-257.151	122.891	-0.096	0.152
-256.136	800.000	0.071	-0.270
-255.122	631.288	0.043	0.137
-254.107	-5.504	0.217	0.188
-253.092	766.155	-0.150	0.520
-252.078	166.982	-0.162	0.292
-251.063	-14.131	-0.274	0.223
-250.049	-54.737	0.262	-0.149
-249.034	-87.326	-0.576	-0.220
-248.019	-87.257	0.129	-0.049
-247.005	-116.105	0.148	0.034
-245.990	42.383	-0.138	-0.159
-244.976	-106.191	-0.171	0.048
-243.961	-178.511	-0.498	0.014
-242.946	-200.000	-0.037	0.245
-241.932	44.721	-0.468	-0.545
-240.917	-59.106	0.169	0.092
-239.903	-136.418	-0.342	-0.050
-238.888	648.809	-0.122	0.398
-237.873	180.784	-0.182	-0.339
-236.859	-94.945	-0.055	-0.019
-235.844	-47.554	0.281	-0.172
-234.830	800.000	-0.035	-0.133
-233.815	15.081	0.257	-0.254
-232.800	-112.545	0.056	-0.014
-231.786	58.080	0.152	0.189
-230.771	-56.694	0.310	-0.173
-229.757	-200.000	-0.010	0.261
-228.742	-102.258	0.229	0.069
-227.727	-200.000	-0.041	0.510
-226.713	24.003	-0.314	0.328
-225.698	-153.345	-0.074	-0.006
-224.684	800.000	0.089	0.418
-223.669	-116.385	0.098	0.023
-222.655	-79.180	0.482	-0.206
-221.640	-42.037	0.048	-0.031
-220.625	-200.000	0.046	0.567
-219.611	-107.008	-0.311	-0.086
-218.596	-27.235	0.484	0.356
-217.582	-200.000	0.002	0.035
-216.567	-80.157	-0.304	-0.128
-215.552	-200.000	0.029	0.488
-214.538	-3.638	0.321	0.281
-213.523	142.199	-0.028	0.047
-212.509	-200.000	0.000	-0.048
-211.494	276.281	-0.163	-0.368
-210.479	-7.159	-0.111	-0.095
-209.465	-152.542	0.321	-0.029
-208.450	213.230	-0.125	0.251
-207.436	-71.563	0.052	0.024
-206.421	-200.000	-0.010	-0.474
-205.406	246.514	-0.058	-0.123
-204.392	-39.564	0.254	0.168
-203.377	-200.000	0.006	0.290
-202.363	213.588	-0.150	-0.300
-201.348	-110.808	-0.199	0.052
-200.333	-200.000	-0.028	0.181
-199.319	67.439	-0.138	-0.178
-198.304	-90.629	0.116	-0.042
-197.290	-180.015	-0.401	-0.011
-196.275	242.997	-0.168	0.357
-195.260	-22.552	0.336	-0.256
-194.246	-200.000	-0.061	0.380
-193.231	-200.000	-0.084	-0.536
-192.217	43.317	0.291	-0.336
-191.202	47.935	0.267	-0.315
-190.187	54.478	-0.345	-0.420
-189.173	-54.387	-0.432	-0.246
-188.158	-45.469	-0.260	-0.162
-187.144	461.716	0.171	0.485
-186.129	136.215	0.268	0.442
-185.114	201.816	0.292	0.570
-184.100	441.038	0.041	0.115
-183.085	135.153	0.134	0.221
-182.071	-135.098	-0.232	-0.035
-181.056	-89.292	-0.298	0.110
-180.042	-180.010	0.471	0.012
-179.027	800.000	0.065	0.327
-178.012	566.830	0.043	-0.131
-176.998	-170.322	0.260	0.011
-175.983	-14.828	-0.529	-0.427
-174.969	100.747	-0.389	-0.571
-173.954	-21.788	-0.052	-0.040
-172.939	800.000	-0.090	-0.397
-171.925	-200.000	0.013	-0.547
-170.910	35.996	-0.207	-0.230
-169.896	-200.000	-0.005	0.268
-168.881	-75.486	0.208	-0.093
-167.866	231.945	-0.064	0.132
-166.852	404.076	0.151	0.402
-165.837	8.362	-0.186	-0.177
-164.823	-9.605	-0.177	-0.149
-163.808	-132.506	-0.321	-0.051
-162.793	315.569	0.165	0.394
-161.779	483.412	0.139	-0.401
-160.764	800.000	0.065	-0.347
-159.750	175.910	0.162	-0.297
-158.735	-15.247	-0.157	0.127
-157.720	202.776	0.072	-0.142
-156.706	-56.453	-0.399	0.223
-155.691	-9.973	0.199	0.167
-154.677	800.000	0.100	-0.418
-153.662	148.229	-0.497	-0.847
-152.647	800.000	-0.025	-0.102
-151.633	-200.000	-0.006	0.434
-150.618	-7.044	0.362	-0.309
-149.604	376.536	0.158	-0.407
-148.589	251.631	-0.023	0.051
-147.574	395.520	-0.031	0.083
-146.560	-66.197	-0.132	0.066
-145.545	-162.890	-0.405	-0.024
-144.531	-3.051	-0.071	0.063
-143.516	215.043	0.158	0.317
-142.502	-42.995	0.623	-0.397
-141.487	-86.626	0.192	0.074
-140.472	-22.646	-0.214	-0.163
-139.458	366.891	0.127	-0.324
-138.443	273.949	0.178	-0.398
-137.429	61.397	-0.115	-0.144
-136.414	229.638	-0.107	0.221
-135.399	236.204	-0.144	0.302
-134.385	-165.969	-0.401	-0.021
-133.370	63.839	0.445	0.563
-132.356	-91.534	0.141	0.050
-131.341	439.464	-0.174	0.481
-130.326	-87.987	0.308	0.116
-129.312	-151.712	0.537	0.049
-128.297	-80.701	0.709	0.295
-127.283	-85.424	-0.020	-0.008
-126.268	-18.479	-0.211	-0.166
-125.253	800.000	0.071	-0.345
-124.239	-200.000	0.008	0.122
-123.224	800.000	0.021	0.093
-122.210	180.236	0.252	-0.466
-121.195	-98.818	0.121	-0.038
-120.180	-36.800	0.397	0.267
-119.166	-40.892	0.157	0.102
-118.151	-200.000	-0.025	0.216
-117.137	-200.000	0.050	-0.282
-116.122	-200.000	0.078	-0.630
-115.107	46.876	0.249	-0.291
-114.093	7.759	-0.066	-0.063
-113.078	-200.000	-0.003	0.219
-112.064	9.944	0.299	0.285
-111.049	-66.319	-0.110	-0.055
-110.034	53.573	0.004	-0.004
-109.020	-121.489	0.263	-0.054
-108.005	-200.000	0.022	-0.147
-106.991	369.961	0.161	0.412
-105.976	-200.000	-0.018	-0.145
-104.962	588.782	-0.082	0.257
-103.947	-84.173	-0.446	0.177
-102.932	-150.216	-0.612	0.059
-101.918	88.468	0.249	-0.349
-100.903	-76.231	0.486	0.215
-99.889	-95.176	0.645	-0.217
-98.874	-29.466	0.122	0.088
-97.859	-37.815	-0.088	-0.059
-96.845	276.602	-0.247	0.555
-95.830	-41.624	0.551	-0.355
-94.816	-85.842	-0.401	-0.156
-93.801	6.863	-0.138	0.129
-92.786	-20.789	-0.158	0.122
-91.772	79.560	0.169	0.228
-90.757	311.875	0.101	-0.240
-89.743	-59.313	-0.243	-0.131
-88.728	156.346	0.188	-0.327
-87.713	-7.458	-0.174	0.148
-86.699	-102.695	-0.260	-0.077
-85.684	-55.690	0.082	0.046
-84.670	382.970	0.142	-0.368
-83.655	61.090	0.176	-0.220
-82.640	353.185	0.112	-0.281
-81.626	-200.000	-0.023	-0.192
-80.611	56.678	0.115	0.141
-79.597	800.000	-0.089	0.392
-78.582	364.003	-0.017	0.043
-77.567	191.034	0.011	0.021
-76.553	-75.312	-0.182	-0.081
-75.538	129.613	0.189	0.305
-74.524	-179.246	0.243	0.007
-73.509	-200.000	-0.029	-0.214
-72.494	-89.782	-0.518	-0.190
-71.480	26.547	0.140	-0.148
-70.465	-23.066	-0.417	0.315
-69.451	-199.931	0.543	-0.003
-68.436	-200.000	0.018	0.116
-67.422	-6.419	0.313	-0.268
-66.407	265.915	0.164	-0.360
-65.392	-95.040	-0.428	-0.144
-64.378	-200.000	-0.027	0.180
-63.363	694.515	-0.069	-0.228
-62.349	57.538	-0.246	0.303
-61.334	6.877	-1.749	-1.635
-60.319	-11.692	0.811	0.668
-59.305	154.879	-3.890	-6.732
-58.290	38.658	3.455	3.873
-57.276	336.063	4.279	10.472
-56.261	-200.000	16.739	256.039
-55.246	435.228	1204.867	3306.433
-54.232	61.881	2819.084	3529.742
-53.217	71.170	2706.555	3527.587
-52.203	49.501	2441.086	2886.534
-51.188	37.997	2099.433	2344.527
-50.173	30.835	1978.683	2127.697
-49.159	29.344	1967.786	2098.855
-48.144	28.738	1964.063	2087.876
-47.130	28.699	1962.051	2085.209
-46.115	28.546	1960.383	2081.606
-45.100	28.551	1958.375	2079.447
-44.086	28.520	1957.935	2078.547
-43.071	28.687	1955.145	2077.398
-42.057	28.565	1954.086	2074.808
-41.042	28.553	1952.771	2073.197
-40.027	28.447	1951.547	2070.609
-39.013	28.433	1949.714	2068.425
-37.998	28.462	1948.266	2067.136
-36.984	28.487	1947.047	2066.040
-35.969	28.457	1946.103	2064.614
-34.954	28.363	1945.604	2062.946
-33.940	28.471	1943.583	2061.940
-32.925	28.446	1942.498	2060.425
-31.911	28.519	1939.900	2058.412
-30.896	28.420	1938.973	2056.224
-29.881	28.276	1937.984	2053.469
-28.867	28.455	1936.436	2053.772
-27.852	28.416	1935.780	2052.555
-26.838	28.414	1933.644	2050.185
-25.823	28.334	1931.974	2047.429
-24.809	28.252	1931.277	2045.686
-23.794	28.434	1929.319	2045.573
-22.779	28.232	1929.001	2042.895
-21.765	28.289	1927.853	2042.240
-20.750	28.318	1926.463	2041.005
-19.736	28.220	1924.922	2038.194
-18.721	28.322	1923.661	2037.915
-17.706	28.313	1922.793	2036.814
-16.692	28.151	1922.159	2034.259
-15.677	28.266	1920.641	2033.853
-14.663	28.293	1918.476	2031.782
-13.648	28.211	1917.571	2029.826
-12.633	28.108	1916.358	2027.312
-11.619	28.239	1915.010	2027.271
-10.604	28.266	1912.914	2025.265
-9.590	28.260	1911.846	2023.993
-8.575	28.119	1912.200	2022.712
-7.560	28.168	1910.569	2021.459
-6.546	28.218	1908.840	2020.097
-5.531	28.203	1907.650	2018.593
-4.517	28.305	1905.671	2017.548
-3.502	28.189	1905.793	2016.313
-2.487	28.325	1904.241	2016.095
-1.473	28.311	1900.650	2012.062
-0.458	28.625	1883.209	1996.950
0.556	26.010	2029.347	2108.648
1.571	25.553	2243.531	2324.995
2.586	26.837	2288.376	2388.187
3.600	26.799	2290.774	2389.894
4.615	26.798	2290.268	2389.077
5.629	26.932	2288.674	2388.902
6.644	26.861	2286.953	2385.880
7.659	26.974	2284.806	2384.849
8.673	26.902	2283.297	2382.038
9.688	26.313	2289.500	2380.421
10.702	24.910	2367.777	2442.296
11.717	23.585	2435.330	2492.976
12.731	12.291	2403.527	2301.820
13.746	1.917	2376.284	2130.337
14.761	0.452	2370.480	2104.342
15.775	0.289	2367.589	2099.253
16.790	0.223	2366.375	2096.996
17.804	0.224	2365.022	2095.555
18.819	0.257	2364.152	2095.000
19.834	0.180	2363.067	2092.712
20.848	0.268	2361.017	2091.871
21.863	0.239	2358.910	2089.353
22.877	0.198	2356.777	2086.639
23.892	0.192	2354.729	2084.495
24.907	0.242	2351.733	2082.281
25.921	0.124	2351.786	2080.439
26.936	0.181	2348.753	2078.306
27.950	0.123	2346.371	2075.149
28.965	0.265	2343.934	2074.708
29.980	0.250	2342.496	2072.983
30.994	0.331	2339.720	2071.389
32.009	6.065	2360.932	2169.679
33.023	21.457	2408.527	2429.662
34.038	30.006	2428.139	2568.911
35.053	32.131	2431.123	2601.384
36.067	32.004	2428.482	2596.487
37.082	31.307	2424.796	2582.556
38.096	30.949	2422.041	2574.332
39.111	31.186	2419.641	2574.763
40.126	31.976	2421.568	2587.462
41.140	33.193	2423.837	2606.448
42.155	32.671	2419.511	2594.262
43.169	32.230	2416.301	2584.421
44.184	32.534	2414.314	2586.187
45.199	32.362	2411.560	2580.553
46.213	32.042	2408.919	2573.014
47.228	31.896	2408.477	2570.216
48.242	32.077	2407.470	2571.330
49.257	32.535	2405.089	2574.769
50.271	32.795	2404.053	2576.931
51.286	33.011	2400.523	2575.797
52.301	32.421	2397.494	2564.162
53.315	30.369	2389.956	2527.737
54.330	26.195	2375.759	2455.514
55.344	23.882	2364.862	2412.451
56.359	23.447	2361.623	2402.923
57.374	23.296	2359.820	2398.753
58.388	23.281	2356.328	2394.711
59.403	23.648	2354.711	2397.758
60.417	23.840	2353.677	2399.031
61.432	24.102	2351.620	2400.202
62.447	23.962	2349.872	2396.224
63.461	23.922	2346.384	2391.846
64.476	23.877	2345.160	2389.700
65.490	24.382	2346.300	2397.398
66.505	25.833	2350.831	2421.366
67.520	28.480	2359.389	2465.724
68.534	30.909	2362.850	2501.878
69.549	32.124	2363.332	2518.475
70.563	32.502	2362.647	2522.534
71.578	32.577	2359.995	2520.409
72.593	32.559	2358.673	2518.455
73.607	32.721	2358.209	2519.836
74.622	33.210	2355.752	2523.464
75.636	32.712	2352.310	2512.809
76.651	32.463	2349.209	2505.863
77.666	32.532	2348.554	2505.788
78.680	32.828	2345.990	2506.706
79.695	33.108	2346.663	2510.860
80.709	33.467	2345.876	2514.507
81.724	33.569	2344.621	2514.221
82.739	33.340	2340.485	2506.444
83.753	33.156	2338.391	2501.452
84.768	33.072	2335.644	2497.104
85.782	32.797	2333.676	2491.042
86.797	32.742	2332.704	2488.985
87.812	32.548	2329.788	2483.006
88.826	32.128	2326.589	2473.742
89.841	32.244	2325.347	2473.650
90.855	32.977	2324.409	2482.049
91.870	32.373	2322.053	2471.260
92.884	32.096	2319.116	2464.186
93.899	32.428	2318.190	2467.284
94.914	31.103	2312.761	2443.776
95.928	27.199	2298.852	2377.590
96.943	25.395	2294.937	2349.556
97.957	28.816	2303.549	2403.141
98.972	31.449	2306.934	2440.995
99.987	31.283	2302.948	2434.311
101.001	31.347	2301.599	2433.438
102.016	31.678	2300.893	2436.726
103.030	31.787	2299.193	2436.061
104.045	32.334	2298.358	2442.022
105.060	33.054	2299.142	2451.961
106.074	32.949	2296.309	2447.282
107.089	32.180	2293.325	2433.798
108.103	32.465	2293.210	2437.092
109.118	32.880	2292.056	2440.970
110.133	32.929	2289.990	2439.116
111.147	33.392	2288.773	2443.534
112.162	33.299	2287.685	2440.871
113.176	32.844	2282.950	2429.638
114.191	32.551	2281.485	2424.006
115.206	32.559	2280.091	2422.326
116.220	32.657	2279.337	2422.513
117.235	32.553	2275.750	2417.069
118.249	32.423	2273.281	2412.482
119.264	32.667	2272.593	2414.596
120.279	32.876	2271.090	2415.403
121.293	32.602	2267.557	2407.833
122.308	32.643	2266.430	2406.886
123.322	32.820	2264.747	2407.080
124.337	31.490	2258.272	2382.881
125.352	27.546	2246.282	2319.602
126.366	26.598	2246.547	2307.456
127.381	30.222	2253.373	2360.654
128.395	32.183	2254.433	2386.543
129.410	32.675	2254.611	2392.732
130.424	32.936	2254.073	2395.204
131.439	32.670	2251.999	2389.324
132.454	32.425	2248.595	2382.303
133.468	32.549	2247.331	2382.253
134.483	32.561	2245.395	2380.077
135.497	32.393	2243.269	2375.407
136.512	32.755	2240.414	2376.677
137.527	32.509	2239.462	2372.270
138.541	32.481	2238.037	2370.120
139.556	32.127	2236.199	2363.423
140.570	32.298	2235.049	2364.080
141.585	32.496	2233.708	2364.885
142.600	32.588	2231.607	2363.529
143.614	32.597	2230.578	2362.276
144.629	32.985	2230.583	2366.892
145.643	32.359	2227.114	2355.045
146.658	32.105	2224.871	2349.204
147.673	32.021	2221.359	2344.158
148.687	32.411	2220.420	2347.779
149.702	32.117	2219.452	2342.783
150.716	31.898	2218.186	2338.428
151.731	32.413	2218.903	2345.354
152.746	33.170	2218.240	2353.847
153.760	31.314	2209.958	2321.621
154.775	26.770	2196.987	2251.144
155.789	24.768	2192.179	2220.982
156.804	28.080	2199.936	2269.983
157.819	31.006	2202.203	2308.533
158.833	31.710	2202.177	2316.987
159.848	32.172	2202.291	2322.572
160.862	32.642	2202.404	2328.251
161.877	32.977	2200.535	2330.146
162.892	32.842	2199.500	2327.110
163.906	32.904	2198.721	2326.765
164.921	32.895	2197.506	2325.090
165.935	32.822	2195.274	2321.555
166.950	32.635	2191.596	2315.080
167.964	32.464	2188.278	2309.180
168.979	32.451	2187.843	2308.283
169.994	32.828	2187.887	2312.699
171.008	32.941	2185.644	2311.452
172.023	32.713	2183.737	2306.345
173.037	32.931	2183.417	2308.411
174.052	32.840	2180.532	2303.978
175.067	32.514	2177.693	2296.700
176.081	32.582	2176.166	2295.650
177.096	32.700	2176.265	2296.917
178.110	32.452	2173.089	2290.260
179.125	32.431	2172.502	2289.118
180.140	32.837	2171.725	2292.987
181.154	32.666	2169.180	2287.928
182.169	32.045	2167.522	2278.336
183.183	30.768	2160.299	2254.935
184.198	26.494	2146.349	2188.271
185.213	25.438	2146.888	2175.713
186.227	30.091	2157.317	2242.785
187.242	32.374	2159.813	2272.870
188.256	32.528	2158.951	2273.557
189.271	33.222	2159.410	2282.198
190.286	33.359	2157.410	2281.467
191.300	32.762	2153.823	2270.181
192.315	32.660	2151.258	2265.975
193.329	32.820	2150.684	2267.026
194.344	33.094	2149.774	2269.102
195.359	33.098	2149.876	2268.983
196.373	33.508	2147.281	2270.919
197.388	33.421	2144.843	2267.018
198.402	32.854	2142.012	2256.939
199.417	32.615	2139.129	2250.766
200.432	32.748	2137.823	2250.712
201.446	32.802	2137.406	2250.662
202.461	32.978	2135.671	2250.673
203.475	32.486	2132.321	2240.986
204.490	32.132	2130.127	2234.174
205.504	32.179	2127.254	2231.459
206.519	32.090	2124.973	2227.743
207.534	31.995	2124.003	2225.323
208.548	32.172	2122.617	2225.711
209.563	31.791	2120.143	2218.321
210.577	31.540	2119.164	2214.037
211.592	31.763	2117.772	2214.973
212.607	29.995	2109.542	2185.154
213.621	25.303	2096.234	2115.669
214.636	25.084	2098.696	2115.301
215.650	29.474	2108.285	2176.898
216.665	31.514	2109.588	2202.146
217.680	32.129	2108.972	2208.512
218.694	32.491	2109.538	2213.121
219.709	32.405	2108.591	2210.848
220.723	32.521	2107.154	2210.445
221.738	32.814	2104.846	2211.210
222.753	32.596	2102.019	2205.413
223.767	32.372	2100.191	2200.595
224.782	31.957	2096.731	2191.833
225.796	31.766	2095.635	2188.187
226.811	32.123	2094.391	2190.806
227.826	32.587	2094.893	2196.509
228.840	32.958	2094.174	2199.838
229.855	32.746	2091.443	2194.228
230.869	32.680	2090.773	2192.489
231.884	32.526	2089.458	2189.047
232.899	32.779	2087.423	2189.611
233.913	32.766	2086.648	2188.379
234.928	32.913	2085.209	2188.329
235.942	33.072	2084.308	2188.965
236.957	33.135	2082.765	2187.822
237.972	33.197	2080.276	2185.667
238.986	33.108	2079.917	2183.988
240.001	33.040	2077.736	2180.647
241.015	32.452	2075.854	2171.601
242.030	31.397	2069.999	2153.007
243.045	27.448	2057.160	2093.856
244.059	26.374	2057.153	2081.178
245.074	30.960	2065.679	2142.693
246.088	32.664	2066.220	2162.664
247.103	32.482	2064.368	2158.371
248.117	32.725	2063.769	2160.289
249.132	33.288	2062.877	2165.579
250.147	33.065	2061.141	2160.929
251.161	32.422	2057.991	2149.992
252.176	32.314	2056.365	2146.795
253.190	30.971	2049.227	2123.713
254.205	29.186	2042.572	2096.167
255.220	29.031	2042.759	2094.331
256.234	29.407	2042.912	2098.539
257.249	29.798	2042.364	2102.200
258.263	29.637	2040.484	2098.172
259.278	29.009	2037.109	2087.295
260.293	28.938	2036.115	2085.214
261.307	30.575	2038.906	2106.491
262.322	31.901	2040.093	2122.555
263.336	31.782	2038.284	2119.073
264.351	31.931	2036.738	2118.905
265.366	32.131	2036.021	2120.171
266.380	32.112	2034.213	2117.823
267.395	31.626	2030.929	2108.644
268.409	31.547	2030.307	2106.854
269.424	32.095	2030.440	2112.943
270.439	32.320	2029.932	2114.705
271.453	30.892	2022.180	2090.277
272.468	26.236	2009.083	2024.189
273.482	25.517	2008.225	2014.985
274.497	29.473	2015.785	2066.965
275.512	31.506	2017.762	2091.615
276.526	31.948	2016.175	2094.680
277.541	32.058	2015.205	2094.658
278.555	32.043	2014.163	2093.156
279.570	31.529	2011.001	2083.872
280.585	31.484	2008.789	2080.827
281.599	31.942	2009.771	2086.715
282.614	31.961	2005.720	2082.474
283.628	30.097	2000.556	2056.100
284.643	29.450	1999.461	2047.511
285.657	29.801	1998.081	2049.763
286.672	29.499	1994.873	2042.868
287.687	28.984	1991.509	2033.456
288.701	28.656	1990.337	2028.378
289.716	28.371	1988.570	2023.173
290.730	28.494	1987.314	2023.019
291.745	29.222	1986.489	2029.993
292.760	29.178	1985.817	2028.581
293.774	29.342	1987.004	2031.370
294.789	31.470	1990.159	2057.920
295.803	32.540	1990.348	2069.693
296.818	32.555	1989.504	2068.728
297.833	32.863	1989.621	2072.003
298.847	32.878	1988.304	2070.558
299.862	33.002	1986.587	2069.884
300.876	31.848	1978.808	2048.859
301.891	27.213	1965.142	1983.769
302.906	25.872	1967.157	1970.830
303.920	30.849	1977.457	2035.759
304.935	32.865	1977.826	2058.025
305.949	32.597	1975.862	2052.793
306.964	32.814	1974.611	2053.628
307.979	32.810	1971.774	2050.380
308.993	31.220	1965.743	2026.531
310.008	29.612	1960.908	2003.790
311.022	29.444	1959.283	2000.062
312.037	29.744	1958.382	2002.166
313.052	29.002	1954.714	1990.112
314.066	28.073	1950.172	1975.169
315.081	27.680	1948.821	1969.301
316.095	27.448	1947.174	1964.889
317.110	27.509	1946.112	1964.244
318.125	27.985	1945.153	1968.192
319.139	28.468	1946.097	1974.138
320.154	29.414	1947.205	1985.263
321.168	29.399	1944.834	1982.448
322.183	30.587	1947.168	1997.435
323.197	31.859	1948.846	2012.648
324.212	32.137	1946.526	2013.006
325.227	32.044	1945.037	2010.219
326.241	32.101	1943.979	2009.505
327.256	32.384	1942.716	2011.003
328.270	32.152	1940.850	2006.340
329.285	32.016	1940.664	2004.445
330.300	30.855	1935.039	1985.963
331.314	26.016	1923.242	1921.932
332.329	25.505	1923.609	1916.585
333.343	30.082	1932.615	1974.477
334.358	32.467	1934.598	2001.802
335.373	32.829	1934.316	2005.136
336.387	32.855	1932.154	2002.935
337.402	32.701	1929.701	1998.515
338.416	32.582	1927.969	1995.208
339.431	32.662	1926.533	1994.341
340.446	33.109	1925.611	1997.898
341.460	31.961	1919.566	1979.222
342.475	30.263	1913.717	1954.988
343.489	29.157	1910.896	1940.167
344.504	28.639	1909.403	1932.931
345.519	28.620	1906.900	1929.966
346.533	28.321	1904.535	1924.189
347.548	28.473	1903.593	1924.613
348.562	28.967	1903.915	1929.912
349.577	29.036	1902.988	1929.470
350.592	28.683	1900.443	1922.947
351.606	28.608	1898.432	1919.895
352.621	28.482	1897.007	1916.900
353.635	29.791	1900.402	1933.871
354.650	31.107	1900.628	1947.692
355.665	31.376	1900.220	1949.859
356.679	31.764	1900.297	1953.773
357.694	32.425	1899.505	1959.648
358.708	32.738	1898.822	1961.974
359.723	31.364	1891.815	1940.175
360.738	26.524	1879.774	1877.268
361.752	26.788	1883.977	1884.000
362.767	31.269	1891.768	1938.442
363.781	32.701	1891.145	1952.487
364.796	32.860	1891.093	1953.862
365.810	32.769	1889.987	1951.534
366.825	32.931	1889.369	1952.351
367.840	33.227	1887.795	1953.561
368.854	32.749	1885.639	1946.141
369.869	31.158	1880.004	1923.626
370.883	29.753	1875.104	1903.846
371.898	28.829	1871.879	1890.793
372.913	28.802	1871.023	1889.426
373.927	28.832	1869.377	1887.851
374.942	28.944	1867.672	1887.053
375.956	28.851	1865.753	1883.936
376.971	28.440	1862.600	1876.294
377.986	27.824	1859.921	1867.044
379.000	28.639	1862.168	1877.457
380.015	30.969	1865.989	1905.058
381.029	32.285	1866.930	1919.301
382.044	32.680	1866.458	1922.633
383.059	33.080	1864.795	1924.788
384.073	32.475	1862.733	1916.240
385.088	31.725	1859.353	1904.871
386.102	31.576	1857.593	1901.317
387.117	31.494	1855.371	1897.985
388.132	31.564	1855.613	1898.719
389.146	30.421	1851.409	1882.549
390.161	26.169	1839.872	1827.435
391.175	25.727	1839.324	1822.179
392.190	29.810	1844.155	1868.305
393.205	31.175	1845.561	1883.354
394.219	31.753	1844.795	1888.206
395.234	32.015	1844.145	1889.967
396.248	31.971	1842.460	1887.573
397.263	31.950	1840.453	1885.077
398.278	31.727	1837.844	1879.925
399.292	31.571	1838.392	1878.687
400.307	32.228	1838.962	1885.678
401.321	32.001	1835.297	1879.412
402.336	29.872	1827.046	1849.377
403.350	28.024	1822.994	1826.512
404.365	28.579	1823.032	1831.899
405.380	29.014	1821.431	1834.432
406.394	27.921	1818.769	1820.591
407.409	27.478	1816.313	1813.482
408.423	27.570	1815.582	1813.454
409.438	27.967	1814.137	1815.762
410.453	29.073	1816.559	1829.017
411.467	30.561	1819.518	1846.655
412.482	31.740	1819.841	1858.522
413.496	32.151	1820.114	1862.676
414.511	32.119	1818.519	1860.500
415.526	32.125	1816.766	1858.544
416.540	32.501	1815.216	1860.477
417.555	32.477	1814.783	1859.572
418.569	32.163	1813.045	1854.449
419.584	32.073	1813.965	1854.276
420.599	32.121	1812.335	1852.867
421.613	31.972	1811.855	1850.676
422.628	32.265	1811.494	1852.987
423.642	32.913	1810.136	1857.794
424.657	32.766	1807.551	1853.458
425.672	31.831	1804.086	1840.469
426.686	32.545	1805.191	1848.416
427.701	33.302	1805.077	1855.544
428.715	33.438	1803.338	1854.875
429.730	33.581	1802.874	1855.577
430.745	33.726	1800.680	1854.524
431.759	32.577	1797.313	1839.564
432.774	30.231	1790.791	1809.696
433.788	27.376	1783.657	1774.339
434.803	26.218	1781.389	1760.529
435.818	26.357	1780.075	1760.382
436.832	26.487	1779.913	1761.287
437.847	25.678	1771.441	1744.805
438.861	15.096	1742.527	1614.121
439.876	3.020	1719.582	1476.614
440.890	0.535	1714.524	1448.153
441.905	0.319	1713.470	1445.006
442.920	0.324	1710.876	1442.691
443.934	0.129	1710.423	1440.265
444.949	0.180	1709.420	1439.736
445.963	0.193	1707.774	1438.305
446.978	0.215	1707.946	1438.484
447.993	0.219	1706.134	1436.828
449.007	0.165	1703.897	1434.256
450.022	0.296	1701.573	1433.374
451.036	0.369	1699.690	1432.322
452.051	0.875	1703.553	1440.242
453.066	9.658	1727.217	1544.989
454.080	21.662	1748.537	1680.309
455.095	24.806	1753.127	1714.861
456.109	25.239	1752.454	1718.163
457.124	25.195	1751.399	1716.506
458.139	25.271	1751.356	1716.980
459.153	25.221	1750.195	1715.162
460.168	25.299	1747.971	1713.526
461.182	25.470	1746.939	1713.947
462.197	25.578	1745.324	1713.189
463.212	25.959	1744.648	1715.968
464.226	26.091	1743.592	1715.991
465.241	25.944	1741.538	1712.361
466.255	25.821	1739.804	1709.269
467.270	25.565	1739.455	1706.280
468.285	25.939	1739.270	1709.461
469.299	26.175	1737.791	1710.057
470.314	26.196	1735.875	1708.167
471.328	26.080	1734.542	1705.547
472.343	26.241	1733.657	1706.003
473.358	26.206	1732.260	1704.090
474.372	26.031	1730.943	1700.926
475.387	26.178	1729.961	1701.149
476.401	26.049	1727.728	1697.534
477.416	25.610	1725.838	1691.329
478.430	25.314	1724.673	1687.190
479.445	25.766	1724.372	1690.953
480.460	26.308	1723.367	1694.878
481.474	26.196	1722.823	1693.083
482.489	26.061	1720.345	1689.181
483.503	25.581	1717.664	1681.829
484.518	25.430	1716.280	1678.860
485.533	25.309	1714.877	1676.153
486.547	25.130	1712.146	1671.599
487.562	24.299	1710.256	1661.774
488.576	24.622	1709.080	1663.455
489.591	25.056	1708.245	1666.500
490.606	25.398	1708.291	1669.541
491.620	25.724	1705.767	1669.920
492.635	25.204	1703.277	1662.438
493.649	24.789	1701.794	1656.933
494.664	25.322	1702.845	1662.716
495.679	26.206	1702.654	1670.552
496.693	26.075	1701.347	1667.854
497.708	25.904	1698.827	1663.600
498.722	25.384	1696.332	1656.143
499.737	25.367	1695.210	1654.689
500.752	25.576	1695.436	1656.642
501.766	25.889	1693.827	1657.774
502.781	25.745	1691.948	1654.400
503.795	25.829	1690.904	1653.963
504.810	25.711	1689.361	1651.166
505.825	25.430	1687.973	1647.019
506.839	25.406	1686.922	1645.578
507.854	25.467	1685.075	1644.143
508.868	25.156	1683.797	1639.840
509.883	24.902	1682.082	1635.635
510.898	24.737	1680.227	1632.122
511.912	24.887	1678.511	1631.642
512.927	25.117	1676.876	1631.961
513.941	24.862	1675.820	1628.406
514.956	24.997	1675.412	1629.047
515.971	24.868	1672.949	1625.275
516.985	24.596	1672.185	1621.860
518.000	24.663	1670.994	1621.125
519.014	24.435	1669.570	1617.472
520.029	24.224	1668.244	1614.068
521.043	24.506	1667.069	1615.302
522.058	24.866	1665.815	1617.166
523.073	24.926	1664.492	1616.237
524.087	24.268	1663.074	1608.697
525.102	24.397	1661.464	1608.118
526.116	25.255	1662.570	1616.771
527.131	25.627	1661.814	1619.206
528.146	24.992	1660.210	1611.710
529.160	24.728	1658.009	1606.994
530.175	24.742	1656.885	1605.837
531.189	24.586	1656.190	1603.565
532.204	24.523	1654.571	1601.241
533.219	25.005	1653.859	1604.696
534.233	25.584	1653.565	1609.427
535.248	25.161	1651.662	1603.581
536.262	24.266	1649.157	1592.922
537.277	24.285	1647.666	1591.465
538.292	24.610	1646.224	1592.795
539.306	24.601	1644.292	1590.657
540.321	24.297	1642.741	1586.244
541.335	24.153	1641.162	1583.246
542.350	24.301	1639.647	1582.915
543.365	24.432	1638.071	1582.372
544.379	24.262	1637.118	1579.746
545.394	23.999	1636.101	1576.237
546.408	24.493	1636.834	1581.150
547.423	25.376	1637.075	1589.047
548.438	25.674	1636.221	1590.685
549.452	25.139	1633.963	1583.546
550.467	25.127	1632.334	1581.670
551.481	25.032	1630.932	1579.283
552.496	24.625	1629.192	1573.803
553.511	24.111	1627.514	1567.452
554.525	24.194	1625.860	1566.401
555.540	24.156	1624.900	1564.957
556.554	24.113	1623.519	1563.060
557.569	24.085	1622.859	1561.986
558.583	24.337	1621.303	1562.526
559.598	24.289	1620.907	1561.531
560.613	24.288	1619.700	1560.176
561.627	24.134	1616.924	1555.965
562.642	23.924	1614.658	1551.753
563.656	23.477	1612.497	1545.577
564.671	23.427	1611.310	1543.818
565.686	23.322	1611.081	1542.494
566.700	23.685	1610.231	1544.667
567.715	23.891	1608.320	1544.449
568.729	23.786	1608.056	1543.092
569.744	24.032	1606.008	1543.090
570.759	23.830	1604.219	1539.429
571.773	23.949	1602.774	1538.889
572.788	23.791	1601.481	1536.096
573.802	23.655	1600.998	1534.267
574.817	23.551	1598.002	1530.309
575.832	23.170	1596.825	1525.699
576.846	23.452	1597.285	1528.393
577.861	23.997	1595.342	1531.065
578.875	24.042	1594.604	1530.566
579.890	23.729	1592.802	1525.954
580.905	23.794	1592.094	1525.651
581.919	23.660	1591.858	1524.086
582.934	23.542	1590.549	1521.636
583.948	23.479	1588.747	1519.188
584.963	23.621	1587.691	1519.213
585.978	23.999	1587.552	1522.151
586.992	23.793	1586.022	1518.735
588.007	23.234	1585.498	1513.246
589.021	23.473	1583.803	1513.499
590.036	23.608	1581.753	1512.513
591.051	23.504	1580.860	1510.590
592.065	23.399	1578.802	1507.547
593.080	23.256	1577.070	1504.493
594.094	23.440	1575.488	1504.366
595.109	24.004	1575.606	1509.115
596.123	24.648	1574.524	1513.376
597.138	24.414	1573.517	1510.241
598.153	23.929	1571.496	1503.998
599.167	23.847	1569.859	1501.557
600.182	23.794	1569.035	1500.136
601.196	23.600	1568.602	1497.893
602.211	23.847	1566.614	1497.908
603.226	23.606	1564.735	1493.895
604.240	23.431	1563.736	1491.282
605.255	23.242	1562.231	1488.072
606.269	23.281	1561.798	1487.810
607.284	23.431	1559.874	1487.066
608.299	23.454	1558.798	1486.054
609.313	23.634	1557.437	1486.098
610.328	23.435	1556.336	1483.197
611.342	23.356	1554.653	1480.752
612.357	23.151	1553.541	1477.792
613.372	23.068	1552.871	1476.283
614.386	23.059	1551.473	1474.704
615.401	23.044	1549.888	1472.893
616.415	22.914	1548.984	1470.768
617.430	22.936	1547.775	1469.624
618.445	22.707	1547.366	1467.148
619.459	22.787	1546.644	1466.954
620.474	23.085	1545.764	1468.432
621.488	23.451	1545.129	1470.710
622.503	23.729	1543.820	1471.605
623.518	23.316	1541.564	1465.840
624.532	22.798	1539.899	1459.775
625.547	22.799	1537.999	1457.810
626.561	22.510	1537.254	1454.534
627.576	22.409	1537.038	1453.316
628.591	22.867	1535.923	1455.879
629.605	23.024	1535.263	1456.384
630.620	22.976	1534.643	1455.226
631.634	23.430	1532.749	1457.006
632.649	23.361	1532.249	1455.784
633.663	22.964	1530.807	1450.967
634.678	22.656	1528.857	1446.406
635.693	22.453	1526.236	1442.079
636.707	22.416	1524.642	1440.100
637.722	22.363	1523.258	1438.183
638.736	22.570	1522.237	1438.747
639.751	22.715	1521.556	1439.120
640.766	22.895	1520.519	1439.438
641.780	22.721	1518.804	1436.222
642.795	22.756	1519.293	1436.798
643.809	22.809	1517.983	1435.817
644.824	23.049	1516.601	1436.300
645.839	23.178	1516.049	1436.663
646.853	23.090	1514.254	1434.069
647.868	22.888	1513.489	1431.524
648.882	23.034	1512.727	1431.822
649.897	23.012	1511.161	1429.993
650.912	22.811	1509.967	1427.059
651.926	22.803	1508.068	1425.029
652.941	22.908	1507.305	1424.984
653.955	22.936	1505.673	1423.497
654.970	23.102	1504.485	1423.551
655.985	23.013	1502.791	1421.058
656.999	22.799	1501.820	1418.243
658.014	22.780	1499.907	1416.107
659.028	22.657	1498.730	1413.839
660.043	22.864	1498.405	1415.033
661.058	22.686	1497.250	1412.338
662.072	22.783	1496.076	1411.842
663.087	22.904	1495.673	1412.264
664.101	23.079	1494.905	1412.774
665.116	22.792	1492.969	1408.476
666.131	22.780	1491.878	1407.183
667.145	22.811	1490.561	1406.022
668.160	22.752	1488.890	1403.807
669.174	22.529	1487.264	1400.319
670.189	22.534	1486.662	1399.622
671.204	22.786	1485.451	1400.328
672.218	22.708	1484.858	1398.982
673.233	22.613	1484.213	1397.450
674.247	22.567	1481.848	1394.686
675.262	22.304	1480.773	1391.418
676.276	22.510	1479.490	1391.683
677.291	22.567	1479.544	1392.020
678.306	22.960	1478.492	1393.983
679.320	22.844	1477.632	1392.083
680.335	22.330	1476.604	1386.879
681.349	22.354	1475.940	1386.279
682.364	22.453	1474.611	1385.646
683.379	22.571	1472.418	1384.350
684.393	22.365	1471.440	1381.638
685.408	22.290	1470.083	1379.611
686.422	22.278	1469.118	1378.446
687.437	22.093	1468.689	1376.417
688.452	22.065	1467.128	1374.575
689.466	22.039	1465.589	1372.761
690.481	22.074	1464.811	1372.141
691.495	22.291	1464.898	1373.764
692.510	22.694	1464.255	1376.161
693.525	23.158	1462.712	1378.174
694.539	22.661	1460.899	1372.416
695.554	22.195	1459.571	1367.358
696.568	22.091	1458.271	1365.167
697.583	21.976	1457.019	1362.938
698.598	21.998	1456.434	1362.396
699.612	22.022	1455.217	1361.285
700.627	22.120	1453.572	1360.342
701.641	22.325	1452.932	1361.174
702.656	22.233	1451.687	1359.133
703.671	22.118	1450.893	1357.329
704.685	22.153	1451.153	1357.686
705.700	22.361	1449.068	1357.181
706.714	22.436	1447.602	1356.231
707.729	22.481	1446.924	1355.782
708.744	22.396	1445.261	1353.401
709.758	22.296	1444.156	1351.434
710.773	22.333	1443.278	1350.733
711.787	22.510	1442.203	1350.930
712.802	22.465	1440.903	1349.209
713.816	22.461	1439.929	1348.105
714.831	22.549	1438.383	1347.172
715.846	22.246	1437.254	1343.621
716.860	22.238	1435.160	1341.441
717.875	22.291	1434.753	1341.309
718.889	22.405	1433.775	1341.111
719.904	22.252	1432.522	1338.608
720.919	22.191	1431.239	1336.782
721.933	22.093	1430.602	1335.274
722.948	22.127	1429.465	1334.316
723.962	22.068	1428.186	1332.512
724.977	22.074	1426.319	1330.659
725.992	22.003	1425.616	1329.301
727.006	22.236	1424.397	1329.774
728.021	22.065	1423.228	1327.228
729.035	21.961	1422.327	1325.441
730.050	22.000	1421.630	1324.925
731.065	22.101	1420.665	1324.633
732.079	21.939	1419.501	1322.160
733.094	21.986	1418.891	1321.789
734.108	22.356	1416.788	1322.471
735.123	22.267	1415.020	1319.992
736.138	22.099	1414.813	1318.374
737.152	22.093	1413.477	1316.922
738.167	21.984	1411.963	1314.532
739.181	22.128	1410.221	1313.839
740.196	22.030	1409.827	1312.577
741.211	22.055	1409.607	1312.404
742.225	22.115	1408.115	1311.309
743.240	21.956	1407.234	1309.141
744.254	21.850	1405.684	1306.742
745.269	21.763	1404.917	1305.223
746.284	21.725	1404.089	1304.012
747.298	21.825	1403.215	1303.793
748.313	22.081	1402.049	1304.467
749.327	22.386	1402.228	1306.755
750.342	22.648	1402.548	1308.848
751.356	23.107	1400.616	1310.312
752.371	22.817	1399.122	1306.598
753.386	22.215	1397.598	1300.540
754.400	21.915	1395.964	1296.639
755.415	22.030	1394.201	1295.702
756.429	22.005	1393.071	1294.306
757.444	21.946	1392.304	1293.001
758.459	21.797	1391.786	1291.265
759.473	21.765	1390.377	1289.566
760.488	21.826	1388.840	1288.436
761.502	21.776	1387.787	1286.937
762.517	21.859	1386.718	1286.406
763.532	22.116	1385.976	1287.455
764.546	21.939	1385.242	1285.317
765.561	22.163	1384.852	1286.451
766.575	22.440	1383.985	1287.523
767.590	22.396	1383.021	1286.153
768.605	22.247	1381.121	1283.137
769.619	22.294	1378.802	1281.177
770.634	22.121	1377.869	1278.887
771.648	21.816	1376.728	1275.445
772.663	21.640	1376.448	1273.748
773.678	21.680	1376.181	1273.643
774.692	21.819	1374.626	1273.062
775.707	21.824	1374.359	1272.698
776.721	21.870	1372.878	1271.513
777.736	21.763	1371.131	1268.962
778.751	21.868	1370.293	1268.796
779.765	21.811	1369.749	1267.728
780.780	21.796	1369.106	1266.875
781.794	21.737	1368.543	1265.774
782.809	21.605	1366.985	1263.221
783.824	21.736	1365.758	1262.888
784.838	21.918	1365.142	1263.482
785.853	22.189	1365.021	1265.177
786.867	22.241	1364.214	1264.657
787.882	21.955	1362.709	1261.045
788.897	21.714	1362.051	1258.544
789.911	21.664	1360.620	1256.710
790.926	21.517	1359.398	1254.370
791.940	21.479	1357.695	1252.379
792.955	21.486	1356.365	1251.049
793.969	21.533	1354.924	1249.909
794.984	21.668	1353.843	1249.735
795.999	21.749	1352.546	1248.966
797.013	21.773	1351.198	1247.743
798.028	21.751	1350.161	1246.477
799.042	21.774	1349.567	1245.945
800.057	21.828	1348.262	1244.975
801.072	21.680	1346.854	1242.472
802.086	21.510	1345.509	1239.875
803.101	21.569	1344.574	1239.283
804.115	21.707	1343.943	1239.537
805.130	21.621	1343.083	1237.980
806.145	21.636	1342.148	1237.076
807.159	21.626	1340.045	1234.920
808.174	21.788	1339.345	1235.274
809.188	21.829	1338.543	1234.678
810.203	22.027	1337.115	1234.609
811.218	21.977	1336.204	1233.272
812.232	22.122	1334.886	1232.926
813.247	22.054	1333.615	1231.125
814.261	21.995	1333.007	1230.006
815.276	21.807	1332.017	1227.617
816.291	21.737	1330.914	1225.968
817.305	21.603	1329.358	1223.442
818.320	21.602	1327.739	1221.798
819.334	21.776	1326.428	1221.669
820.349	21.549	1325.077	1218.686
821.364	21.639	1323.426	1217.650
822.378	21.674	1321.966	1216.408
823.393	21.569	1320.432	1214.119
824.407	21.598	1319.801	1213.594
825.422	21.508	1319.938	1212.949
826.437	21.435	1318.886	1211.327
827.451	21.634	1316.716	1210.573
828.466	21.882	1316.893	1212.315
829.480	22.002	1315.294	1211.530
830.495	21.926	1312.848	1208.602
831.509	21.700	1311.570	1205.720
832.524	21.394	1310.850	1202.802
833.539	21.443	1309.621	1201.864
834.553	21.528	1308.153	1200.959
835.568	21.568	1307.001	1200.034
836.582	21.391	1306.434	1198.154
837.597	21.663	1304.610	1198.207
838.612	21.690	1303.113	1196.872
839.626	21.745	1301.916	1196.006
840.641	21.668	1301.887	1195.309
841.655	21.847	1301.744	1196.264
842.670	22.081	1301.163	1197.191
843.685	22.287	1300.109	1197.488
844.699	22.229	1298.183	1195.176
845.714	21.788	1296.772	1190.724
846.728	21.666	1296.111	1189.141
847.743	21.606	1294.548	1187.153
848.758	21.541	1292.642	1184.822
849.772	21.539	1291.722	1183.821
850.787	21.378	1290.449	1181.418
851.801	21.554	1288.648	1180.824
852.816	21.492	1287.261	1178.994
853.831	21.612	1286.171	1178.667
854.845	21.718	1284.342	1177.562
855.860	21.426	1282.879	1174.112
856.874	21.529	1282.333	1174.162
857.889	21.760	1281.466	1174.786
858.904	21.979	1280.583	1175.314
859.918	22.231	1279.205	1175.603
860.933	22.355	1277.642	1174.853
861.947	22.061	1277.012	1172.163
862.962	21.930	1275.230	1169.513
863.977	21.676	1273.902	1166.451
864.991	21.490	1272.688	1163.954
866.006	21.510	1272.340	1163.633
867.020	21.443	1271.118	1161.931
868.035	21.445	1270.138	1160.908
869.049	21.498	1269.266	1160.326
870.064	21.514	1268.308	1159.415
871.079	21.543	1267.487	1158.719
872.093	21.496	1267.233	1158.034
873.108	21.650	1265.890	1157.695
874.122	21.786	1264.551	1157.235
875.137	21.956	1264.255	1157.948
876.152	22.106	1263.831	1158.417
877.166	22.055	1261.801	1156.081
878.181	21.843	1260.252	1153.122
879.195	21.694	1259.831	1151.618
880.210	21.613	1259.076	1150.251
881.225	21.625	1257.577	1148.824
882.239	21.539	1256.462	1147.099
883.254	21.701	1255.081	1146.768
884.268	21.654	1254.268	1145.584
885.283	21.530	1253.143	1143.599
886.298	21.500	1251.946	1142.175
887.312	21.485	1251.363	1141.412
888.327	21.592	1250.192	1140.902
889.341	21.581	1248.640	1139.278
890.356	21.541	1248.032	1138.324
891.371	21.513	1248.201	1138.159
892.385	21.476	1247.208	1136.881
893.400	21.675	1245.383	1136.377
894.414	21.677	1244.542	1135.487
895.429	21.921	1243.832	1136.290
896.444	22.539	1242.816	1139.246
897.458	22.766	1242.203	1140.024
898.473	22.382	1241.504	1136.752
899.487	21.788	1239.892	1131.290
900.502	21.718	1237.831	1128.818
901.517	21.743	1235.905	1127.091
902.531	21.579	1235.182	1125.236
903.546	21.609	1234.744	1124.896
904.560	21.512	1234.203	1123.642
905.575	21.824	1233.179	1124.584
906.589	21.699	1232.472	1122.999
907.604	21.585	1232.111	1121.805
