DTS Sentinel unit serial number:	SN409020Multiplexer serial number:	ORYXHardware model number:	OX4-SRSoftware version number:	ORYX F/W v3.00 Oryx Data Collector v3.7.2.0data status	okinstallation	HaddamTimeLapsedifferential loss correction	single-endedforward channel	channel 3reverse channel	N/Adate	2011/06/22time	00:11:17forward acquisition time	30.00reverse acquisition time	0.00gamma	498.7831k internal	0.1752k external	0.1752temperature offset calibration	1.0074default loss term (dB/km)	0.3790temperature slope calibration	1.3530multiplexer offset coefficient	1.0000multiplexer slope coefficient	1.0000fibre end	0.00T internal ref (°C)	22.81T ext. ref 1 (°C)	18.09T ext. ref 2 (°C)	0.05length (m)	temperature (°C)	Stokes	anti-Stokes-747.200	133.873	-0.054	-0.093
-746.185	-62.132	-0.780	0.431
-745.171	-200.000	-0.025	-0.258
-744.156	410.915	0.091	0.258
-743.142	-74.787	0.360	-0.171
-742.127	-33.954	-0.249	0.182
-741.112	72.569	0.125	-0.173
-740.098	30.122	0.223	0.253
-739.083	11.329	-0.152	0.155
-738.069	1.297	0.080	-0.076
-737.054	-200.000	-0.046	0.274
-736.039	-200.000	0.039	-0.448
-735.025	-193.484	0.071	-0.001
-734.010	45.616	0.183	-0.225
-732.996	800.000	-0.050	-0.277
-731.981	-92.835	0.290	0.107
-730.966	177.869	0.250	-0.485
-729.952	-22.041	0.233	0.188
-728.937	10.890	-0.666	0.675
-727.923	800.000	-0.048	-0.189
-726.908	800.000	-0.075	-0.306
-725.894	-200.000	-0.014	-0.299
-724.879	6.796	0.119	0.117
-723.864	-200.000	-0.001	0.056
-722.850	-200.000	-0.021	0.422
-721.835	800.000	-0.063	0.301
-720.821	471.815	-0.118	-0.356
-719.806	-81.101	-0.131	0.057
-718.791	71.725	-0.352	-0.485
-717.777	-41.569	-0.026	0.018
-716.762	-86.656	0.283	0.114
-715.748	-196.133	-0.135	0.001
-714.733	-158.172	-0.844	0.065
-713.718	-117.445	-0.566	-0.135
-712.704	394.184	-0.054	-0.149
-711.689	800.000	0.078	-0.380
-710.675	800.000	0.064	-0.273
-709.660	-64.762	0.447	-0.239
-708.645	167.480	0.157	0.297
-707.631	-50.606	0.172	0.107
-706.616	258.336	-0.104	0.238
-705.602	510.893	-0.084	-0.260
-704.587	-125.013	0.229	0.046
-703.572	-200.000	0.007	0.293
-702.558	-122.286	0.240	0.052
-701.543	-72.189	0.561	-0.275
-700.529	201.663	-0.095	-0.194
-699.514	196.415	-0.171	0.346
-698.499	424.780	0.065	-0.186
-697.485	-77.089	0.339	0.156
-696.470	-134.552	0.211	-0.034
-695.456	-79.891	0.300	0.133
-694.441	-88.359	-0.389	-0.153
-693.426	-123.698	0.137	0.029
-692.412	-46.711	0.390	0.252
-691.397	-127.605	0.240	0.046
-690.383	114.302	0.217	-0.350
-689.368	-93.724	0.332	0.120
-688.354	143.857	-0.223	0.394
-687.339	-149.138	-0.255	0.027
-686.324	-3.622	0.011	0.010
-685.310	-116.431	0.114	0.028
-684.295	-80.848	0.207	-0.090
-683.281	104.423	-0.216	0.337
-682.266	-30.847	-0.444	0.331
-681.251	-136.696	-0.420	-0.064
-680.237	237.434	0.135	0.298
-679.222	47.120	0.486	0.599
-678.208	800.000	0.135	0.495
-677.193	-137.517	-0.128	-0.019
-676.178	-170.487	-0.403	0.018
-675.164	-200.000	-0.066	-0.440
-674.149	-22.292	0.072	0.058
-673.135	-41.845	0.194	0.131
-672.120	436.408	-0.093	-0.270
-671.105	-20.924	-0.295	0.239
-670.091	-98.586	-0.129	0.043
-669.076	-200.000	-0.028	0.256
-668.062	800.000	0.021	0.100
-667.047	452.767	-0.188	-0.553
-666.032	-200.000	-0.042	0.346
-665.018	65.224	-0.320	-0.429
-664.003	191.197	0.172	-0.344
-662.989	333.548	-0.125	-0.322
-661.974	512.594	0.116	-0.359
-660.959	-12.907	0.521	-0.448
-659.945	-200.000	0.002	-0.068
-658.930	-27.038	-0.012	-0.009
-657.916	-25.638	0.570	0.444
-656.901	9.416	0.239	-0.239
-655.886	44.107	-0.209	0.254
-654.872	-158.909	-0.407	-0.030
-653.857	-66.082	0.058	-0.030
-652.843	69.060	0.402	-0.547
-651.828	-1.216	-0.177	0.166
-650.814	-200.000	0.026	0.271
-649.799	-51.450	-0.105	0.065
-648.784	290.809	0.126	0.304
-647.770	68.578	0.152	0.207
-646.755	-152.964	-0.210	-0.019
-645.741	-200.000	0.017	0.116
-644.726	203.395	0.049	-0.101
-643.711	555.827	0.107	-0.343
-642.697	-69.180	0.083	-0.042
-641.682	-200.000	-0.006	-0.301
-640.668	12.195	-0.398	-0.405
-639.653	-147.468	0.568	-0.063
-638.638	-117.957	-0.337	0.079
-637.624	-179.187	0.329	-0.010
-636.609	157.783	0.062	0.114
-635.595	151.284	0.068	-0.123
-634.580	-31.882	-0.484	-0.358
-633.565	182.374	-0.075	0.146
-632.551	92.351	0.105	0.157
-631.536	-158.220	0.007	0.001
-630.522	-125.785	0.392	-0.078
-629.507	800.000	-0.089	-0.417
-628.492	118.685	-0.173	-0.282
-627.478	-193.553	-0.220	-0.002
-626.463	436.842	0.195	-0.564
-625.449	13.689	-0.129	-0.132
-624.434	-32.664	0.366	-0.268
-623.419	-176.316	-0.204	-0.007
-622.405	-39.065	-0.352	0.244
-621.390	290.130	-0.012	-0.029
-620.376	-92.648	0.117	-0.043
-619.361	45.812	0.177	-0.217
-618.346	-173.442	-0.602	0.024
-617.332	800.000	-0.042	-0.156
-616.317	-200.000	-0.012	-0.159
-615.303	81.490	0.099	-0.142
-614.288	-65.862	0.278	-0.146
-613.273	-200.000	0.050	0.430
-612.259	-112.622	-0.253	-0.066
-611.244	-106.761	-0.149	-0.043
-610.230	-200.000	0.001	0.072
-609.215	448.832	0.083	-0.243
-608.201	-200.000	0.005	0.133
-607.186	49.128	0.152	-0.189
-606.171	-80.478	-0.361	0.158
-605.157	-200.000	-0.030	-0.275
-604.142	-16.828	-0.311	-0.259
-603.128	268.896	-0.086	-0.200
-602.113	-61.216	0.314	-0.174
-601.098	-125.231	-0.527	-0.106
-600.084	-24.040	0.186	-0.147
-599.069	-200.000	-0.020	-0.223
-598.055	88.581	-0.172	-0.252
-597.040	69.891	-0.102	0.139
-596.025	-200.000	-0.059	0.415
-595.011	-51.882	0.496	-0.303
-593.996	-125.321	-0.347	-0.069
-592.982	46.331	0.179	-0.219
-591.967	150.323	-0.163	-0.293
-590.952	-120.588	0.238	0.053
-589.938	-41.751	0.171	-0.116
-588.923	-109.068	-0.619	-0.173
-587.909	-108.072	0.244	0.069
-586.894	-78.699	-0.040	0.018
-585.879	261.953	-0.186	0.428
-584.865	-75.078	-0.242	0.114
-583.850	-79.326	-0.056	0.025
-582.836	-200.000	0.004	0.343
-581.821	800.000	-0.112	0.454
-580.806	233.828	0.014	0.030
-579.792	307.412	-0.096	0.238
-578.777	132.464	0.158	-0.270
-577.763	18.768	0.104	-0.109
-576.748	-39.483	-0.175	-0.121
-575.733	10.140	-0.251	-0.252
-574.719	800.000	-0.059	-0.263
-573.704	24.562	0.309	0.337
-572.690	34.343	-0.035	0.040
-571.675	-200.000	0.051	-0.314
-570.661	-165.433	-0.201	0.011
-569.646	-8.963	-0.153	-0.135
-568.631	-121.128	0.222	0.049
-567.617	15.727	0.148	0.154
-566.602	-45.301	-0.103	-0.067
-565.588	-94.302	0.158	0.057
-564.573	-28.992	-0.124	-0.093
-563.558	-118.450	-0.334	0.077
-562.544	-200.000	0.006	0.462
-561.529	-76.140	-0.274	-0.127
-560.515	-200.000	-0.059	-0.428
-559.500	-10.408	0.246	0.215
-558.485	800.000	-0.019	0.092
-557.471	-200.000	0.050	0.292
-556.456	-200.000	0.002	0.263
-555.442	-200.000	0.011	0.163
-554.427	-200.000	0.005	0.030
-553.412	36.800	0.190	-0.221
-552.398	800.000	0.005	-0.027
-551.383	177.385	-0.034	0.065
-550.369	-4.428	0.302	0.275
-549.354	161.058	-0.273	0.504
-548.339	-24.363	0.215	0.168
-547.325	-200.000	0.016	0.476
-546.310	-200.000	0.041	-0.392
-545.296	-117.871	-0.386	-0.091
-544.281	226.081	0.184	0.394
-543.266	63.269	-0.190	0.251
-542.252	305.392	-0.054	-0.132
-541.237	-200.000	0.064	-0.613
-540.223	-59.289	-0.830	-0.469
-539.208	468.793	0.024	0.073
-538.193	-55.800	0.346	-0.203
-537.179	-200.000	-0.090	0.672
-536.164	-145.705	0.219	-0.026
-535.150	561.273	-0.034	0.108
-534.135	-189.570	-0.455	0.007
-533.121	-66.169	-0.317	0.166
-532.106	-146.879	0.541	0.061
-531.091	-120.779	-0.376	0.083
-530.077	-94.397	-0.228	-0.081
-529.062	1.276	0.258	0.244
-528.048	-116.757	-0.258	0.062
-527.033	279.424	0.181	0.428
-526.018	81.485	-0.234	-0.334
-525.004	97.263	-0.162	-0.245
-523.989	-141.912	-0.538	0.070
-522.975	123.295	-0.040	0.066
-521.960	-129.952	0.490	-0.088
-520.945	-48.392	0.190	-0.120
-519.931	800.000	-0.083	-0.441
-518.916	-125.157	-0.199	0.040
-517.902	120.384	0.244	-0.399
-516.887	599.325	-0.053	-0.174
-515.872	-183.011	-0.092	-0.002
-514.858	758.686	-0.111	0.398
-513.843	-170.140	0.208	-0.010
-512.829	400.815	-0.053	0.147
-511.814	-197.434	-0.285	-0.002
-510.799	-123.983	-0.356	0.073
-509.785	-17.836	0.178	0.147
-508.770	-200.000	-0.020	-0.157
-507.756	36.572	-0.183	0.213
-506.741	-103.137	-0.305	0.094
-505.726	151.787	-0.268	0.481
-504.712	65.371	0.051	-0.067
-503.697	800.000	0.051	0.279
-502.683	800.000	0.065	-0.343
-501.668	11.908	0.140	0.141
-500.653	414.468	-0.234	-0.658
-499.639	-23.514	0.255	-0.201
-498.624	64.315	-0.234	-0.311
-497.610	-156.851	-0.161	0.013
-496.595	220.808	0.091	-0.193
-495.581	-80.852	-0.602	-0.261
-494.566	-48.808	-0.205	0.129
-493.551	-109.539	0.756	-0.208
-492.537	292.661	-0.119	0.287
-491.522	186.023	0.254	0.498
-490.508	-18.607	0.184	0.150
-489.493	49.899	-0.202	0.251
-488.478	-173.133	-0.405	-0.016
-487.464	-120.524	0.402	-0.089
-486.449	800.000	-0.010	0.057
-485.435	-81.066	-0.198	-0.086
-484.420	169.663	-0.238	0.449
-483.405	-66.129	-0.503	0.262
-482.391	800.000	0.073	0.302
-481.376	-76.793	0.113	-0.052
-480.362	-15.228	-0.278	-0.233
-479.347	-200.000	-0.014	0.100
-478.332	87.586	0.501	0.730
-477.318	-0.290	0.076	-0.071
-476.303	35.752	-0.283	-0.327
-475.289	-61.477	0.464	0.255
-474.274	-133.810	0.282	0.046
-473.259	8.050	-0.227	-0.224
-472.245	-171.351	0.581	0.025
-471.230	305.062	0.040	-0.097
-470.216	-200.000	-0.034	0.318
-469.201	4.023	-0.366	0.352
-468.186	48.206	-0.176	0.216
-467.172	800.000	0.042	-0.222
-466.157	-103.987	0.123	0.037
-465.143	223.664	-0.146	0.311
-464.128	340.248	-0.044	0.114
-463.113	536.245	-0.077	-0.242
-462.099	116.897	-0.093	-0.151
-461.084	-120.744	-0.528	0.116
-460.070	65.589	-0.149	-0.198
-459.055	-38.416	-0.333	0.231
-458.040	311.850	-0.105	-0.259
-457.026	-101.259	0.195	-0.062
-456.011	9.195	-0.172	-0.170
-454.997	516.946	-0.072	-0.223
-453.982	101.619	0.069	-0.106
-452.968	66.439	0.201	-0.268
-451.953	51.666	-0.310	-0.387
-450.938	-116.177	0.281	0.068
-449.924	-200.000	0.052	0.324
-448.909	-97.184	-0.299	0.102
-447.895	56.711	0.343	0.439
-446.880	-100.354	0.122	-0.040
-445.865	66.663	-0.152	-0.204
-444.851	320.273	-0.051	0.127
-443.836	64.390	0.302	0.399
-442.822	82.215	-0.075	-0.107
-441.807	22.150	0.075	-0.080
-440.792	-32.373	-0.320	-0.234
-439.778	-200.000	-0.392	0.000
-438.763	-79.779	-0.594	0.261
-437.749	136.019	0.191	-0.328
-436.734	24.091	-0.265	0.287
-435.719	-200.000	-0.049	0.294
-434.705	-117.016	0.136	-0.032
-433.690	-89.346	0.134	-0.051
-432.676	649.394	-0.075	0.253
-431.661	-14.263	-0.269	0.227
-430.646	-135.778	0.298	-0.046
-429.632	-127.108	-0.126	-0.024
-428.617	178.988	-0.156	-0.300
-427.603	-200.000	-0.020	0.167
-426.588	-115.746	-0.239	0.058
-425.573	397.366	-0.365	1.004
-424.559	-94.370	-0.565	0.201
-423.544	-39.058	-0.563	-0.387
-422.530	-12.560	-0.328	-0.280
-421.515	-45.941	0.344	0.222
-420.500	47.388	0.315	-0.385
-419.486	333.991	-0.149	-0.380
-418.471	52.544	-0.120	-0.150
-417.457	73.359	-0.377	-0.517
-416.442	681.639	0.101	-0.347
-415.428	-200.000	0.009	0.302
-414.413	-27.504	0.255	-0.194
-413.398	-17.318	-0.099	0.082
-412.384	-59.757	-0.323	0.181
-411.369	162.837	0.115	0.213
-410.355	-200.000	0.038	0.363
-409.340	-80.018	-0.187	-0.082
-408.325	348.820	-0.046	0.120
-407.311	-120.223	-0.154	-0.034
-406.296	-200.000	-0.041	-0.883
-405.282	-50.657	0.156	-0.096
-404.267	-61.093	0.336	-0.185
-403.252	-28.909	-0.222	-0.167
-402.238	-5.851	0.236	0.212
-401.223	-200.000	0.026	-0.429
-400.209	-80.411	-0.174	0.076
-399.194	48.675	-0.086	0.106
-398.179	-200.000	-0.002	0.164
-397.165	-76.687	-0.112	-0.051
-396.150	-161.443	0.133	-0.009
-395.136	-13.794	-0.128	0.108
-394.121	-200.000	-0.008	-0.074
-393.106	93.381	-0.238	-0.354
-392.092	-53.762	0.452	-0.269
-391.077	-62.850	0.168	-0.091
-390.063	800.000	0.118	0.585
-389.048	292.198	-0.158	0.378
-388.033	154.080	0.089	0.160
-387.019	108.535	0.141	0.221
-386.004	800.000	0.034	-0.155
-384.990	-134.249	-0.414	0.066
-383.975	-136.674	0.278	-0.042
-382.960	334.985	0.170	-0.433
-381.946	209.028	-0.039	0.081
-380.931	25.759	0.168	-0.183
-379.917	-83.384	0.156	-0.065
-378.902	-160.680	-0.342	0.023
-377.888	-25.900	-0.295	-0.227
-376.873	800.000	0.011	-0.057
-375.858	-163.147	-0.321	-0.020
-374.844	-144.110	0.849	0.103
-373.829	-196.345	-0.022	0.000
-372.815	-61.573	-0.243	-0.133
-371.800	-34.657	0.541	0.387
-370.785	-200.000	-0.049	-0.377
-369.771	-200.000	-0.001	-0.223
-368.756	-44.391	-0.294	0.192
-367.742	-84.081	-0.581	0.240
-366.727	-200.000	0.096	0.683
-365.712	245.088	0.049	-0.108
-364.698	101.948	0.137	-0.209
-363.683	114.704	0.373	-0.596
-362.669	-92.632	-0.417	-0.152
-361.654	207.857	0.103	-0.211
-360.639	-20.129	0.306	-0.246
-359.625	-200.000	0.002	-0.048
-358.610	-200.000	-0.006	0.391
-357.596	-166.651	-0.382	-0.020
-356.581	-200.000	0.017	0.148
-355.566	-75.042	0.264	0.123
-354.552	-123.528	0.697	0.144
-353.537	-66.766	0.356	0.184
-352.523	773.913	0.039	-0.139
-351.508	-200.000	0.021	0.402
-350.493	-3.200	0.129	-0.117
-349.479	114.958	-0.136	0.218
-348.464	800.000	0.035	-0.181
-347.450	290.792	-0.072	0.173
-346.435	-141.244	0.230	-0.030
-345.420	0.530	0.358	0.334
-344.406	-64.089	0.172	-0.091
-343.391	-92.670	-0.320	-0.117
-342.377	-80.323	-0.604	0.262
-341.362	-107.642	0.260	0.074
-340.348	-13.208	0.266	0.226
-339.333	-83.351	0.299	-0.125
-338.318	189.983	-0.156	-0.307
-337.304	-40.563	0.434	0.294
-336.289	800.000	0.011	-0.051
-335.275	108.501	0.157	0.245
-334.260	-140.109	-0.265	-0.036
-333.245	193.006	0.218	0.431
-332.231	-200.000	0.059	0.622
-331.216	241.419	0.252	0.553
-330.202	-70.705	0.282	0.139
-329.187	-200.000	0.006	-0.279
-328.172	-11.439	0.113	0.097
-327.158	49.795	0.088	-0.108
-326.143	254.338	0.262	-0.587
-325.129	-103.110	-0.210	-0.064
-324.114	-173.382	0.637	0.025
-323.099	-200.000	0.017	0.168
-322.085	800.000	-0.011	-0.059
-321.070	-135.032	-0.333	-0.052
-320.056	59.797	0.191	0.247
-319.041	529.015	-0.119	0.368
-318.026	-52.958	-0.233	-0.139
-317.012	210.325	0.050	0.102
-315.997	-103.846	0.049	-0.015
-314.983	110.603	0.183	0.288
-313.968	145.890	0.206	-0.361
-312.953	220.394	0.120	0.253
-311.939	-55.783	0.399	0.232
-310.924	51.226	0.288	-0.357
-309.910	800.000	0.115	-0.478
-308.895	247.053	0.056	-0.124
-307.880	-143.624	-0.150	0.018
-306.866	-112.543	0.370	0.096
-305.851	548.223	0.102	-0.320
-304.837	-63.118	0.220	0.118
-303.822	-95.245	-0.193	-0.067
-302.807	359.054	0.089	-0.234
-301.793	332.854	0.110	-0.278
-300.778	-121.051	0.321	-0.070
-299.764	-200.000	0.032	-0.532
-298.749	606.283	-0.164	-0.536
-297.735	244.660	0.101	0.221
-296.720	101.581	0.142	-0.216
-295.705	108.854	-0.241	-0.376
-294.691	148.752	-0.318	-0.562
-293.676	287.242	-0.118	-0.280
-292.662	-85.682	-0.351	-0.141
-291.647	690.376	-0.141	-0.486
-290.632	-54.742	0.250	0.147
-289.618	800.000	-0.063	0.351
-288.603	-194.328	-0.307	0.003
-287.589	16.563	0.234	-0.241
-286.574	197.917	-0.147	-0.293
-285.559	-103.664	-0.332	-0.101
-284.545	800.000	0.049	0.250
-283.530	-200.000	0.071	-0.541
-282.516	-65.409	-0.097	-0.051
-281.501	68.589	0.181	-0.242
-280.486	-34.640	-0.449	0.320
-279.472	-19.208	0.368	0.297
-278.457	119.388	-0.100	-0.161
-277.443	-141.262	0.590	0.077
-276.428	-124.415	-0.363	0.073
-275.413	-67.316	0.275	0.140
-274.399	20.186	0.201	-0.211
-273.384	0.984	0.094	-0.088
-272.370	-66.025	0.357	-0.185
-271.355	-79.283	-0.192	0.084
-270.340	432.056	0.251	0.714
-269.326	800.000	-0.062	0.228
-268.311	-95.917	-0.458	0.158
-267.297	-97.945	0.558	-0.187
-266.282	-76.499	-0.240	0.110
-265.267	-14.162	0.251	0.211
-264.253	49.858	0.262	-0.323
-263.238	-127.765	-0.182	-0.034
-262.224	-26.849	0.175	0.133
-261.209	-32.288	-0.288	0.209
-260.195	-200.000	-0.014	0.542
-259.180	173.030	0.200	0.376
-258.165	-86.884	-0.419	-0.166
-257.151	43.916	0.108	-0.129
-256.136	156.791	-0.158	0.285
-255.122	-200.000	-0.011	0.068
-254.107	-169.534	-0.296	-0.014
-253.092	-91.010	0.438	-0.163
-252.078	15.470	-0.226	-0.231
-251.063	104.058	0.313	0.479
-250.049	203.336	-0.155	-0.313
-249.034	-200.000	-0.074	0.536
-248.019	-110.441	-0.205	0.055
-247.005	-132.935	0.203	0.033
-245.990	-127.637	-0.083	-0.015
-244.976	-82.800	-0.053	-0.022
-243.961	-200.000	0.019	0.210
-242.946	-79.596	0.261	0.114
-241.932	-200.000	0.003	-0.186
-240.917	62.195	0.377	0.490
-239.903	228.429	-0.184	-0.392
-238.888	-188.512	0.471	0.007
-237.873	-200.000	-0.049	0.284
-236.859	-196.736	-0.364	-0.003
-235.844	-13.651	0.445	0.374
-234.830	86.348	0.054	0.077
-233.815	23.474	0.201	0.215
-232.800	-100.022	0.166	-0.053
-231.786	25.937	-0.209	0.227
-230.771	64.943	0.260	0.342
-229.757	-200.000	0.006	0.487
-228.742	-105.355	0.224	-0.066
-227.727	-82.223	-0.250	-0.106
-226.713	-90.741	0.535	-0.200
-225.698	-16.975	-0.373	-0.306
-224.684	769.710	0.105	0.375
-223.669	-13.627	0.112	0.095
-222.655	800.000	-0.014	-0.072
-221.640	399.100	-0.067	0.184
-220.625	-87.584	0.063	0.024
-219.611	800.000	-0.071	-0.284
-218.596	-92.262	-0.218	0.080
-217.582	648.155	0.052	0.175
-216.567	29.077	-0.397	-0.438
-215.552	74.022	-0.295	-0.403
-214.538	245.731	-0.227	-0.498
-213.523	82.364	0.021	-0.029
-212.509	48.861	0.413	-0.504
-211.494	-110.684	0.567	0.151
-210.479	-80.533	-0.657	-0.283
-209.465	-152.167	-0.302	-0.028
-208.450	135.261	0.130	0.219
-207.436	-174.035	-0.251	0.009
-206.421	31.155	0.417	0.465
-205.406	3.733	0.333	-0.316
-204.392	-96.487	0.349	-0.119
-203.377	-200.000	-0.024	0.533
-202.363	18.586	-0.148	-0.154
-201.348	-200.000	0.008	-0.071
-200.333	128.625	0.067	0.111
-199.319	-39.735	-0.082	-0.056
-198.304	-200.000	0.031	-0.367
-197.290	117.189	-0.097	0.155
-196.275	-16.298	-0.166	-0.137
-195.260	82.440	0.283	0.399
-194.246	46.537	-0.241	0.291
-193.231	46.730	0.247	-0.298
-192.217	800.000	0.190	-0.700
-191.202	-125.240	0.393	0.077
-190.187	-105.959	-0.226	-0.066
-189.173	-96.516	0.377	0.129
-188.158	-40.832	0.382	0.256
-187.144	383.864	0.179	-0.482
-186.129	61.526	-0.041	-0.053
-185.114	-105.558	0.432	-0.126
-184.100	-200.000	-0.048	0.342
-183.085	-50.696	-0.017	-0.010
-182.071	-144.466	0.272	0.032
-181.056	-87.603	0.157	0.061
-180.042	-97.975	0.372	0.124
-179.027	-3.843	0.133	0.120
-178.012	75.515	-0.414	0.569
-176.998	800.000	-0.106	0.487
-175.983	14.108	0.230	-0.232
-174.969	322.914	0.080	0.198
-173.954	154.718	0.045	0.080
-172.939	-130.999	-0.562	0.097
-171.925	-64.851	-0.203	0.106
-170.910	800.000	0.151	-0.604
-169.896	24.774	-0.179	0.193
-168.881	263.260	0.119	0.270
-167.866	800.000	0.055	0.212
-166.852	800.000	0.012	0.059
-165.837	-82.401	-0.359	-0.151
-164.823	800.000	0.046	0.200
-163.808	154.995	0.319	-0.570
-162.793	800.000	-0.037	0.177
-161.779	-102.700	-0.154	-0.047
-160.764	117.107	0.153	0.244
-159.750	-63.212	-0.330	-0.176
-158.735	140.016	0.059	-0.101
-157.720	-144.866	0.730	-0.086
-156.706	-175.961	-0.345	-0.012
-155.691	800.000	-0.025	-0.095
-154.677	-118.691	0.669	-0.152
-153.662	-200.000	-0.039	-0.353
-152.647	91.848	-0.125	0.182
-151.633	158.625	0.058	0.105
-150.618	-200.000	0.041	0.292
-149.604	-200.000	-0.022	-0.307
-148.589	-69.785	0.138	0.068
-147.574	-19.913	-0.473	0.379
-146.560	-24.516	0.151	0.117
-145.545	732.208	-0.126	-0.439
-144.531	71.208	0.367	0.494
-143.516	-9.636	0.183	-0.158
-142.502	-62.276	-0.179	0.096
-141.487	-107.201	-0.360	0.102
-140.472	572.681	-0.081	0.257
-139.458	-62.952	-0.311	-0.166
-138.443	-133.287	-0.501	0.081
-137.429	635.543	0.032	0.107
-136.414	32.977	-0.203	0.228
-135.399	-72.414	-0.320	0.153
-134.385	33.512	-0.229	-0.258
-133.370	-153.249	0.091	0.008
-132.356	137.761	0.179	0.304
-131.341	-200.000	0.000	0.264
-130.326	-105.769	0.495	0.144
-129.312	103.559	0.270	0.412
-128.297	-200.000	0.115	-0.752
-127.283	43.026	-0.099	0.117
-126.268	-124.176	0.498	-0.100
-125.253	-1.758	-0.264	0.241
-124.239	-130.541	0.240	-0.042
-123.224	-150.979	0.318	0.031
-122.210	800.000	-0.085	-0.344
-121.195	-35.929	-0.148	-0.103
-120.180	48.282	-0.246	-0.299
-119.166	-32.574	0.359	0.258
-118.151	-200.000	-0.004	0.045
-117.137	0.444	-0.159	-0.147
-116.122	-104.927	-0.085	-0.025
-115.107	149.309	-0.082	0.144
-114.093	-103.468	0.436	0.132
-113.078	-185.453	-0.328	-0.006
-112.064	-175.978	-0.635	0.021
-111.049	800.000	0.079	0.350
-110.034	133.981	-0.331	0.556
-109.020	-65.649	-0.270	0.139
-108.005	-74.009	-0.442	0.207
-106.991	276.033	0.080	0.185
-105.976	-89.118	-0.184	0.070
-104.962	118.819	-0.290	-0.464
-103.947	-60.253	0.588	-0.323
-102.932	-58.717	0.268	-0.150
-101.918	-29.647	0.689	0.508
-100.903	33.164	-0.119	0.134
-99.889	-100.561	0.493	-0.157
-98.874	-78.656	-0.280	-0.123
-97.859	-86.503	-0.253	-0.100
-96.845	-128.489	0.556	0.101
-95.830	-104.148	0.248	-0.074
-94.816	250.515	-0.025	-0.056
-93.801	-200.000	-0.043	0.315
-92.786	-1.513	0.258	0.235
-91.772	-38.403	-0.261	-0.179
-90.757	78.886	-0.121	-0.168
-89.743	33.629	0.129	-0.146
-88.728	308.663	-0.115	0.278
-87.713	-145.075	0.138	-0.016
-86.699	-110.929	0.302	-0.080
-85.684	406.253	0.069	-0.189
-84.670	705.690	0.131	0.451
-83.655	251.837	0.189	0.418
-82.640	-146.046	0.467	0.053
-81.626	-49.941	-0.309	0.189
-80.611	279.022	0.078	-0.181
-79.597	-98.566	-0.253	-0.083
-78.582	-40.907	-0.377	-0.252
-77.567	-129.071	0.181	0.032
-76.553	280.184	-0.023	-0.053
-75.538	45.656	0.154	0.184
-74.524	-200.000	0.034	0.232
-73.509	-18.814	0.160	-0.128
-72.494	371.057	0.187	-0.492
-71.480	-65.786	0.353	-0.182
-70.465	-59.138	0.451	-0.251
-69.451	-91.157	0.335	0.124
-68.436	425.120	-0.250	0.699
-67.422	-200.000	-0.005	0.067
-66.407	-83.333	0.258	-0.106
-65.392	-129.784	0.443	0.078
-64.378	-100.260	0.223	-0.071
-63.363	267.499	0.136	0.308
-62.349	-109.714	-0.350	0.094
-61.334	62.175	-1.886	-2.434
-60.319	73.557	1.216	1.648
-59.305	246.291	-3.262	-7.132
-58.290	46.181	4.153	4.974
-57.276	371.532	3.758	9.900
-56.261	-200.000	23.338	320.259
-55.246	354.069	1303.559	3360.985
-54.232	52.772	2844.939	3516.599
-53.217	51.242	2662.105	3266.793
-52.203	31.770	2391.878	2660.567
-51.188	27.966	2057.272	2241.488
-50.173	24.811	1943.217	2080.321
-49.159	23.617	1932.463	2054.844
-48.144	23.156	1927.710	2044.360
-47.130	23.169	1924.918	2041.459
-46.115	22.987	1923.482	2037.751
-45.100	22.988	1922.031	2036.145
-44.086	22.989	1920.970	2034.949
-43.071	23.084	1918.880	2033.750
-42.057	22.914	1918.556	2031.366
-41.042	22.895	1916.603	2029.004
-40.027	23.043	1914.664	2028.568
-39.013	23.060	1912.908	2026.821
-37.998	23.010	1912.522	2025.767
-36.984	23.024	1910.496	2023.691
-35.969	22.978	1909.769	2022.319
-34.954	23.038	1908.270	2021.336
-33.940	22.973	1906.651	2018.798
-32.925	22.886	1906.080	2017.113
-31.911	22.825	1904.677	2014.850
-30.896	22.920	1902.780	2013.850
-29.881	22.811	1901.488	2011.155
-28.867	22.896	1899.915	2010.383
-27.852	22.892	1897.957	2008.182
-26.838	22.856	1896.573	2006.232
-25.823	22.695	1896.093	2003.810
-24.809	22.801	1894.844	2003.619
-23.794	22.814	1893.055	2001.796
-22.779	22.863	1891.998	2001.158
-21.765	22.804	1890.472	1998.792
-20.750	22.799	1889.824	1997.967
-19.736	22.793	1888.170	1996.067
-18.721	22.905	1886.990	1996.014
-17.706	22.714	1886.828	1993.601
-16.692	22.758	1885.277	1992.377
-15.677	22.681	1884.453	1990.561
-14.663	22.724	1882.737	1989.151
-13.648	22.759	1881.272	1987.918
-12.633	22.694	1880.434	1986.219
-11.619	22.702	1879.264	1984.999
-10.604	22.645	1877.856	1982.788
-9.590	22.645	1877.060	1981.871
-8.575	22.756	1874.242	1980.069
-7.560	22.639	1873.969	1978.381
-6.546	22.734	1872.381	1977.695
-5.531	22.731	1871.993	1977.168
-4.517	22.656	1870.623	1974.801
-3.502	22.548	1869.512	1972.341
-2.487	22.807	1867.788	1973.351
-1.473	22.760	1864.836	1969.620
-0.458	22.448	1847.369	1947.635
0.556	19.177	1992.769	2049.579
1.571	17.676	2196.736	2239.282
2.586	18.433	2235.782	2288.978
3.600	18.421	2238.465	2291.290
4.615	18.407	2236.416	2288.728
5.629	18.392	2235.490	2287.300
6.644	18.455	2233.051	2285.377
7.659	18.281	2232.309	2282.015
8.673	18.453	2229.378	2281.052
9.688	18.265	2238.805	2287.893
10.702	17.423	2318.628	2357.458
11.717	15.677	2381.998	2396.611
12.731	7.231	2362.402	2256.129
13.746	0.925	2346.192	2150.537
14.761	0.074	2342.176	2134.457
15.775	0.089	2340.702	2133.078
16.790	-0.001	2338.933	2129.927
17.804	0.035	2337.083	2128.505
18.819	0.089	2335.965	2127.991
19.834	-0.009	2334.648	2125.156
20.848	0.011	2333.155	2123.815
21.863	-0.018	2331.575	2121.718
22.877	0.093	2329.493	2121.137
23.892	0.012	2327.368	2117.802
24.907	0.029	2324.605	2115.275
25.921	-0.008	2323.284	2113.299
26.936	-0.063	2320.911	2110.107
27.950	-0.030	2318.332	2107.980
28.965	0.031	2316.600	2107.012
29.980	0.117	2314.037	2105.634
30.994	0.105	2311.782	2103.171
32.009	3.635	2324.046	2163.866
33.023	12.729	2349.967	2316.810
34.038	16.714	2355.249	2378.096
35.053	16.623	2352.877	2374.132
36.067	16.452	2349.364	2367.897
37.082	16.275	2347.291	2363.041
38.096	16.477	2346.275	2364.569
39.111	16.798	2343.690	2366.196
40.126	16.963	2342.321	2366.846
41.140	17.037	2340.896	2366.151
42.155	17.075	2339.593	2365.090
43.169	17.075	2337.193	2362.384
44.184	16.740	2334.667	2354.859
45.199	16.796	2331.532	2352.206
46.213	16.887	2331.665	2353.328
47.228	17.022	2329.787	2353.031
48.242	17.074	2329.387	2353.062
49.257	17.091	2327.522	2351.140
50.271	17.213	2324.347	2349.344
51.286	16.923	2321.055	2341.703
52.301	16.675	2319.547	2336.464
53.315	17.548	2322.762	2351.542
54.330	20.657	2330.136	2401.949
55.344	22.425	2331.336	2427.418
56.359	22.543	2328.713	2426.037
57.374	22.765	2328.519	2428.616
58.388	22.876	2325.589	2426.804
59.403	22.533	2322.652	2418.717
60.417	22.288	2317.691	2409.878
61.432	22.476	2315.922	2410.345
62.447	22.653	2315.356	2411.896
63.461	22.650	2314.571	2410.756
64.476	22.933	2311.911	2411.578
65.490	22.587	2309.547	2404.079
66.505	21.633	2306.598	2387.655
67.520	19.527	2297.404	2349.080
68.534	17.313	2288.782	2309.783
69.549	16.822	2283.537	2297.523
70.563	16.644	2280.969	2292.242
71.578	16.722	2279.710	2291.758
72.593	16.769	2278.914	2291.323
73.607	16.896	2277.753	2291.607
74.622	16.827	2275.326	2287.956
75.636	16.652	2272.151	2282.123
76.651	16.615	2270.258	2279.447
77.666	16.636	2267.721	2276.912
78.680	16.494	2265.852	2272.831
79.695	16.350	2262.409	2267.167
80.709	16.167	2261.291	2263.307
81.724	16.198	2259.614	2261.779
82.739	16.198	2257.182	2259.066
83.753	16.241	2254.729	2256.931
84.768	16.174	2253.599	2254.623
85.782	15.985	2253.085	2251.298
86.797	16.005	2249.546	2247.765
87.812	16.050	2247.373	2245.929
88.826	16.234	2245.904	2246.649
89.841	16.262	2243.896	2244.746
90.855	16.186	2241.380	2240.953
91.870	16.122	2241.322	2239.773
92.884	16.320	2239.025	2239.844
93.899	16.331	2237.563	2238.263
94.914	17.053	2240.393	2250.443
95.928	19.816	2248.567	2295.296
96.943	20.688	2247.047	2305.081
97.957	18.011	2235.392	2257.350
98.972	16.404	2229.206	2229.532
99.987	16.252	2226.403	2224.447
101.001	16.213	2223.823	2221.090
102.016	16.237	2222.079	2219.397
103.030	16.199	2218.896	2215.449
104.045	16.126	2217.905	2213.231
105.060	16.185	2214.949	2210.803
106.074	16.312	2212.756	2210.020
107.089	16.353	2211.431	2208.967
108.103	16.314	2210.855	2207.620
109.118	16.414	2209.349	2207.156
110.133	16.386	2208.341	2205.516
111.147	16.336	2204.697	2200.958
112.162	16.276	2204.312	2199.524
113.176	16.630	2202.661	2202.246
114.191	16.595	2201.606	2200.475
115.206	16.702	2199.388	2199.390
116.220	16.554	2197.108	2194.921
117.235	16.650	2195.665	2194.460
118.249	16.704	2193.926	2193.166
119.264	16.648	2191.986	2190.238
120.279	16.637	2189.287	2187.141
121.293	16.639	2187.928	2185.547
122.308	16.648	2186.626	2184.101
123.322	16.529	2186.051	2181.716
124.337	17.000	2188.017	2189.524
125.352	19.798	2195.457	2233.078
126.366	20.485	2193.089	2239.308
127.381	17.744	2182.370	2192.707
128.395	16.625	2176.356	2171.979
129.410	16.612	2174.491	2169.694
130.424	16.383	2172.852	2164.849
131.439	16.395	2171.781	2163.679
132.454	16.692	2169.815	2165.272
133.468	16.861	2167.435	2164.811
134.483	16.969	2166.876	2165.375
135.497	16.942	2165.443	2163.340
136.512	16.900	2162.248	2159.352
137.527	16.732	2160.235	2154.942
138.541	16.480	2159.202	2150.423
139.556	16.391	2158.845	2148.674
140.570	16.446	2156.669	2146.959
141.585	16.283	2154.515	2142.475
142.600	16.424	2152.791	2142.306
143.614	16.346	2151.835	2140.104
144.629	16.233	2150.101	2136.681
145.643	16.182	2147.909	2133.593
146.658	16.324	2144.897	2132.150
147.673	16.099	2144.170	2128.321
148.687	16.082	2142.833	2126.519
149.702	16.220	2141.652	2126.846
150.716	16.263	2141.291	2126.782
151.731	16.302	2139.567	2125.301
152.746	16.359	2139.213	2125.413
153.760	17.191	2141.626	2138.087
154.775	19.947	2150.159	2181.311
155.789	20.978	2147.664	2191.543
156.804	18.246	2136.047	2145.054
157.819	16.469	2129.791	2116.173
158.833	16.271	2125.451	2109.118
159.848	16.314	2123.652	2107.619
160.862	16.608	2121.637	2109.058
161.877	16.613	2121.869	2109.098
162.892	16.519	2121.753	2107.553
163.906	16.572	2120.056	2106.276
164.921	16.638	2118.275	2105.086
165.935	16.651	2115.498	2102.228
166.950	16.887	2114.303	2103.734
167.964	16.775	2111.927	2099.730
168.979	16.419	2110.680	2093.805
169.994	16.378	2108.247	2090.625
171.008	16.395	2105.678	2088.039
172.023	16.194	2106.125	2085.734
173.037	16.457	2104.451	2087.092
174.052	16.695	2102.206	2087.563
175.067	16.610	2101.510	2085.571
176.081	16.419	2100.021	2081.476
177.096	16.530	2098.981	2081.570
178.110	16.746	2095.758	2080.799
179.125	16.667	2096.079	2079.893
180.140	16.654	2094.539	2077.948
181.154	16.663	2093.094	2076.376
182.169	16.835	2093.021	2078.184
183.183	17.707	2095.702	2091.346
184.198	20.719	2102.242	2134.814
185.213	21.246	2099.965	2138.741
186.227	18.184	2089.807	2090.582
187.242	16.957	2085.783	2071.246
188.256	16.739	2083.981	2066.542
189.271	16.437	2081.611	2060.244
190.286	16.491	2079.359	2058.431
191.300	16.502	2078.200	2057.172
192.315	16.528	2076.494	2055.550
193.329	16.715	2075.258	2056.371
194.344	17.094	2074.033	2059.532
195.359	17.230	2072.735	2059.649
196.373	16.929	2069.806	2052.827
197.388	16.574	2068.003	2046.482
198.402	16.546	2065.302	2043.223
199.417	16.516	2063.282	2040.610
200.432	16.479	2061.970	2038.623
201.446	16.549	2060.887	2038.157
202.461	16.428	2059.651	2035.233
203.475	16.479	2057.991	2033.964
204.490	16.399	2055.213	2030.010
205.504	16.431	2052.711	2027.681
206.519	16.383	2051.213	2025.379
207.534	16.420	2048.590	2022.986
208.548	16.419	2048.180	2022.330
209.563	16.567	2047.273	2022.969
210.577	16.622	2046.032	2022.165
211.592	16.602	2045.692	2021.350
212.607	18.051	2050.691	2043.467
213.621	21.293	2058.372	2089.929
214.636	20.837	2051.991	2077.724
215.650	17.591	2042.024	2028.595
216.665	16.749	2037.529	2013.835
217.680	16.662	2036.256	2011.288
218.694	16.414	2034.788	2006.642
219.709	16.462	2033.332	2005.540
220.723	16.597	2032.414	2006.004
221.738	16.700	2031.149	2005.744
222.753	16.768	2029.492	2004.675
223.767	16.809	2027.717	2003.168
224.782	16.770	2026.518	2001.283
225.796	16.673	2024.997	1998.388
226.811	16.747	2022.936	1996.993
227.826	16.716	2021.412	1994.877
228.840	16.707	2018.741	1991.895
229.855	16.585	2017.629	1989.125
230.869	16.830	2016.151	1990.314
231.884	16.657	2013.884	1985.797
232.899	16.673	2013.286	1985.162
233.913	16.642	2012.521	1983.807
234.928	16.622	2010.946	1981.786
235.942	16.636	2009.181	1979.966
236.957	16.532	2008.072	1977.417
237.972	16.602	2006.657	1976.607
238.986	16.457	2005.443	1973.469
240.001	16.473	2003.470	1971.490
241.015	16.685	2002.882	1973.150
242.030	17.384	2006.152	1984.337
243.045	20.389	2011.103	2024.258
244.059	20.468	2008.590	2022.414
245.074	17.858	1998.171	1981.261
246.088	16.946	1994.582	1966.839
247.103	16.898	1993.976	1965.454
248.117	16.938	1992.252	1963.983
249.132	16.683	1990.534	1959.093
250.147	16.739	1987.393	1956.410
251.161	16.794	1986.780	1956.214
252.176	16.907	1986.136	1956.660
253.190	17.088	1984.167	1956.577
254.205	17.093	1982.815	1955.064
255.220	17.198	1980.697	1953.963
256.234	17.043	1979.549	1950.803
257.249	16.880	1977.987	1947.143
258.263	16.852	1977.131	1945.747
259.278	16.909	1976.607	1945.656
260.293	16.782	1974.187	1941.580
261.307	16.535	1971.000	1935.376
262.322	16.406	1970.211	1932.886
263.336	16.388	1967.440	1929.724
264.351	16.338	1966.073	1927.583
265.366	16.356	1964.999	1926.501
266.380	16.476	1964.674	1927.327
267.395	16.530	1962.928	1926.003
268.409	16.477	1960.699	1922.976
269.424	16.581	1958.419	1921.707
270.439	16.448	1959.344	1920.864
271.453	17.541	1962.278	1936.005
272.468	20.609	1967.533	1976.047
273.482	20.692	1964.449	1973.669
274.497	17.896	1952.857	1930.055
275.512	16.653	1949.310	1912.207
276.526	16.622	1946.848	1909.213
277.541	16.440	1945.744	1905.835
278.555	16.358	1944.089	1903.062
279.570	16.214	1941.705	1898.876
280.585	16.502	1941.223	1901.426
281.599	16.524	1939.841	1900.096
282.614	16.682	1938.727	1900.560
283.628	16.986	1938.697	1903.736
284.643	17.044	1938.150	1903.621
285.657	17.291	1936.319	1904.375
286.672	17.201	1935.865	1902.693
287.687	17.224	1933.475	1900.366
288.701	17.132	1930.900	1896.581
289.716	16.949	1930.406	1893.818
290.730	17.146	1929.123	1894.541
291.745	17.195	1927.678	1893.439
292.760	17.173	1926.720	1892.022
293.774	16.958	1925.890	1888.577
294.789	16.977	1923.847	1886.557
295.803	16.788	1921.771	1882.194
296.818	16.716	1920.156	1879.582
297.833	16.709	1919.151	1878.295
298.847	16.646	1918.231	1876.469
299.862	16.683	1916.976	1875.426
300.876	17.553	1919.150	1887.026
301.891	20.713	1924.984	1927.768
302.906	20.963	1922.023	1927.356
303.920	17.986	1912.994	1885.099
304.935	16.889	1909.598	1869.375
305.949	16.765	1907.002	1865.239
306.964	16.752	1904.786	1862.704
307.979	16.909	1903.611	1863.058
308.993	17.079	1902.984	1864.100
310.008	17.231	1902.390	1864.974
311.022	17.311	1900.318	1863.604
312.037	17.036	1898.720	1858.782
313.052	17.044	1897.270	1857.226
314.066	17.060	1895.244	1855.199
315.081	17.149	1894.706	1855.429
316.095	17.150	1893.267	1853.807
317.110	16.949	1890.803	1848.968
318.125	16.928	1888.707	1846.465
319.139	16.767	1888.695	1844.471
320.154	16.987	1886.798	1844.802
321.168	16.812	1885.827	1841.727
322.183	16.536	1883.909	1836.622
323.197	16.586	1881.799	1834.885
324.212	16.534	1879.899	1832.247
325.227	16.307	1878.989	1828.672
326.241	16.326	1876.446	1826.190
327.256	16.463	1874.789	1825.837
328.270	16.410	1874.358	1824.625
329.285	16.413	1874.749	1824.816
330.300	17.497	1879.248	1840.774
331.314	20.711	1885.617	1881.781
332.329	20.752	1879.272	1875.668
333.343	17.690	1869.806	1832.949
334.358	16.367	1866.155	1814.875
335.373	16.242	1864.167	1811.373
336.387	16.221	1861.648	1808.485
337.402	16.258	1861.009	1808.044
338.416	16.475	1859.246	1808.452
339.431	16.364	1859.251	1807.048
340.446	16.350	1857.606	1805.075
341.460	16.598	1856.777	1806.721
342.475	16.854	1855.599	1808.097
343.489	17.070	1853.688	1808.332
344.504	17.009	1852.653	1806.453
345.519	16.936	1851.684	1804.520
346.533	17.237	1850.062	1805.936
347.548	17.256	1848.817	1804.705
348.562	17.034	1847.450	1800.787
349.577	17.076	1847.269	1800.848
350.592	17.420	1845.862	1802.923
351.606	17.438	1845.228	1802.279
352.621	17.469	1842.664	1799.882
353.635	17.132	1840.656	1794.129
354.650	16.797	1838.838	1788.596
355.665	16.818	1837.688	1787.478
356.679	16.733	1836.229	1784.950
357.694	16.579	1834.644	1781.565
358.708	16.564	1833.716	1780.287
359.723	17.903	1837.931	1798.352
360.738	21.167	1841.583	1836.284
361.752	20.345	1836.838	1822.659
362.767	17.525	1830.676	1786.621
363.781	16.847	1826.953	1775.647
364.796	16.817	1824.421	1772.656
365.810	16.519	1823.616	1768.530
366.825	16.604	1822.151	1767.787
367.840	16.942	1822.427	1771.391
368.854	17.095	1821.179	1771.577
369.869	16.894	1819.168	1767.301
370.883	16.692	1816.996	1762.860
371.898	16.565	1816.076	1760.427
372.913	16.444	1814.271	1757.202
373.927	16.476	1813.860	1756.934
374.942	16.701	1812.938	1758.182
375.956	16.709	1811.202	1756.368
376.971	16.645	1809.141	1753.494
377.986	16.737	1806.990	1752.148
379.000	16.610	1806.212	1749.872
380.015	16.638	1805.436	1749.201
381.029	16.614	1802.415	1745.810
382.044	16.366	1800.036	1740.732
383.059	16.348	1798.294	1738.648
384.073	16.341	1798.264	1738.338
385.088	16.550	1796.780	1738.857
386.102	16.438	1795.696	1736.445
387.117	16.527	1793.996	1735.511
388.132	16.509	1793.277	1734.424
389.146	17.529	1798.709	1750.008
390.161	20.768	1804.230	1788.683
391.175	20.529	1796.301	1778.144
392.190	17.453	1787.504	1737.703
393.205	16.769	1784.052	1727.133
394.219	16.495	1782.256	1722.385
395.234	16.359	1780.897	1719.471
396.248	16.294	1779.588	1717.334
397.263	16.225	1777.027	1713.951
398.278	16.304	1775.321	1712.906
399.292	16.232	1774.623	1711.295
400.307	16.182	1774.431	1710.395
401.321	16.441	1773.328	1711.763
402.336	16.507	1771.867	1710.824
403.350	16.604	1770.294	1710.087
404.365	16.618	1769.850	1709.598
405.380	16.953	1768.801	1711.773
406.394	17.035	1768.285	1711.900
407.409	16.994	1766.298	1709.360
408.423	17.170	1764.576	1709.273
409.438	17.051	1763.465	1706.789
410.453	16.930	1761.756	1703.701
411.467	17.145	1761.400	1705.324
412.482	16.856	1760.042	1700.894
413.496	16.665	1757.978	1696.772
414.511	16.645	1756.022	1694.475
415.526	16.605	1753.862	1691.794
416.540	16.443	1752.059	1688.224
417.555	16.565	1751.280	1688.494
418.569	16.894	1752.317	1692.590
419.584	16.800	1752.575	1691.692
420.599	16.916	1751.592	1691.705
421.613	17.015	1750.850	1691.779
422.628	17.000	1748.899	1689.542
423.642	16.854	1746.489	1685.555
424.657	16.709	1744.438	1681.929
425.672	16.817	1743.650	1682.038
426.686	16.959	1742.016	1681.680
427.701	16.784	1741.540	1679.276
428.715	16.923	1740.348	1679.305
429.730	17.061	1738.812	1678.999
430.745	17.077	1736.892	1677.101
431.759	17.055	1737.192	1676.974
432.774	17.398	1737.636	1680.601
433.788	17.985	1737.922	1686.506
434.803	18.183	1737.827	1688.174
435.818	18.100	1737.106	1686.455
436.832	18.039	1736.031	1684.607
437.847	17.197	1728.563	1668.847
438.861	9.447	1707.977	1572.895
439.876	1.707	1693.683	1483.929
440.890	0.314	1690.622	1467.444
441.905	0.218	1689.573	1465.420
442.920	0.216	1687.225	1463.186
443.934	0.133	1686.221	1461.331
444.949	0.159	1684.971	1460.326
445.963	0.073	1684.765	1459.127
446.978	0.118	1684.311	1459.003
447.993	0.153	1682.656	1457.735
449.007	0.124	1680.970	1455.822
450.022	0.178	1678.494	1454.026
451.036	0.285	1677.150	1453.727
452.051	1.113	1681.468	1465.335
453.066	8.644	1698.288	1553.523
454.080	16.357	1710.481	1640.025
455.095	18.072	1712.901	1658.897
456.109	18.528	1712.987	1663.230
457.124	18.789	1711.389	1664.020
458.139	18.873	1711.130	1664.388
459.153	18.973	1710.362	1664.416
460.168	18.881	1708.798	1661.801
461.182	18.908	1706.911	1660.032
462.197	18.801	1705.003	1656.940
463.212	18.745	1703.453	1654.690
464.226	18.729	1702.713	1653.622
465.241	18.890	1702.003	1654.286
466.255	18.851	1701.691	1653.411
467.270	18.999	1699.059	1652.080
468.285	18.859	1697.763	1649.271
469.299	18.720	1696.879	1646.874
470.314	18.729	1695.795	1645.719
471.328	18.746	1693.416	1643.377
472.343	18.801	1693.438	1643.727
473.358	18.848	1692.439	1643.014
474.372	18.957	1690.361	1641.845
475.387	18.770	1689.260	1638.786
476.401	18.771	1686.735	1636.146
477.416	18.730	1686.237	1635.074
478.430	18.849	1685.026	1634.849
479.445	18.660	1683.636	1631.497
480.460	18.522	1682.545	1628.924
481.474	18.574	1681.985	1628.681
482.489	18.904	1681.080	1630.758
483.503	19.003	1678.990	1629.478
484.518	19.102	1677.798	1629.074
485.533	18.964	1676.070	1625.892
486.547	18.888	1674.835	1623.771
487.562	19.240	1674.123	1626.228
488.576	19.135	1672.527	1623.493
489.591	19.100	1671.437	1621.908
490.606	19.002	1670.188	1619.568
491.620	19.097	1669.181	1619.296
492.635	19.043	1668.206	1617.652
493.649	19.321	1666.683	1618.607
494.664	19.141	1663.973	1614.077
495.679	18.751	1662.263	1608.559
496.693	18.866	1661.207	1608.423
497.708	18.963	1661.073	1609.013
498.722	19.247	1660.152	1610.596
499.737	19.186	1658.264	1608.004
500.752	18.959	1657.209	1604.661
501.766	18.783	1655.439	1601.104
502.781	19.028	1653.663	1601.489
503.795	19.108	1652.540	1600.959
504.810	19.069	1651.368	1599.266
505.825	19.162	1651.474	1600.042
506.839	19.164	1650.124	1598.566
507.854	19.045	1648.816	1595.993
508.868	19.150	1647.224	1595.244
509.883	19.177	1646.420	1594.526
510.898	19.412	1644.864	1595.011
511.912	19.248	1643.321	1591.797
512.927	19.071	1641.204	1587.918
513.941	19.040	1639.571	1585.858
514.956	18.897	1638.621	1583.428
515.971	18.865	1637.634	1581.989
516.985	18.928	1636.682	1581.458
518.000	19.128	1636.030	1582.488
519.014	19.300	1634.890	1582.785
520.029	19.431	1633.229	1582.194
521.043	19.363	1632.052	1580.240
522.058	19.351	1630.977	1578.902
523.073	19.252	1630.494	1577.335
524.087	19.564	1629.717	1579.261
525.102	19.451	1628.360	1576.715
526.116	19.108	1626.613	1571.687
527.131	19.172	1625.335	1570.855
528.146	19.627	1624.315	1573.846
529.160	19.606	1623.849	1573.019
530.175	19.505	1622.495	1570.592
531.189	19.700	1621.564	1571.286
532.204	19.738	1619.778	1569.713
533.219	19.284	1618.549	1564.197
534.233	19.233	1617.296	1562.331
535.248	19.232	1617.240	1562.082
536.262	19.749	1615.788	1565.195
537.277	19.528	1614.535	1561.783
538.292	19.448	1611.644	1558.075
539.306	19.448	1610.242	1556.535
540.321	19.318	1609.866	1554.807
541.335	19.272	1608.528	1552.907
542.350	19.504	1606.663	1553.021
543.365	19.531	1605.264	1551.730
544.379	19.688	1604.077	1551.817
545.394	19.629	1603.286	1550.334
546.408	19.433	1601.050	1546.217
547.423	19.133	1599.701	1542.030
548.438	19.170	1598.214	1540.745
549.452	19.320	1598.186	1541.884
550.467	19.400	1597.388	1541.648
551.481	19.414	1596.547	1540.777
552.496	19.536	1596.660	1541.790
553.511	19.691	1595.798	1542.171
554.525	19.637	1594.242	1539.999
555.540	19.789	1593.225	1540.193
556.554	19.888	1591.342	1539.072
557.569	19.833	1589.563	1536.678
558.583	19.685	1588.249	1533.901
559.598	19.588	1587.179	1531.820
560.613	19.652	1586.293	1531.350
561.627	19.728	1585.087	1530.682
562.642	19.819	1584.153	1530.400
563.656	19.932	1583.374	1530.473
564.671	19.939	1581.555	1528.591
565.686	19.856	1580.355	1526.513
566.700	19.587	1578.659	1522.308
567.715	19.532	1577.290	1520.322
568.729	19.393	1575.501	1517.188
569.744	19.303	1573.813	1514.582
570.759	19.376	1572.737	1514.010
571.773	19.511	1571.632	1513.956
572.788	19.418	1570.966	1512.316
573.802	19.514	1570.477	1512.504
574.817	19.691	1568.927	1512.386
575.832	20.020	1567.706	1513.921
576.846	20.101	1566.252	1513.047
577.861	19.872	1565.368	1510.001
578.875	19.775	1565.154	1508.765
579.890	20.084	1563.942	1510.129
580.905	19.985	1562.718	1507.893
581.919	20.088	1562.394	1508.306
582.934	20.145	1561.040	1507.313
583.948	20.054	1559.771	1505.116
584.963	19.969	1558.692	1503.148
585.978	19.810	1556.888	1499.848
586.992	19.986	1555.580	1499.935
588.007	20.106	1555.173	1500.407
589.021	19.670	1553.275	1494.608
590.036	19.474	1551.537	1491.060
591.051	19.653	1551.119	1492.033
592.065	19.739	1549.822	1491.353
593.080	19.926	1548.768	1491.782
594.094	19.925	1546.880	1489.769
595.109	19.567	1544.327	1484.043
596.123	19.477	1543.127	1481.935
597.138	19.837	1542.963	1484.704
598.153	19.931	1541.448	1483.884
599.167	19.918	1540.600	1482.776
600.182	20.213	1539.414	1483.995
601.196	20.186	1538.342	1482.554
602.211	20.094	1537.513	1480.784
603.226	20.132	1536.286	1479.749
604.240	20.246	1534.754	1479.072
605.255	20.279	1533.942	1478.397
606.269	20.312	1532.887	1477.483
607.284	20.195	1531.932	1475.392
608.299	20.147	1530.845	1473.753
609.313	19.978	1529.863	1471.194
610.328	20.258	1527.995	1471.610
611.342	20.218	1526.968	1470.101
612.357	20.347	1526.325	1470.400
613.372	20.387	1524.976	1469.265
614.386	20.182	1523.777	1466.195
615.401	20.386	1523.316	1467.310
616.415	20.371	1522.807	1466.518
617.430	20.406	1521.856	1465.720
618.445	20.412	1521.523	1465.274
619.459	20.320	1519.526	1462.400
620.474	19.979	1517.785	1457.661
621.488	19.556	1516.054	1452.251
622.503	19.412	1514.815	1449.674
623.518	19.771	1514.725	1452.442
624.532	20.024	1514.416	1454.107
625.547	20.147	1513.445	1454.039
626.561	20.429	1512.681	1455.506
627.576	20.627	1510.939	1455.322
628.591	20.103	1509.478	1449.335
629.605	19.730	1508.092	1444.704
630.620	19.678	1505.789	1441.889
631.634	19.445	1504.526	1438.555
632.649	19.680	1503.808	1439.665
633.663	19.918	1502.368	1440.104
634.678	20.160	1502.514	1442.092
635.693	20.416	1500.701	1442.317
636.707	20.539	1499.696	1442.204
637.722	20.755	1499.052	1443.210
638.736	20.778	1498.432	1442.633
639.751	20.653	1496.872	1439.921
640.766	20.635	1495.123	1437.919
641.780	20.681	1493.466	1436.528
642.795	20.508	1493.615	1435.068
643.809	20.597	1493.141	1435.180
644.824	20.515	1491.860	1433.092
645.839	20.456	1490.736	1431.357
646.853	20.637	1488.768	1430.792
647.868	20.677	1487.046	1429.298
648.882	20.421	1486.644	1426.626
649.897	20.510	1485.202	1425.804
650.912	20.464	1483.078	1423.220
651.926	20.546	1481.992	1422.675
652.941	20.233	1480.912	1418.900
653.955	19.961	1479.152	1414.804
654.970	19.741	1476.958	1410.732
655.985	19.717	1475.910	1409.369
656.999	19.680	1475.259	1408.272
658.014	19.946	1474.292	1409.356
659.028	20.228	1474.292	1411.496
660.043	20.251	1473.468	1410.729
661.058	20.464	1471.748	1410.653
662.072	20.314	1471.579	1409.096
663.087	20.489	1469.728	1408.579
664.101	20.398	1469.333	1407.292
665.116	20.442	1468.813	1406.982
666.131	20.573	1468.098	1407.194
667.145	20.624	1465.795	1405.233
668.160	20.839	1464.941	1405.993
669.174	20.841	1464.087	1405.023
670.189	20.813	1462.954	1403.536
671.204	20.510	1462.209	1400.202
672.218	20.610	1461.328	1400.002
673.233	20.759	1460.779	1400.511
674.247	20.877	1458.915	1399.508
675.262	21.090	1457.567	1399.771
676.276	20.975	1456.199	1397.364
677.291	20.845	1455.508	1395.486
678.306	20.696	1453.773	1392.451
679.320	20.565	1453.374	1390.850
680.335	20.775	1452.561	1391.595
681.349	20.956	1451.529	1391.890
682.364	20.851	1450.988	1390.365
683.379	20.885	1449.363	1388.912
684.393	20.859	1447.783	1387.024
685.408	20.700	1447.455	1385.270
686.422	20.640	1446.302	1383.520
687.437	20.875	1445.263	1384.240
688.452	21.033	1444.179	1384.301
689.466	21.022	1443.103	1383.015
690.481	20.660	1442.163	1379.061
691.495	20.353	1440.827	1375.179
692.510	20.076	1437.511	1369.644
693.525	19.793	1435.958	1365.758
694.539	20.176	1435.663	1368.348
695.554	20.576	1436.145	1371.817
696.568	20.871	1435.970	1373.825
697.583	20.840	1435.247	1372.721
698.598	21.009	1434.732	1373.409
699.612	21.079	1433.217	1372.342
700.627	21.071	1431.704	1370.668
701.641	21.015	1429.846	1368.285
702.656	20.972	1429.277	1367.237
703.671	21.120	1429.548	1368.502
704.685	21.087	1428.731	1367.294
705.700	20.996	1426.936	1364.693
706.714	21.002	1424.775	1362.512
707.729	20.875	1423.140	1359.788
708.744	20.830	1422.502	1358.662
709.758	20.571	1421.649	1355.657
710.773	20.451	1419.543	1352.548
711.787	20.337	1418.206	1350.226
712.802	20.473	1416.869	1349.851
713.816	20.593	1416.166	1349.952
714.831	20.825	1415.570	1351.037
715.846	20.935	1415.186	1351.367
716.860	21.084	1414.082	1351.306
717.875	21.070	1412.398	1349.428
718.889	21.013	1411.593	1348.053
719.904	21.180	1410.549	1348.196
720.919	21.159	1409.901	1347.250
721.933	21.127	1409.541	1346.498
722.948	21.079	1408.612	1345.071
723.962	21.210	1407.312	1344.683
724.977	21.360	1405.923	1344.359
725.992	21.280	1405.204	1342.889
727.006	21.127	1403.993	1340.390
728.021	21.172	1402.765	1339.410
729.035	21.304	1401.084	1338.660
730.050	21.191	1400.024	1336.612
731.065	21.316	1399.323	1336.747
732.079	21.411	1398.092	1336.139
733.094	21.282	1396.554	1333.525
734.108	21.106	1395.287	1330.807
735.123	21.270	1393.611	1330.300
736.138	21.325	1392.960	1329.941
737.152	21.286	1392.231	1328.786
738.167	21.549	1390.872	1329.335
739.181	21.412	1390.193	1327.486
740.196	21.358	1389.808	1326.548
741.211	21.369	1389.235	1325.923
742.225	21.293	1387.895	1323.908
743.240	21.377	1386.461	1323.021
744.254	21.279	1385.181	1320.900
745.269	21.241	1384.782	1320.067
746.284	21.184	1383.718	1318.463
747.298	21.113	1381.642	1315.793
748.313	20.770	1379.922	1311.401
749.327	20.309	1379.133	1307.004
750.342	20.110	1377.365	1303.664
751.356	20.052	1376.048	1301.829
752.371	20.121	1375.724	1301.888
753.386	20.802	1375.859	1306.997
754.400	21.359	1375.186	1310.395
755.415	21.374	1374.683	1309.876
756.429	21.442	1372.984	1308.610
757.444	21.307	1371.834	1306.342
758.459	21.512	1370.933	1306.873
759.473	21.548	1369.660	1305.771
760.488	21.609	1368.884	1305.332
761.502	21.549	1368.229	1304.103
762.517	21.347	1366.728	1301.005
763.532	21.314	1365.209	1299.153
764.546	21.126	1363.206	1295.686
765.561	20.718	1362.170	1291.507
766.575	20.351	1360.987	1287.496
767.590	20.286	1360.216	1286.129
768.605	20.684	1359.349	1288.116
769.619	20.964	1358.128	1288.882
770.634	21.155	1357.843	1289.881
771.648	21.434	1357.292	1291.272
772.663	21.490	1356.831	1291.092
773.678	21.510	1356.077	1290.370
774.692	21.548	1355.194	1289.656
775.707	21.624	1354.595	1289.494
776.721	21.584	1353.544	1288.048
777.736	21.582	1352.450	1286.834
778.751	21.524	1352.055	1285.880
779.765	21.485	1350.487	1283.946
780.780	21.490	1349.942	1283.312
781.794	21.589	1348.065	1282.102
782.809	21.425	1347.356	1280.067
783.824	21.277	1346.244	1277.769
784.838	20.898	1343.625	1272.346
785.853	20.311	1342.586	1266.905
786.867	20.392	1342.865	1267.612
787.882	20.710	1342.591	1269.533
788.897	20.858	1341.800	1269.721
789.911	21.033	1341.007	1270.100
790.926	21.167	1339.766	1269.754
791.940	21.383	1338.594	1270.064
792.955	21.413	1336.617	1268.259
793.969	21.584	1335.725	1268.500
794.984	21.535	1334.967	1267.275
795.999	21.668	1333.867	1267.045
797.013	21.591	1332.617	1265.148
798.028	21.528	1332.002	1263.953
799.042	21.610	1331.304	1263.733
800.057	21.722	1330.602	1263.728
801.072	21.858	1328.382	1262.455
802.086	21.786	1327.446	1260.895
803.101	21.795	1327.066	1260.444
804.115	21.775	1326.278	1259.401
805.130	21.771	1324.301	1257.350
806.145	21.794	1323.067	1256.189
807.159	21.659	1321.856	1253.919
808.174	21.519	1319.904	1250.909
809.188	21.324	1318.630	1248.155
810.203	21.418	1317.075	1247.203
811.218	20.958	1315.204	1241.992
812.232	20.720	1314.313	1239.302
813.247	20.578	1313.355	1237.231
814.261	20.804	1313.754	1239.076
815.276	21.390	1312.923	1242.329
816.291	21.452	1312.020	1241.769
817.305	21.654	1311.188	1242.272
818.320	21.649	1310.506	1241.445
819.334	21.715	1308.577	1239.934
820.349	21.680	1307.336	1238.367
821.364	21.698	1305.813	1236.902
822.378	21.838	1304.529	1236.530
823.393	21.803	1303.228	1234.897
824.407	21.776	1301.955	1233.355
825.422	21.771	1302.276	1233.480
826.437	21.458	1301.326	1230.217
827.451	21.472	1298.284	1227.291
828.466	20.787	1296.229	1220.381
829.480	20.484	1294.648	1216.611
830.495	20.973	1293.036	1218.390
831.509	21.223	1293.044	1220.002
832.524	21.373	1292.721	1220.610
833.539	21.790	1291.128	1221.878
834.553	21.839	1289.939	1220.954
835.568	21.733	1289.670	1219.805
836.582	21.763	1288.866	1219.115
837.597	21.882	1287.089	1218.118
838.612	21.810	1285.454	1215.919
839.626	21.706	1284.262	1213.926
840.641	21.632	1283.016	1212.083
841.655	21.316	1281.438	1208.252
842.670	20.888	1279.958	1203.743
843.685	20.543	1278.725	1200.047
844.699	21.122	1278.301	1203.520
845.714	21.457	1278.308	1205.704
846.728	21.470	1277.497	1204.881
847.743	21.717	1277.122	1206.092
848.758	21.627	1276.026	1204.294
849.772	21.956	1274.023	1204.526
850.787	21.776	1273.370	1202.528
851.801	21.884	1271.500	1201.358
852.816	21.601	1270.780	1198.584
853.831	21.683	1269.034	1197.364
854.845	21.489	1267.564	1194.499
855.860	21.539	1265.493	1192.747
856.874	21.499	1263.892	1190.820
857.889	21.097	1262.886	1186.983
858.904	20.771	1260.923	1182.774
859.918	20.473	1258.982	1178.774
860.933	20.338	1258.084	1176.874
861.947	20.699	1258.199	1179.303
862.962	21.088	1257.154	1180.826
863.977	21.166	1255.806	1179.947
864.991	21.241	1255.875	1180.386
866.006	21.367	1256.306	1181.503
867.020	21.605	1254.549	1181.324
868.035	21.616	1252.395	1179.231
869.049	21.875	1251.810	1180.288
870.064	21.941	1251.555	1180.350
871.079	21.716	1250.966	1178.134
872.093	21.710	1250.103	1177.137
873.108	21.693	1248.656	1175.523
874.122	21.708	1246.482	1173.437
875.137	21.112	1246.287	1169.103
876.152	21.080	1245.260	1167.779
877.166	21.202	1243.856	1167.143
878.181	21.471	1243.330	1168.321
879.195	21.649	1242.998	1169.058
880.210	21.755	1241.961	1168.653
881.225	21.734	1240.996	1167.466
882.239	21.920	1239.973	1167.609
883.254	21.917	1238.795	1166.341
884.268	21.958	1237.929	1165.658
885.283	21.982	1236.632	1164.460
886.298	21.745	1235.426	1161.605
887.312	21.911	1234.351	1161.562
888.327	21.842	1233.454	1160.119
889.341	21.795	1231.923	1158.228
890.356	21.654	1231.650	1156.892
891.371	21.699	1230.979	1156.427
892.385	21.573	1229.778	1154.323
893.400	21.467	1229.292	1153.029
894.414	21.477	1226.976	1150.785
895.429	21.079	1224.956	1146.123
896.444	20.552	1223.240	1140.901
897.458	20.176	1221.637	1136.795
898.473	20.672	1222.318	1140.563
899.487	21.158	1221.608	1142.960
900.502	21.535	1220.742	1144.495
901.517	21.654	1220.011	1144.451
902.531	21.589	1219.645	1143.543
903.546	21.916	1219.019	1144.966
904.560	21.829	1217.840	1143.156
905.575	21.740	1217.365	1141.991
906.589	21.696	1217.185	1141.397
907.604	21.803	1215.661	1140.530
