DTS Sentinel unit serial number:	SN409020Multiplexer serial number:	ORYXHardware model number:	OX4-SRSoftware version number:	ORYX F/W v3.00 Oryx Data Collector v3.7.2.0data status	okinstallation	HaddamTimeLapsedifferential loss correction	single-endedforward channel	channel 3reverse channel	N/Adate	2011/06/21time	20:06:17forward acquisition time	30.00reverse acquisition time	0.00gamma	498.7831k internal	0.1785k external	0.1785temperature offset calibration	1.0074default loss term (dB/km)	0.3790temperature slope calibration	1.3530multiplexer offset coefficient	1.0000multiplexer slope coefficient	1.0000fibre end	0.00T internal ref (°C)	31.97T ext. ref 1 (°C)	23.53T ext. ref 2 (°C)	0.03length (m)	temperature (°C)	Stokes	anti-Stokes-747.200	-64.366	0.151	-0.080
-746.185	-200.000	0.003	0.694
-745.171	73.349	-0.172	-0.235
-744.156	62.164	-0.259	0.337
-743.142	532.040	-0.087	-0.271
-742.127	-200.000	0.004	0.732
-741.112	-200.000	0.023	-0.334
-740.098	6.293	-0.305	0.295
-739.083	4.355	-0.294	0.281
-738.069	608.521	0.101	0.330
-737.054	-58.887	-0.214	-0.120
-736.039	-153.080	-0.326	0.029
-735.025	304.530	0.313	-0.761
-734.010	-200.000	-0.049	-0.506
-732.996	-13.871	-0.513	-0.431
-731.981	-134.595	0.275	0.043
-730.966	51.655	0.036	-0.045
-729.952	58.666	0.118	-0.151
-728.937	800.000	-0.047	0.178
-727.923	-39.608	-0.223	-0.152
-726.908	-75.778	-0.696	-0.320
-725.894	61.018	-0.154	0.199
-724.879	-38.303	-0.396	-0.273
-723.864	-101.777	-0.542	-0.170
-722.850	8.325	-0.335	-0.328
-721.835	660.682	0.063	-0.213
-720.821	800.000	0.029	0.164
-719.806	56.567	-0.116	-0.148
-718.791	34.065	0.295	0.335
-717.777	-118.006	-0.148	0.034
-716.762	-53.905	-0.098	-0.058
-715.748	408.361	-0.099	-0.274
-714.733	800.000	-0.070	0.363
-713.718	-32.457	-0.056	0.041
-712.704	-30.508	-0.246	0.181
-711.689	-56.148	0.176	-0.102
-710.675	800.000	-0.008	-0.042
-709.660	-146.828	0.335	-0.037
-708.645	-168.336	-0.365	0.018
-707.631	-200.000	-0.044	-0.324
-706.616	61.038	-0.202	-0.261
-705.602	-144.156	-0.262	0.032
-704.587	583.855	-0.048	-0.154
-703.572	364.455	0.123	-0.324
-702.558	68.527	0.216	-0.289
-701.543	-31.314	-0.181	0.132
-700.529	-72.129	0.604	-0.290
-699.514	-200.000	0.011	0.093
-698.499	-200.000	-0.007	0.155
-697.485	349.595	-0.056	0.145
-696.470	64.966	-0.214	-0.282
-695.456	138.634	-0.196	0.335
-694.441	74.661	-0.123	-0.169
-693.426	32.543	0.126	-0.142
-692.412	-83.811	0.256	0.106
-691.397	-164.401	0.317	0.019
-690.383	-2.400	-0.433	0.394
-689.368	195.945	0.099	0.197
-688.354	379.453	-0.167	0.448
-687.339	-90.734	-0.661	-0.247
-686.324	137.228	-0.045	-0.076
-685.310	-55.009	0.303	0.177
-684.295	132.910	-0.327	-0.551
-683.281	-181.938	-0.410	-0.010
-682.266	-70.995	-0.224	-0.109
-681.251	800.000	-0.053	0.274
-680.237	-19.883	0.177	0.142
-679.222	-108.665	-0.193	0.053
-678.208	-112.603	0.212	-0.055
-677.193	-123.436	0.259	0.053
-676.178	-94.507	0.067	0.024
-675.164	-155.834	-0.635	-0.052
-674.149	-30.535	0.263	-0.193
-673.135	378.553	0.138	-0.370
-672.120	-200.000	0.040	-0.389
-671.105	217.584	-0.097	-0.202
-670.091	-69.171	0.195	-0.097
-669.076	87.438	-0.071	-0.102
-668.062	455.954	0.075	-0.218
-667.047	-158.016	0.278	-0.021
-666.032	-200.000	-0.010	0.117
-665.018	-45.256	0.474	-0.305
-664.003	42.584	0.240	0.284
-662.989	-86.630	-0.283	-0.112
-661.974	-109.425	-0.714	-0.195
-660.959	-78.249	0.166	0.074
-659.945	130.014	-0.112	-0.187
-658.930	800.000	0.057	0.238
-657.916	-102.710	0.301	0.093
-656.901	-121.109	-0.460	-0.099
-655.886	-154.887	0.156	0.013
-654.872	211.744	0.015	0.031
-653.857	79.195	-0.189	-0.263
-652.843	150.006	-0.380	-0.672
-651.828	143.192	-0.152	-0.263
-650.814	213.963	-0.122	-0.251
-649.799	-200.000	0.068	-0.591
-648.784	67.455	-0.103	-0.137
-647.770	-39.820	0.108	0.073
-646.755	37.327	-0.227	0.261
-645.741	-78.328	-0.438	-0.194
-644.726	-114.694	0.182	-0.045
-643.711	70.774	0.156	-0.210
-642.697	504.155	-0.047	0.141
-641.682	-33.260	-0.358	-0.257
-640.668	-69.345	0.257	-0.127
-639.653	-42.759	-0.424	-0.279
-638.638	-31.599	0.285	-0.207
-637.624	-41.927	-0.296	-0.196
-636.609	102.552	0.091	-0.138
-635.595	107.682	-0.219	-0.340
-634.580	-34.379	-0.175	0.124
-633.565	-83.545	-0.081	0.033
-632.551	-7.924	-0.174	-0.152
-631.536	181.504	0.106	0.202
-630.522	93.692	-0.245	0.361
-629.507	-100.451	0.321	-0.102
-628.492	-16.614	0.175	-0.144
-627.478	-200.000	0.045	-0.599
-626.463	-179.676	-0.372	-0.010
-625.449	800.000	-0.035	0.185
-624.434	90.387	-0.333	0.484
-623.419	-82.423	-0.463	-0.194
-622.405	800.000	-0.154	0.675
-621.390	3.144	0.338	0.318
-620.376	-172.070	-0.213	-0.009
-619.361	-143.183	-0.077	-0.009
-618.346	299.384	-0.120	-0.287
-617.332	52.210	-0.103	0.128
-616.317	-132.187	-0.376	0.063
-615.303	-132.936	0.400	-0.065
-614.288	-200.000	-0.037	0.303
-613.273	-117.357	0.171	-0.040
-612.259	-12.968	0.445	0.375
-611.244	59.310	-0.218	-0.279
-610.230	-135.967	0.132	-0.020
-609.215	-27.395	0.046	-0.035
-608.201	-17.374	-0.154	0.126
-607.186	-15.861	-0.490	0.404
-606.171	73.155	0.115	0.156
-605.157	13.540	-0.458	-0.461
-604.142	-137.816	0.231	0.033
-603.128	-182.244	0.093	0.002
-602.113	-200.000	0.028	0.666
-601.098	266.392	0.219	-0.498
-600.084	184.733	-0.049	-0.095
-599.069	800.000	0.098	0.378
-598.055	59.481	0.204	0.261
-597.040	377.545	-0.127	0.339
-596.025	-200.000	0.000	-0.248
-595.011	-42.628	0.108	0.071
-593.996	-2.584	-0.153	0.139
-592.982	499.700	-0.116	-0.347
-591.967	-68.357	-0.488	-0.245
-590.952	123.745	-0.089	0.144
-589.938	68.295	-0.068	0.090
-588.923	-200.000	0.041	0.435
-587.909	-57.263	0.350	0.199
-586.894	-26.357	-0.144	-0.109
-585.879	-200.000	0.014	0.080
-584.865	20.053	-0.233	-0.243
-583.850	84.679	0.160	-0.227
-582.836	158.911	0.266	0.480
-581.821	627.895	-0.059	0.193
-580.806	-155.947	0.117	-0.009
-579.792	800.000	-0.012	0.049
-578.777	-200.000	0.051	0.453
-577.763	-200.000	0.006	0.095
-576.748	-200.000	0.064	0.417
-575.733	-122.526	0.261	-0.054
-574.719	800.000	-0.060	-0.277
-573.704	237.884	-0.348	-0.750
-572.690	-200.000	-0.037	0.226
-571.675	-39.680	0.088	0.059
-570.661	346.389	-0.101	0.258
-569.646	-200.000	-0.059	0.678
-568.631	-186.395	-0.067	0.001
-567.617	-85.529	-0.106	-0.042
-566.602	-117.794	-0.746	0.172
-565.588	797.337	0.072	-0.257
-564.573	50.143	0.181	0.222
-563.558	-28.389	-0.078	-0.058
-562.544	-13.138	-0.091	-0.076
-561.529	-100.678	0.122	0.039
-560.515	-86.083	-0.319	-0.127
-559.500	-17.057	-0.112	0.091
-558.485	19.099	-0.177	0.184
-557.471	370.078	0.060	-0.159
-556.456	62.899	0.249	0.323
-555.442	213.701	0.081	0.166
-554.427	-94.148	-0.323	0.114
-553.412	-80.710	-0.337	-0.144
-552.398	800.000	-0.054	-0.198
-551.383	-54.938	0.152	0.089
-550.369	-137.412	0.261	-0.038
-549.354	381.857	0.195	-0.521
-548.339	-114.170	-0.072	0.018
-547.325	-81.808	0.493	-0.208
-546.310	-200.000	-0.015	-0.177
-545.296	-200.000	0.040	-0.360
-544.281	-87.974	0.115	-0.045
-543.266	-41.841	-0.094	0.062
-542.252	33.641	-0.232	-0.260
-541.237	399.926	0.119	0.325
-540.223	-109.938	-0.329	-0.089
-539.208	379.295	0.098	0.262
-538.193	408.726	-0.229	-0.628
-537.179	-200.000	0.233	0.001
-536.164	105.257	0.263	-0.402
-535.150	-182.165	0.238	-0.006
-534.135	442.005	0.053	0.150
-533.121	-21.199	-0.010	0.008
-532.106	-132.149	-0.198	0.033
-531.091	100.886	-0.082	0.124
-530.077	-78.715	-0.071	0.031
-529.062	-137.152	0.172	-0.025
-528.048	6.772	0.174	0.167
-527.033	19.392	-0.249	0.259
-526.018	-132.671	0.184	-0.030
-525.004	-74.539	-0.432	-0.200
-523.989	-28.890	-0.505	0.374
-522.975	-90.144	-0.322	0.121
-521.960	14.672	0.358	0.362
-520.945	-91.849	-0.498	-0.182
-519.931	10.653	-0.351	0.345
-518.916	-72.759	-0.294	-0.139
-517.902	800.000	-0.068	0.341
-516.887	-200.000	0.112	-0.001
-515.872	-122.291	0.404	-0.084
-514.858	-56.346	0.179	-0.102
-513.843	-55.803	0.142	0.082
-512.829	-136.196	0.081	0.012
-511.814	-117.899	0.296	0.068
-510.799	137.705	0.140	0.236
-509.785	11.626	-0.144	0.143
-508.770	304.695	0.116	-0.279
-507.756	59.181	-0.311	0.396
-506.741	-67.386	-0.420	0.212
-505.726	-36.222	0.127	0.088
-504.712	767.934	0.074	-0.263
-503.697	360.495	-0.105	-0.274
-502.683	-87.643	-0.258	-0.100
-501.668	800.000	-0.061	-0.292
-500.653	116.650	0.149	-0.237
-499.639	-80.840	-0.308	0.131
-498.624	515.646	-0.178	0.539
-497.610	-200.000	0.015	-0.690
-496.595	-200.000	0.007	0.316
-495.581	-111.901	-0.533	-0.138
-494.566	-105.966	-0.447	0.129
-493.551	170.666	-0.265	-0.491
-492.537	-97.561	0.136	0.045
-491.522	-73.261	0.327	-0.154
-490.508	-166.144	0.430	0.023
-489.493	-95.365	0.147	0.051
-488.478	88.114	0.190	-0.273
-487.464	-38.263	0.117	0.080
-486.449	-41.025	0.368	-0.245
-485.435	-150.135	0.214	0.021
-484.420	-170.677	-0.236	0.010
-483.405	800.000	-0.086	-0.343
-482.391	67.138	0.337	-0.444
-481.376	-41.558	-0.396	0.262
-480.362	800.000	0.066	0.332
-479.347	246.530	0.065	-0.142
-478.332	462.174	-0.111	0.321
-477.318	-109.079	0.088	0.024
-476.303	-64.678	0.109	-0.057
-475.289	417.237	-0.249	0.688
-474.274	-151.080	-0.335	0.032
-473.259	36.447	-0.169	-0.193
-472.245	-135.849	0.412	0.062
-471.230	800.000	-0.080	0.314
-470.216	-161.119	-0.534	-0.035
-469.201	83.525	-0.122	-0.172
-468.186	-200.000	0.001	0.301
-467.172	-200.000	0.027	-0.156
-466.157	-200.000	-0.031	-0.226
-465.143	-93.461	-0.257	-0.091
-464.128	-85.102	-0.029	-0.012
-463.113	-4.995	-0.040	0.035
-462.099	-140.100	0.404	-0.054
-461.084	-82.337	-0.317	-0.132
-460.070	-200.000	-0.051	-0.343
-459.055	-200.000	0.090	-0.639
-458.040	-65.235	0.217	0.112
-457.026	201.864	-0.219	0.436
-456.011	-200.000	0.002	0.064
-454.997	-115.530	0.272	-0.065
-453.982	-68.890	0.081	0.040
-452.968	-200.000	0.008	0.246
-451.953	-200.000	-0.061	-0.672
-450.938	73.589	-0.125	-0.169
-449.924	-49.570	0.129	0.079
-448.909	298.061	-0.083	-0.197
-447.895	-15.074	-0.263	0.216
-446.880	-96.496	-0.230	0.078
-445.865	11.406	0.088	0.087
-444.851	-123.824	0.013	0.003
-443.836	-200.000	0.007	0.123
-442.822	800.000	0.068	-0.263
-441.807	800.000	0.138	-0.520
-440.792	216.964	-0.259	-0.533
-439.778	98.577	0.043	0.064
-438.763	800.000	0.121	-0.577
-437.749	-17.750	-0.258	-0.208
-436.734	-117.811	0.875	-0.201
-435.719	-107.494	-0.451	0.126
-434.705	110.843	-0.076	0.117
-433.690	394.939	-0.193	0.521
-432.676	55.378	0.201	0.251
-431.661	16.847	-0.238	-0.242
-430.646	-200.000	-0.078	0.000
-429.632	19.876	-0.265	0.275
-428.617	37.100	-0.188	-0.215
-427.603	-108.140	-0.510	0.141
-426.588	-107.348	0.218	0.061
-425.573	100.221	-0.216	-0.324
-424.559	800.000	0.139	-0.500
-423.544	-161.361	-0.152	0.010
-422.530	-27.247	-0.277	-0.207
-421.515	82.711	0.208	-0.291
-420.500	287.681	-0.061	0.144
-419.486	-107.510	0.225	-0.063
-418.471	-20.250	-0.103	-0.081
-417.457	311.777	0.048	0.117
-416.442	-200.000	0.003	0.421
-415.428	108.127	0.122	-0.187
-414.413	216.905	0.036	0.075
-413.398	84.570	0.420	0.592
-412.384	-61.843	0.197	0.106
-411.369	84.789	-0.140	0.198
-410.355	124.472	-0.287	0.465
-409.340	-85.237	-0.146	0.058
-408.325	-132.512	-0.438	-0.072
-407.311	-59.969	-0.205	-0.112
-406.296	800.000	-0.058	0.288
-405.282	-151.110	-0.428	0.041
-404.267	-89.179	-0.384	-0.145
-403.252	-54.899	0.243	-0.140
-402.238	392.720	0.139	-0.374
-401.223	15.451	0.130	-0.131
-400.209	800.000	0.047	0.177
-399.194	-185.790	-0.776	0.015
-398.179	71.990	-0.152	0.203
-397.165	115.238	-0.161	0.254
-396.150	-157.707	0.206	-0.016
-395.136	-131.572	0.349	-0.059
-394.121	-35.752	0.242	0.168
-393.106	-200.000	-0.013	0.084
-392.092	93.934	0.350	0.511
-391.077	48.793	0.109	0.132
-390.063	-150.193	-0.200	-0.020
-389.048	-200.000	0.015	0.140
-388.033	202.393	0.227	0.453
-387.019	76.422	0.099	0.135
-386.004	-200.000	0.002	-0.262
-384.990	-34.993	-0.125	-0.088
-383.975	313.658	0.058	-0.142
-382.960	800.000	0.049	0.274
-381.946	-142.629	0.133	0.017
-380.931	101.420	0.343	0.514
-379.917	-79.021	0.135	0.059
-378.902	-50.900	0.369	-0.222
-377.888	800.000	-0.048	-0.178
-376.873	17.544	0.093	0.094
-375.858	-169.443	-0.365	-0.017
-374.844	577.707	-0.159	-0.502
-373.829	176.064	0.195	0.365
-372.815	-200.000	0.072	0.534
-371.800	-108.468	0.444	0.122
-370.785	-200.000	-0.523	0.001
-369.771	304.687	-0.142	-0.341
-368.756	-3.742	0.221	-0.197
-367.742	581.258	-0.071	-0.224
-366.727	-69.938	-0.863	0.421
-365.712	76.534	0.225	0.306
-364.698	-24.868	0.479	0.364
-363.683	-119.712	0.378	-0.083
-362.669	-73.020	0.053	0.025
-361.654	800.000	0.025	-0.126
-360.639	-180.848	-0.273	-0.007
-359.625	19.448	0.277	0.285
-358.610	-138.547	-0.167	0.023
-357.596	-85.931	-0.352	-0.139
-356.581	-136.294	-0.144	0.021
-355.566	-22.325	0.169	-0.131
-354.552	-200.000	0.043	0.389
-353.537	-91.356	0.236	0.086
-352.523	148.179	-0.106	0.184
-351.508	105.094	-0.157	-0.238
-350.493	-85.310	-0.246	-0.098
-349.479	-52.383	-0.050	0.030
-348.464	341.635	0.103	0.260
-347.450	-25.009	-0.198	-0.150
-346.435	122.164	0.176	0.283
-345.420	-200.000	-0.070	0.446
-344.406	-66.980	-0.080	0.040
-343.391	342.628	0.179	-0.450
-342.377	800.000	-0.047	0.212
-341.362	-83.505	-0.367	0.150
-340.348	-200.000	-0.009	0.317
-339.333	-32.021	0.228	-0.163
-338.318	84.453	-0.265	-0.372
-337.304	-50.031	0.110	-0.067
-336.289	-200.000	-0.026	0.317
-335.275	662.594	-0.082	0.272
-334.260	0.711	0.174	-0.160
-333.245	-126.329	0.357	-0.068
-332.231	416.656	-0.097	0.265
-331.216	-86.713	-0.509	-0.199
-330.202	-150.306	0.338	0.033
-329.187	-57.932	-0.064	-0.036
-328.172	225.127	0.144	-0.300
-327.158	-115.337	-0.319	0.077
-326.143	-67.036	-0.306	0.154
-325.129	-200.000	0.017	-0.140
-324.114	-65.845	0.246	-0.126
-323.099	-147.197	0.411	0.044
-322.085	400.287	-0.079	-0.213
-321.070	800.000	0.050	-0.226
-320.056	-39.525	0.329	0.221
-319.041	-62.960	-0.447	0.236
-318.026	800.000	-0.136	-0.745
-317.012	800.000	-0.051	0.217
-315.997	800.000	0.054	-0.215
-314.983	22.830	0.186	-0.195
-313.968	111.034	-0.272	-0.421
-312.953	-200.000	0.028	-0.374
-311.939	-200.000	0.012	-0.292
-310.924	-67.215	0.604	0.304
-309.910	-91.757	0.408	-0.148
-308.895	198.310	0.254	-0.499
-307.880	-160.068	0.434	-0.030
-306.866	111.813	-0.254	-0.394
-305.851	15.257	0.050	-0.050
-304.837	132.144	0.109	0.180
-303.822	-6.464	-0.374	0.327
-302.807	92.715	-0.040	0.057
-301.793	140.113	0.162	0.274
-300.778	-200.000	-0.013	-0.557
-299.764	-164.262	-0.336	-0.019
-298.749	-200.000	-0.019	-0.432
-297.735	129.096	-0.111	0.181
-296.720	-200.000	-0.006	0.632
-295.705	438.960	-0.242	-0.681
-294.691	-98.373	0.496	-0.162
-293.676	-200.000	-0.016	-0.371
-292.662	-63.589	0.381	0.200
-291.647	44.312	0.222	0.261
-290.632	-142.660	-0.097	-0.012
-289.618	115.050	0.135	0.211
-288.603	-105.261	-0.180	0.052
-287.589	-200.000	-0.102	0.779
-286.574	-80.827	-0.445	0.188
-285.559	28.609	0.382	-0.414
-284.545	-163.884	-0.289	0.017
-283.530	-12.368	-0.356	-0.298
-282.516	-200.000	-0.077	0.622
-281.501	-135.255	-0.228	-0.035
-280.486	-129.966	0.101	-0.018
-279.472	-105.458	0.518	-0.150
-278.457	73.112	-0.389	0.520
-277.443	-125.949	-0.115	-0.022
-276.428	-200.000	0.010	0.260
-275.413	-200.000	-0.012	0.130
-274.399	1.429	0.204	0.187
-273.384	-127.176	0.519	-0.096
-272.370	51.769	0.343	0.418
-271.355	-52.085	0.392	-0.232
-270.340	-200.000	-0.019	-0.208
-269.326	-11.294	0.249	-0.210
-268.311	27.386	0.228	-0.246
-267.297	556.778	0.015	-0.048
-266.282	-87.670	0.192	-0.074
-265.267	-63.854	0.389	-0.203
-264.253	-151.244	0.348	0.033
-263.238	-132.363	-0.117	-0.019
-262.224	328.915	0.095	-0.235
-261.209	-194.920	0.227	-0.002
-260.195	-14.005	-0.187	0.155
-259.180	-43.938	0.264	0.169
-258.165	-200.000	-0.043	0.562
-257.151	182.691	-0.065	-0.123
-256.136	-200.000	-0.043	-0.585
-255.122	-200.000	-0.109	-0.766
-254.107	-78.693	-0.444	0.193
-253.092	113.684	-0.188	-0.293
-252.078	59.332	0.504	-0.636
-251.063	38.195	0.192	-0.219
-250.049	-194.573	0.044	-0.000
-249.034	65.944	0.189	0.245
-248.019	64.346	-0.095	-0.123
-247.005	-49.114	0.392	-0.239
-245.990	-66.500	-0.344	0.174
-244.976	800.000	0.092	-0.351
-243.961	697.946	-0.150	0.506
-242.946	-141.271	-0.521	0.067
-241.932	-112.247	-0.218	0.056
-240.917	-113.377	-0.378	-0.094
-239.903	-42.225	-0.389	-0.253
-238.888	411.584	0.128	0.349
-237.873	-41.015	-0.320	-0.210
-236.859	69.798	0.304	-0.401
-235.844	138.925	0.061	-0.103
-234.830	800.000	0.020	-0.099
-233.815	192.002	0.199	0.384
-232.800	-41.492	0.129	-0.085
-231.786	-115.940	0.337	0.080
-230.771	-200.000	0.001	-0.238
-229.757	-155.811	0.198	-0.016
-228.742	-17.891	-0.432	-0.345
-227.727	-71.637	0.289	-0.137
-226.713	-38.943	0.279	-0.187
-225.698	223.744	0.203	-0.420
-224.684	-96.932	0.480	0.160
-223.669	-74.798	0.258	0.118
-222.655	588.631	0.206	0.652
-221.640	-200.000	-0.041	0.526
-220.625	-59.961	0.310	-0.168
-219.611	52.488	0.070	0.085
-218.596	-197.823	0.225	-0.002
-217.582	85.272	-0.243	0.341
-216.567	-200.000	-0.002	-0.110
-215.552	-153.063	0.473	-0.042
-214.538	-200.000	0.005	-0.384
-213.523	-135.447	0.522	-0.079
-212.509	21.231	0.178	-0.184
-211.494	-200.000	0.037	-0.650
-210.479	628.961	-0.149	-0.483
-209.465	-136.765	0.361	-0.052
-208.450	-200.000	-0.014	-0.095
-207.436	-45.329	-0.375	0.237
-206.421	-200.000	0.095	0.587
-205.406	115.553	-0.262	-0.410
-204.392	56.029	-0.201	0.249
-203.377	-89.392	-0.282	-0.106
-202.363	-200.000	0.028	-0.334
-201.348	-4.452	0.225	-0.198
-200.333	-181.661	-0.377	-0.009
-199.319	-60.151	0.086	-0.047
-198.304	27.445	0.200	-0.214
-197.290	-200.000	-0.025	0.255
-196.275	-22.580	0.280	-0.216
-195.260	249.390	-0.126	-0.273
-194.246	-200.000	0.039	-0.278
-193.231	-3.528	0.252	-0.223
-192.217	-141.120	-0.240	0.031
-191.202	-200.000	-0.023	0.200
-190.187	373.745	0.260	-0.678
-189.173	-24.730	0.187	0.142
-188.158	782.142	0.074	-0.260
-187.144	-35.542	0.450	-0.311
-186.129	-95.343	0.255	0.087
-185.114	-190.576	0.082	-0.001
-184.100	19.047	-0.168	0.172
-183.085	88.416	0.326	0.463
-182.071	-36.233	-0.450	0.309
-181.056	-33.253	0.240	-0.169
-180.042	-150.670	-0.410	0.039
-179.027	-94.091	0.508	-0.177
-178.012	-57.615	0.246	-0.137
-176.998	723.414	-0.152	0.517
-175.983	-112.839	0.234	-0.059
-174.969	-75.193	0.356	0.161
-173.954	-66.247	0.261	-0.132
-172.939	-200.000	0.005	0.712
-171.925	-101.319	-0.535	0.165
-170.910	800.000	0.085	0.355
-169.896	-200.000	-0.043	0.649
-168.881	89.998	-0.055	0.079
-167.866	-40.448	0.259	-0.171
-166.852	-31.997	0.076	0.054
-165.837	800.000	0.083	0.451
-164.823	93.648	0.150	-0.216
-163.808	203.499	0.067	0.133
-162.793	-160.020	-0.265	0.018
-161.779	-134.161	-0.155	0.024
-160.764	-30.314	0.111	0.080
-159.750	212.577	0.178	-0.358
-158.735	254.877	0.063	-0.138
-157.720	-200.000	-0.042	0.402
-156.706	-111.320	-0.150	0.039
-155.691	-125.139	0.250	-0.048
-154.677	144.005	0.332	0.566
-153.662	-97.129	-0.133	0.044
-152.647	-75.122	0.047	-0.022
-151.633	-113.015	-0.458	0.114
-150.618	260.513	-0.116	0.256
-149.604	11.605	-0.408	-0.398
-148.589	-124.165	-0.245	0.048
-147.574	377.310	0.004	-0.011
-146.560	-32.574	-0.330	0.233
-145.545	-93.793	0.317	-0.111
-144.531	-94.661	-0.211	-0.073
-143.516	-45.457	0.232	0.146
-142.502	-56.147	-0.204	0.115
-141.487	-129.695	0.152	-0.026
-140.472	2.637	-0.125	0.116
-139.458	437.100	-0.047	0.132
-138.443	-84.808	-0.291	0.116
-137.429	113.543	0.135	0.209
-136.414	47.155	0.160	0.190
-135.399	-87.146	0.445	-0.171
-134.385	-72.395	-0.164	0.077
-133.370	-30.329	-0.129	-0.093
-132.356	34.805	0.143	0.159
-131.341	132.144	-0.171	-0.281
-130.326	83.532	-0.193	0.267
-129.312	-46.093	-0.028	-0.018
-128.297	-196.364	0.395	0.003
-127.283	-85.555	-0.134	0.053
-126.268	-167.162	-0.202	0.010
-125.253	-29.895	-0.369	0.267
-124.239	-69.350	-0.336	-0.163
-123.224	180.879	-0.123	0.231
-122.210	615.341	-0.108	0.345
-121.195	-200.000	0.017	0.235
-120.180	48.250	0.213	0.254
-119.166	-156.016	0.233	-0.018
-118.151	-70.340	-0.271	0.130
-117.137	-200.000	-0.074	0.630
-116.122	-111.699	0.366	0.094
-115.107	-167.048	-0.485	-0.025
-114.093	-74.696	-0.484	-0.220
-113.078	-200.000	-0.049	-0.366
-112.064	-47.487	0.123	-0.076
-111.049	800.000	-0.093	0.345
-110.034	-80.848	-0.275	-0.116
-109.020	53.738	0.100	-0.122
-108.005	94.270	0.032	-0.046
-106.991	101.035	0.148	0.219
-105.976	13.369	0.072	-0.071
-104.962	216.035	-0.141	0.287
-103.947	-71.129	-0.332	0.158
-102.932	-200.000	0.025	-0.395
-101.918	-200.000	0.024	-0.320
-100.903	-136.320	-0.605	0.089
-99.889	157.676	-0.095	-0.167
-98.874	800.000	0.081	0.453
-97.859	-107.480	-0.347	0.096
-96.845	250.578	-0.245	0.530
-95.830	-105.249	-0.377	0.108
-94.816	607.933	0.109	0.349
-93.801	233.295	-0.198	-0.416
-92.786	-39.343	-0.243	-0.162
-91.772	73.572	0.263	-0.350
-90.757	205.065	-0.067	-0.133
-89.743	-61.742	-0.304	-0.161
-88.728	25.696	0.260	-0.275
-87.713	787.135	-0.172	0.602
-86.699	-34.522	-0.479	0.333
-85.684	166.353	-0.202	0.364
-84.670	-200.000	-0.018	-0.239
-83.655	-71.568	0.445	0.210
-82.640	357.001	-0.288	0.731
-81.626	-69.390	0.294	0.143
-80.611	-135.007	-0.289	-0.044
-79.597	174.841	-0.133	0.245
-78.582	0.025	-0.287	0.259
-77.567	90.362	-0.236	0.336
-76.553	127.130	0.212	0.342
-75.538	-72.131	-0.372	-0.174
-74.524	113.588	0.045	0.069
-73.509	-133.791	-0.362	0.057
-72.494	473.195	-0.018	-0.053
-71.480	-97.246	0.539	-0.177
-70.465	182.331	-0.217	-0.408
-69.451	-87.616	-0.490	-0.187
-68.436	353.240	-0.056	-0.143
-67.422	45.608	0.132	-0.155
-66.407	208.292	-0.168	-0.335
-65.392	-173.850	0.342	-0.013
-64.378	800.000	-0.064	-0.267
-63.363	343.970	-0.064	0.160
-62.349	378.115	0.039	-0.101
-61.334	56.957	-1.497	-1.853
-60.319	103.642	0.588	0.878
-59.305	248.380	-3.062	-6.597
-58.290	17.223	3.709	3.733
-57.276	507.485	3.669	10.858
-56.261	-200.000	17.900	262.127
-55.246	412.013	1229.242	3327.941
-54.232	56.371	2857.685	3526.278
-53.217	62.271	2732.830	3463.068
-52.203	37.596	2460.737	2770.864
-51.188	37.795	2116.112	2385.159
-50.173	34.268	1990.736	2202.837
-49.159	32.787	1980.474	2174.252
-48.144	32.329	1976.831	2164.874
-47.130	32.292	1974.644	2161.960
-46.115	32.394	1972.712	2160.933
-45.100	32.256	1971.967	2158.442
-44.086	32.369	1969.612	2157.084
-43.071	32.265	1968.533	2154.620
-42.057	32.276	1967.076	2153.058
-41.042	32.165	1966.262	2150.808
-40.027	32.145	1964.589	2148.660
-39.013	32.123	1962.495	2146.035
-37.998	32.223	1961.675	2146.199
-36.984	32.201	1960.225	2144.275
-35.969	32.216	1958.367	2142.335
-34.954	32.123	1957.757	2140.516
-33.940	32.207	1956.179	2139.670
-32.925	32.078	1954.974	2136.792
-31.911	32.085	1953.597	2135.276
-30.896	32.068	1952.810	2134.143
-29.881	31.939	1951.864	2131.551
-28.867	32.017	1949.765	2130.059
-27.852	32.132	1946.908	2128.168
-26.838	32.020	1946.404	2126.247
-25.823	31.970	1946.047	2125.203
-24.809	31.985	1944.765	2123.898
-23.794	31.980	1942.969	2121.795
-22.779	32.045	1941.002	2120.303
-21.765	31.955	1940.133	2118.239
-20.750	31.928	1938.813	2116.407
-19.736	32.041	1937.398	2116.069
-18.721	31.949	1936.222	2113.655
-17.706	32.073	1934.548	2113.142
-16.692	31.885	1933.455	2109.743
-15.677	31.901	1932.800	2109.119
-14.663	31.779	1931.605	2106.358
-13.648	31.869	1929.557	2105.053
-12.633	31.727	1928.660	2102.397
-11.619	31.792	1926.932	2101.153
-10.604	31.816	1926.289	2100.648
-9.590	31.828	1925.652	2099.997
-8.575	31.839	1923.499	2097.691
-7.560	31.829	1922.323	2096.219
-6.546	31.780	1921.020	2094.161
-5.531	31.754	1920.223	2092.913
-4.517	31.807	1918.935	2092.029
-3.502	31.805	1918.277	2091.207
-2.487	31.915	1916.486	2090.400
-1.473	31.900	1912.487	2085.789
-0.458	31.265	1892.105	2056.454
0.556	26.296	2028.243	2132.748
1.571	23.965	2241.724	2326.342
2.586	25.105	2285.062	2386.286
3.600	25.122	2288.871	2390.214
4.615	25.194	2288.010	2389.986
5.629	24.960	2286.388	2384.885
6.644	25.141	2282.667	2383.125
7.659	25.246	2281.506	2383.042
8.673	25.343	2279.840	2382.300
9.688	24.846	2287.034	2382.879
10.702	22.659	2361.350	2429.767
11.717	19.839	2427.444	2457.265
12.731	9.826	2402.309	2289.392
13.746	1.508	2379.039	2149.097
14.761	0.328	2374.804	2128.272
15.775	0.220	2372.703	2124.607
16.790	0.168	2370.822	2121.928
17.804	0.133	2369.518	2120.007
18.819	0.057	2369.288	2118.474
19.834	0.098	2367.149	2116.891
20.848	0.033	2366.031	2114.726
21.863	0.104	2364.181	2113.818
22.877	0.102	2361.925	2111.513
23.892	0.164	2359.596	2110.051
24.907	0.094	2357.092	2106.576
25.921	0.046	2355.763	2104.465
26.936	0.107	2353.647	2103.184
27.950	0.080	2351.387	2100.523
28.965	0.225	2347.842	2099.142
29.980	0.152	2347.671	2097.715
30.994	0.137	2345.869	2095.646
32.009	4.598	2360.454	2171.136
33.023	15.755	2393.309	2359.168
34.038	20.499	2401.453	2433.852
35.053	20.714	2398.520	2433.611
36.067	20.615	2396.098	2429.480
37.082	20.609	2394.689	2427.674
38.096	20.615	2392.089	2424.834
39.111	20.706	2390.689	2424.390
40.126	20.933	2388.583	2425.142
41.140	21.083	2385.887	2424.217
42.155	20.982	2385.137	2421.748
43.169	21.001	2383.216	2419.779
44.184	20.827	2379.763	2413.550
45.199	20.839	2377.709	2411.351
46.213	20.860	2376.968	2410.597
47.228	20.929	2374.864	2409.136
48.242	20.947	2373.789	2408.014
49.257	20.880	2372.356	2405.343
50.271	21.009	2369.656	2404.100
51.286	20.874	2367.272	2399.528
52.301	20.753	2365.543	2395.817
53.315	21.534	2368.734	2409.575
54.330	24.228	2375.557	2453.556
55.344	25.907	2375.737	2476.662
56.359	26.140	2373.805	2477.566
57.374	26.220	2372.108	2476.595
58.388	26.236	2369.550	2473.853
59.403	26.024	2365.556	2466.476
60.417	25.617	2361.947	2456.827
61.432	25.730	2360.641	2456.727
62.447	25.890	2359.067	2456.987
63.461	25.946	2357.978	2456.329
64.476	26.092	2354.362	2454.268
65.490	25.996	2353.176	2451.420
66.505	25.290	2349.582	2437.750
67.520	23.346	2342.462	2403.582
68.534	21.444	2333.832	2368.584
69.549	20.849	2328.790	2355.089
70.563	20.442	2326.940	2347.422
71.578	20.531	2323.858	2345.237
72.593	20.563	2323.372	2344.887
73.607	20.787	2321.189	2345.439
74.622	20.855	2319.352	2344.228
75.636	20.732	2316.740	2339.652
76.651	20.622	2314.162	2335.276
77.666	20.581	2312.259	2332.519
78.680	20.530	2309.616	2328.893
79.695	20.385	2307.696	2324.726
80.709	20.310	2306.394	2322.130
81.724	20.424	2303.425	2320.389
82.739	20.263	2301.353	2315.866
83.753	20.437	2299.551	2316.113
84.768	20.332	2297.390	2312.246
85.782	20.300	2297.506	2311.666
86.797	20.516	2294.026	2310.775
87.812	20.433	2292.983	2308.339
88.826	20.410	2291.365	2306.123
89.841	20.515	2288.414	2304.270
90.855	20.448	2286.404	2301.087
91.870	20.526	2284.932	2300.365
92.884	20.535	2283.468	2298.738
93.899	20.564	2282.267	2297.639
94.914	20.934	2285.546	2305.576
95.928	23.217	2291.435	2341.645
96.943	24.272	2290.374	2354.287
97.957	22.260	2280.763	2317.500
98.972	20.788	2274.394	2291.305
99.987	20.705	2271.037	2286.545
101.001	20.604	2267.985	2281.870
102.016	20.412	2267.255	2278.326
103.030	20.565	2263.367	2276.159
104.045	20.370	2260.417	2270.369
105.060	20.409	2259.297	2269.484
106.074	20.479	2258.207	2269.031
107.089	20.544	2255.907	2267.300
108.103	20.350	2255.276	2263.859
109.118	20.509	2252.887	2263.270
110.133	20.477	2251.535	2261.217
111.147	20.504	2249.352	2259.112
112.162	20.570	2248.123	2258.461
113.176	20.781	2245.422	2258.235
114.191	20.669	2243.950	2255.028
115.206	20.649	2242.475	2253.012
116.220	20.650	2240.384	2250.658
117.235	20.636	2238.848	2248.658
118.249	20.798	2237.102	2248.740
119.264	20.703	2236.242	2246.378
120.279	20.559	2233.693	2241.676
121.293	20.642	2231.873	2240.655
122.308	20.612	2230.575	2238.700
123.322	20.532	2229.608	2236.420
124.337	20.966	2229.271	2241.424
125.352	23.216	2236.237	2277.295
126.366	24.251	2235.842	2289.998
127.381	21.925	2225.372	2249.064
128.395	20.665	2220.660	2227.824
129.410	20.757	2217.534	2225.605
130.424	20.572	2216.040	2221.467
131.439	20.721	2214.753	2221.824
132.454	20.821	2212.745	2220.825
133.468	20.910	2210.241	2219.185
134.483	20.881	2209.789	2218.091
135.497	21.015	2207.642	2217.390
136.512	20.856	2205.281	2212.718
137.527	20.742	2203.339	2209.046
138.541	20.683	2201.113	2205.797
139.556	20.679	2200.917	2205.295
140.570	20.603	2199.571	2202.710
141.585	20.547	2197.665	2199.827
142.600	20.432	2195.873	2196.310
143.614	20.486	2194.401	2195.262
144.629	20.433	2192.202	2192.122
145.643	20.464	2190.255	2190.305
146.658	20.547	2188.292	2189.133
147.673	20.470	2186.212	2185.819
148.687	20.312	2185.590	2182.939
149.702	20.400	2184.666	2182.857
150.716	20.452	2183.818	2182.412
151.731	20.595	2181.558	2181.694
152.746	20.527	2180.966	2179.989
153.760	21.193	2184.089	2191.246
154.775	23.470	2190.595	2226.286
155.789	24.419	2189.086	2236.443
156.804	22.217	2179.952	2199.193
157.819	20.711	2171.681	2171.707
158.833	20.427	2168.349	2164.558
159.848	20.465	2165.962	2162.391
160.862	20.511	2164.060	2160.814
161.877	20.543	2164.010	2160.899
162.892	20.629	2163.326	2161.040
163.906	20.631	2162.444	2159.924
164.921	20.672	2159.604	2157.336
165.935	20.667	2157.309	2154.717
166.950	20.635	2156.146	2152.900
167.964	20.668	2153.795	2150.709
168.979	20.471	2151.924	2146.136
169.994	20.447	2150.144	2143.805
171.008	20.374	2147.853	2140.365
172.023	20.396	2146.589	2139.127
173.037	20.491	2146.411	2139.868
174.052	20.615	2144.170	2138.909
175.067	20.666	2142.995	2138.105
176.081	20.498	2142.064	2134.844
177.096	20.703	2140.181	2135.242
178.110	20.753	2138.974	2134.406
179.125	20.753	2137.588	2132.763
180.140	20.554	2136.336	2128.810
181.154	20.741	2135.137	2129.662
182.169	20.900	2134.489	2130.717
183.183	21.527	2136.669	2140.348
184.198	24.074	2142.269	2177.049
185.213	24.557	2140.157	2180.568
186.227	22.120	2130.466	2140.630
187.242	20.802	2126.431	2120.197
188.256	20.694	2124.451	2116.655
189.271	20.467	2123.642	2112.821
190.286	20.466	2120.681	2109.600
191.300	20.511	2118.110	2107.348
192.315	20.490	2116.428	2105.166
193.329	20.650	2116.045	2106.483
194.344	20.871	2114.381	2107.254
195.359	20.993	2114.215	2108.325
196.373	20.757	2111.892	2102.891
197.388	20.626	2109.255	2098.417
198.402	20.669	2106.117	2095.566
199.417	20.649	2104.239	2093.205
200.432	20.471	2102.863	2089.432
201.446	20.499	2102.073	2088.741
202.461	20.489	2099.052	2085.368
203.475	20.574	2097.480	2084.580
204.490	20.373	2095.672	2080.118
205.504	20.441	2093.649	2078.675
206.519	20.550	2091.848	2077.950
207.534	20.306	2090.146	2073.076
208.548	20.421	2088.720	2072.794
209.563	20.450	2088.675	2072.852
210.577	20.650	2087.309	2073.643
211.592	20.653	2085.394	2071.525
212.607	21.660	2089.603	2087.536
213.621	24.212	2096.528	2124.827
214.636	24.053	2092.237	2118.321
215.650	21.648	2083.014	2080.057
216.665	20.755	2078.603	2064.762
217.680	20.738	2075.295	2061.030
218.694	20.488	2073.904	2056.429
219.709	20.301	2073.553	2053.607
220.723	20.430	2072.157	2053.514
221.738	20.574	2070.707	2053.538
222.753	20.703	2068.017	2052.152
223.767	20.650	2067.422	2050.687
224.782	20.700	2064.610	2048.243
225.796	20.726	2062.979	2046.693
226.811	20.668	2061.613	2044.403
227.826	20.671	2060.328	2042.926
228.840	20.575	2058.976	2040.207
229.855	20.570	2057.429	2038.373
230.869	20.611	2055.965	2037.156
231.884	20.580	2054.787	2035.386
232.899	20.617	2052.978	2033.780
233.913	20.577	2051.819	2031.923
234.928	20.557	2050.550	2030.190
235.942	20.496	2048.801	2027.500
236.957	20.507	2047.182	2025.776
237.972	20.575	2046.757	2025.909
238.986	20.417	2045.282	2022.364
240.001	20.536	2042.949	2021.207
241.015	20.524	2042.423	2020.301
242.030	21.264	2044.204	2030.472
243.045	23.609	2049.977	2063.398
244.059	24.297	2047.658	2068.851
245.074	21.845	2038.237	2030.583
246.088	20.845	2034.343	2014.833
247.103	20.901	2032.280	2013.207
248.117	20.981	2030.444	2012.073
249.132	20.772	2029.360	2008.331
250.147	20.679	2026.607	2004.288
251.161	20.543	2025.189	2001.074
252.176	20.715	2024.163	2001.809
253.190	20.693	2021.339	1998.522
254.205	20.656	2019.458	1995.998
255.220	20.610	2018.019	1993.812
256.234	20.452	2017.325	1991.065
257.249	20.507	2016.465	1990.615
258.263	20.463	2014.969	1988.386
259.278	20.453	2014.172	1987.250
260.293	20.441	2012.284	1985.006
261.307	20.514	2010.388	1983.744
262.322	20.490	2008.546	1981.409
263.336	20.405	2006.966	1978.643
264.351	20.406	2004.515	1975.995
265.366	20.489	2003.070	1975.292
266.380	20.453	2002.883	1974.455
267.395	20.450	2001.142	1972.467
268.409	20.382	1999.650	1969.988
269.424	20.425	1997.989	1968.598
270.439	20.351	1998.264	1967.791
271.453	21.362	1999.642	1980.434
272.468	23.979	2004.755	2015.092
273.482	24.252	2002.132	2015.317
274.497	21.695	1992.346	1976.276
275.512	20.654	1987.225	1959.180
276.526	20.391	1985.518	1954.291
277.541	20.386	1984.091	1952.597
278.555	20.315	1982.350	1949.852
279.570	20.327	1980.616	1948.044
280.585	20.459	1979.654	1948.355
281.599	20.443	1978.674	1946.974
282.614	20.459	1977.249	1945.521
283.628	20.669	1976.611	1947.018
284.643	20.689	1976.080	1946.485
285.657	20.893	1973.646	1946.152
286.672	20.863	1971.796	1943.755
287.687	20.686	1969.686	1939.457
288.701	20.643	1968.430	1937.511
289.716	20.687	1967.214	1936.570
290.730	20.661	1965.564	1934.429
291.745	20.798	1964.219	1934.402
292.760	20.760	1964.109	1933.638
293.774	20.510	1963.190	1929.716
294.789	20.507	1961.492	1927.780
295.803	20.509	1959.180	1925.296
296.818	20.566	1958.148	1924.686
297.833	20.729	1956.855	1924.999
298.847	20.617	1955.810	1922.498
299.862	20.784	1954.518	1922.848
300.876	21.256	1956.045	1929.363
301.891	23.978	1962.218	1965.492
302.906	24.631	1960.538	1970.808
303.920	21.823	1951.407	1930.373
304.935	20.814	1946.931	1914.565
305.949	20.823	1944.325	1911.877
306.964	20.757	1943.343	1909.951
307.979	20.608	1941.366	1906.139
308.993	20.534	1939.607	1903.373
310.008	20.597	1937.046	1901.319
311.022	20.664	1935.953	1900.759
312.037	20.570	1933.982	1897.561
313.052	20.500	1932.561	1895.179
314.066	20.425	1930.983	1892.579
315.081	20.494	1930.131	1892.278
316.095	20.364	1929.024	1889.537
317.110	20.259	1926.784	1885.972
318.125	20.059	1924.621	1881.444
319.139	20.058	1924.387	1880.984
320.154	20.275	1922.488	1881.267
321.168	20.341	1920.577	1879.887
322.183	20.364	1919.562	1878.915
323.197	20.451	1919.621	1879.703
324.212	20.444	1917.069	1876.898
325.227	20.428	1915.816	1875.270
326.241	20.375	1913.410	1872.123
327.256	20.656	1911.238	1872.813
328.270	20.437	1911.438	1870.413
329.285	20.442	1911.050	1869.860
330.300	21.263	1914.727	1882.132
331.314	24.007	1919.855	1916.696
332.329	24.355	1915.569	1915.945
333.343	21.587	1907.106	1877.461
334.358	20.445	1903.458	1861.352
335.373	20.393	1901.220	1858.381
336.387	20.348	1899.080	1855.587
337.402	20.343	1897.694	1853.959
338.416	20.458	1896.934	1854.222
339.431	20.573	1895.701	1854.025
340.446	20.477	1893.786	1850.904
341.460	20.452	1892.355	1849.020
342.475	20.648	1890.370	1848.953
343.489	20.360	1889.692	1844.996
344.504	20.293	1887.632	1842.045
345.519	20.431	1885.752	1841.459
346.533	20.541	1884.118	1840.818
347.548	20.519	1883.429	1839.691
348.562	20.466	1882.316	1837.823
349.577	20.511	1881.843	1837.617
350.592	20.676	1881.317	1838.632
351.606	20.663	1879.975	1836.965
352.621	20.623	1876.929	1833.347
353.635	20.440	1876.611	1830.870
354.650	20.337	1875.176	1828.164
355.665	20.549	1872.606	1827.686
356.679	20.674	1871.334	1827.541
357.694	20.748	1871.030	1827.810
358.708	20.701	1869.531	1825.630
359.723	21.621	1873.156	1838.666
360.738	24.345	1877.986	1871.963
361.752	24.198	1874.576	1866.791
362.767	21.905	1866.022	1833.989
363.781	20.906	1862.492	1819.813
364.796	20.724	1861.165	1816.389
365.810	20.706	1859.443	1814.307
366.825	20.612	1858.117	1811.808
367.840	20.365	1856.394	1807.334
368.854	20.228	1854.943	1804.268
369.869	20.313	1852.672	1802.729
370.883	20.403	1851.536	1802.352
371.898	20.447	1851.149	1802.216
372.913	20.458	1849.347	1800.358
373.927	20.416	1846.718	1797.150
374.942	20.330	1846.325	1795.654
375.956	20.593	1845.449	1797.320
376.971	20.538	1844.313	1795.434
377.986	20.493	1842.714	1793.188
379.000	20.386	1841.614	1790.800
380.015	20.471	1840.158	1790.053
381.029	20.486	1838.091	1787.979
382.044	20.449	1836.239	1785.581
383.059	20.450	1834.523	1783.712
384.073	20.505	1834.201	1783.747
385.088	20.488	1833.499	1782.682
386.102	20.516	1832.064	1781.356
387.117	20.441	1830.144	1778.505
388.132	20.448	1829.256	1777.503
389.146	21.240	1833.478	1789.556
390.161	24.010	1837.067	1821.383
391.175	24.118	1831.470	1816.724
392.190	21.843	1822.373	1784.243
393.205	20.870	1819.547	1771.322
394.219	20.599	1817.765	1766.613
395.234	20.408	1817.388	1764.085
396.248	20.542	1815.162	1763.073
397.263	20.657	1812.112	1761.077
398.278	20.733	1811.030	1760.587
399.292	20.517	1810.501	1757.658
400.307	20.425	1810.086	1756.112
401.321	20.553	1807.782	1754.963
402.336	20.368	1806.508	1751.648
403.350	20.322	1805.502	1749.996
404.365	20.615	1803.966	1751.265
405.380	20.692	1802.706	1750.609
406.394	20.536	1800.833	1747.005
407.409	20.521	1799.599	1745.443
408.423	20.608	1798.152	1744.709
409.438	20.559	1796.449	1742.353
410.453	20.588	1795.628	1741.642
411.467	20.598	1794.184	1740.139
412.482	20.484	1792.913	1737.546
413.496	20.503	1792.173	1736.816
414.511	20.604	1790.862	1736.353
415.526	20.645	1788.992	1734.741
416.540	20.746	1786.493	1733.118
417.555	20.733	1786.033	1732.331
418.569	20.838	1787.776	1734.868
419.584	20.827	1786.485	1733.298
420.599	20.853	1785.243	1732.151
421.613	20.878	1783.688	1730.679
422.628	20.687	1782.925	1727.828
423.642	20.710	1780.630	1725.628
424.657	20.595	1779.053	1722.748
425.672	20.803	1778.133	1723.719
426.686	20.784	1777.021	1722.249
427.701	20.741	1776.283	1720.898
428.715	20.990	1774.445	1721.382
429.730	21.017	1773.485	1720.506
430.745	21.011	1772.212	1719.007
431.759	21.053	1771.547	1718.572
432.774	21.281	1771.617	1720.697
433.788	21.512	1770.556	1721.743
434.803	21.509	1770.504	1721.455
435.818	21.469	1770.135	1720.492
436.832	21.483	1769.014	1719.338
437.847	20.871	1762.694	1706.970
438.861	12.564	1738.181	1602.025
439.876	2.488	1719.450	1486.614
440.890	0.405	1714.893	1462.206
441.905	0.088	1713.603	1457.851
442.920	0.076	1712.713	1456.798
443.934	0.270	1710.794	1456.881
444.949	0.181	1710.161	1455.298
445.963	0.207	1709.223	1454.581
446.978	0.170	1708.628	1453.540
447.993	0.029	1707.692	1451.201
449.007	0.231	1704.663	1450.408
450.022	0.095	1702.536	1447.108
451.036	0.270	1701.469	1447.719
452.051	1.110	1705.740	1459.312
453.066	10.110	1727.393	1565.556
454.080	19.745	1743.499	1674.192
455.095	22.614	1748.865	1707.109
456.109	24.290	1751.509	1725.808
457.124	24.891	1750.701	1730.648
458.139	24.710	1749.791	1727.783
459.153	24.679	1748.757	1726.254
460.168	24.731	1746.422	1724.243
461.182	24.642	1746.066	1722.821
462.197	24.647	1743.980	1720.608
463.212	24.459	1742.010	1716.644
464.226	24.499	1740.993	1715.824
465.241	25.016	1740.162	1719.788
466.255	25.110	1740.006	1720.332
467.270	25.280	1737.931	1719.711
468.285	24.909	1735.743	1713.775
469.299	24.629	1734.718	1709.870
470.314	24.800	1734.059	1710.657
471.328	24.968	1732.330	1710.360
472.343	25.042	1731.169	1709.718
473.358	24.966	1730.342	1707.963
474.372	25.096	1729.075	1707.755
475.387	25.053	1727.471	1705.556
476.401	24.818	1725.564	1701.222
477.416	24.714	1724.305	1698.781
478.430	24.964	1723.463	1700.133
479.445	24.829	1721.585	1696.799
480.460	24.552	1719.749	1692.145
481.474	24.631	1719.250	1692.201
482.489	25.101	1719.847	1697.065
483.503	25.459	1718.836	1699.264
484.518	25.388	1717.398	1696.962
485.533	25.444	1715.099	1695.019
486.547	25.535	1713.274	1693.881
487.562	25.788	1713.779	1696.573
488.576	25.921	1711.937	1695.805
489.591	25.641	1710.941	1691.964
490.606	25.485	1709.079	1688.452
491.620	25.409	1707.216	1685.685
492.635	25.822	1706.605	1688.781
493.649	26.047	1705.339	1689.442
494.664	25.253	1702.299	1678.759
495.679	24.654	1699.783	1670.459
496.693	24.791	1699.213	1670.979
497.708	25.277	1699.200	1675.329
498.722	25.758	1699.271	1679.706
499.737	25.887	1697.956	1679.420
500.752	25.589	1695.177	1673.683
501.766	25.451	1692.992	1670.032
502.781	25.469	1692.189	1669.208
503.795	25.576	1690.165	1668.015
504.810	25.359	1689.981	1665.610
505.825	25.711	1689.458	1668.177
506.839	25.655	1687.617	1665.632
507.854	25.572	1686.077	1663.145
508.868	25.606	1684.055	1661.264
509.883	25.376	1683.274	1658.164
510.898	25.722	1682.049	1659.961
511.912	25.323	1680.580	1654.622
512.927	24.975	1677.954	1648.623
513.941	24.855	1676.690	1646.072
514.956	25.036	1675.621	1646.492
515.971	25.367	1674.426	1648.183
516.985	25.402	1673.851	1647.733
518.000	25.316	1673.447	1646.347
519.014	25.431	1673.100	1646.873
520.029	25.606	1671.434	1646.642
521.043	25.533	1669.990	1644.352
522.058	25.210	1668.211	1639.435
523.073	25.468	1667.647	1641.057
524.087	26.072	1666.689	1645.457
525.102	25.996	1665.308	1643.201
526.116	25.529	1663.116	1636.569
527.131	25.464	1662.460	1635.129
528.146	25.945	1662.777	1639.646
529.160	26.301	1661.610	1641.555
530.175	26.306	1660.868	1640.665
531.189	26.513	1660.113	1641.616
532.204	26.540	1658.342	1639.911
533.219	26.049	1656.497	1633.421
534.233	25.503	1654.644	1626.438
535.248	25.781	1654.527	1628.657
536.262	26.495	1654.427	1634.847
537.277	26.551	1653.526	1634.266
538.292	26.326	1650.909	1629.449
539.306	26.203	1648.698	1625.957
540.321	26.226	1647.257	1624.547
541.335	25.986	1645.305	1620.262
542.350	26.348	1644.260	1622.304
543.365	26.550	1644.411	1624.086
544.379	26.887	1642.513	1625.046
545.394	26.850	1641.153	1623.176
546.408	26.256	1639.416	1615.927
547.423	25.577	1637.127	1607.380
548.438	25.413	1635.774	1604.383
549.452	25.799	1635.525	1607.412
550.467	26.119	1633.955	1608.545
551.481	26.089	1634.203	1608.326
552.496	26.382	1634.621	1611.168
553.511	26.945	1633.124	1614.538
554.525	26.744	1631.717	1611.160
555.540	26.860	1631.233	1611.524
556.554	26.887	1629.574	1609.933
557.569	26.619	1627.765	1605.568
558.583	26.399	1625.957	1601.631
559.598	26.392	1624.315	1599.755
560.613	26.222	1623.986	1597.735
561.627	26.362	1623.072	1597.885
562.642	26.347	1621.276	1595.795
563.656	26.763	1619.857	1597.892
564.671	26.730	1618.196	1595.770
565.686	26.634	1617.246	1593.797
566.700	26.092	1615.185	1586.785
567.715	25.972	1612.940	1583.330
568.729	25.962	1611.414	1581.551
569.744	25.817	1610.460	1579.145
570.759	25.973	1609.831	1579.716
571.773	25.993	1608.767	1578.660
572.788	26.267	1608.079	1580.206
573.802	26.269	1606.330	1578.311
574.817	26.233	1605.531	1577.023
575.832	26.533	1604.982	1578.930
576.846	26.718	1603.639	1579.037
577.861	26.613	1602.580	1576.887
578.875	26.741	1601.426	1576.680
579.890	27.159	1600.993	1579.721
580.905	27.278	1599.927	1579.520
581.919	27.324	1600.218	1580.020
582.934	27.476	1599.598	1580.544
583.948	27.483	1597.862	1578.696
584.963	27.197	1596.148	1574.327
585.978	26.876	1594.049	1569.274
586.992	26.833	1593.347	1568.024
588.007	27.272	1593.335	1571.638
589.021	26.599	1589.892	1562.220
590.036	25.833	1587.846	1553.385
591.051	26.476	1588.042	1558.965
592.065	27.176	1587.352	1564.157
593.080	27.468	1585.879	1565.043
594.094	27.382	1584.057	1562.313
595.109	26.680	1581.345	1553.404
596.123	26.250	1578.957	1547.176
597.138	26.706	1579.444	1551.394
598.153	27.043	1579.033	1553.699
599.167	27.018	1577.861	1552.146
600.182	27.123	1576.650	1551.665
601.196	27.275	1575.595	1551.753
602.211	27.133	1574.730	1549.491
603.226	27.265	1574.570	1550.279
604.240	27.468	1572.982	1550.266
605.255	27.591	1572.362	1550.523
606.269	27.688	1570.868	1549.694
607.284	27.500	1569.132	1546.192
608.299	27.611	1567.251	1545.096
609.313	27.191	1565.735	1539.845
610.328	27.311	1564.113	1539.083
611.342	27.472	1563.419	1539.589
612.357	27.563	1562.769	1539.531
613.372	27.365	1561.707	1536.625
614.386	27.241	1560.727	1534.428
615.401	27.301	1560.242	1534.271
616.415	27.454	1558.632	1533.804
617.430	27.369	1556.940	1531.235
618.445	27.258	1556.035	1529.219
619.459	27.108	1554.727	1526.488
620.474	26.778	1553.251	1522.070
621.488	26.404	1550.878	1516.412
622.503	26.268	1549.422	1513.664
623.518	26.739	1549.599	1517.615
624.532	27.004	1549.135	1519.214
625.547	27.185	1547.961	1519.396
626.561	27.445	1547.946	1521.385
627.576	27.456	1547.245	1520.606
628.591	27.114	1544.482	1514.845
629.605	26.905	1543.087	1511.548
630.620	26.913	1541.665	1510.035
631.634	26.517	1540.653	1505.554
632.649	26.632	1540.345	1506.035
633.663	26.906	1539.692	1507.509
634.678	27.268	1538.456	1509.132
635.693	27.483	1536.846	1509.164
636.707	27.544	1534.796	1507.479
637.722	27.603	1534.604	1507.599
638.736	27.766	1534.145	1508.322
639.751	27.919	1533.339	1508.625
640.766	27.785	1532.453	1506.459
641.780	27.919	1530.212	1505.183
642.795	27.868	1528.893	1503.287
643.809	28.079	1529.223	1505.173
644.824	28.042	1528.230	1503.710
645.839	27.982	1526.889	1501.715
646.853	28.200	1525.110	1501.581
647.868	27.958	1523.457	1497.784
648.882	27.850	1522.440	1495.716
649.897	27.762	1521.423	1493.813
650.912	27.715	1519.752	1491.612
651.926	27.810	1518.650	1491.130
652.941	27.633	1517.660	1488.523
653.955	27.095	1514.116	1480.466
654.970	26.461	1511.639	1472.683
655.985	26.478	1510.192	1471.231
656.999	26.477	1508.992	1469.883
658.014	26.870	1508.547	1472.478
659.028	27.367	1509.016	1476.815
660.043	27.791	1509.537	1480.607
661.058	27.913	1508.608	1480.507
662.072	27.976	1507.117	1479.385
663.087	27.828	1505.363	1476.283
664.101	27.696	1504.178	1473.868
665.116	28.010	1503.105	1475.191
666.131	27.977	1503.021	1474.660
667.145	27.952	1502.107	1473.390
668.160	28.017	1502.020	1473.653
669.174	28.268	1499.903	1473.431
670.189	28.361	1498.053	1472.187
671.204	28.220	1496.760	1469.606
672.218	28.220	1496.353	1469.030
673.233	28.360	1495.137	1468.784
674.247	28.633	1493.806	1469.501
675.262	28.774	1492.545	1469.220
676.276	28.562	1491.836	1466.640
677.291	28.450	1490.419	1464.173
678.306	28.157	1488.992	1460.243
679.320	27.914	1488.401	1457.540
680.335	27.946	1488.414	1457.638
681.349	28.094	1487.197	1457.460
682.364	28.186	1485.932	1456.779
683.379	28.163	1484.801	1455.310
684.393	28.117	1482.431	1452.443
685.408	28.116	1481.423	1451.280
686.422	27.996	1480.541	1449.280
687.437	27.973	1480.010	1448.407
688.452	27.870	1479.313	1446.729
689.466	27.897	1476.518	1444.041
690.481	27.799	1475.613	1442.200
691.495	27.528	1474.735	1439.020
692.510	27.244	1472.626	1434.542
693.525	26.970	1470.870	1430.484
694.539	27.194	1470.786	1432.004
695.554	27.553	1470.658	1434.549
696.568	27.804	1470.023	1435.746
697.583	28.011	1468.807	1436.021
698.598	28.193	1467.596	1436.100
699.612	28.327	1467.354	1436.749
700.627	28.112	1467.044	1434.577
701.641	28.521	1465.014	1435.643
702.656	28.598	1463.310	1434.402
703.671	28.641	1464.448	1435.685
704.685	28.701	1463.658	1435.211
705.700	28.669	1461.073	1432.255
706.714	28.289	1459.846	1427.905
707.729	28.120	1457.808	1424.416
708.744	28.205	1456.624	1423.755
709.758	28.045	1454.704	1420.455
710.773	27.475	1452.645	1413.833
711.787	27.175	1451.335	1410.045
712.802	27.719	1450.682	1413.485
713.816	28.092	1450.913	1416.440
714.831	28.110	1450.884	1416.381
715.846	28.420	1450.169	1417.924
716.860	28.479	1448.205	1416.299
717.875	28.542	1446.390	1414.839
718.889	28.389	1444.922	1412.047
719.904	28.452	1444.506	1411.958
720.919	28.534	1443.212	1411.163
721.933	28.445	1442.899	1409.998
722.948	28.628	1441.586	1409.959
723.962	28.490	1440.666	1407.826
724.977	28.666	1439.653	1408.021
725.992	28.624	1438.842	1406.736
727.006	28.646	1437.599	1405.524
728.021	28.655	1436.577	1404.424
729.035	28.767	1435.711	1404.273
730.050	28.833	1434.304	1403.239
731.065	28.696	1432.542	1400.295
732.079	28.737	1431.848	1399.759
733.094	28.890	1429.972	1398.928
734.108	28.634	1428.704	1395.566
735.123	28.548	1427.984	1394.038
736.138	28.588	1426.760	1392.980
737.152	28.542	1425.788	1391.520
738.167	28.678	1425.436	1392.040
739.181	28.801	1424.610	1392.006
740.196	28.933	1423.178	1391.442
741.211	28.798	1422.645	1389.732
742.225	28.641	1421.374	1387.128
743.240	28.628	1419.819	1385.346
744.254	28.498	1418.041	1382.461
745.269	28.229	1417.430	1379.663
746.284	28.245	1415.772	1378.008
747.298	27.953	1414.951	1374.834
748.313	27.894	1413.049	1372.372
749.327	27.580	1412.356	1369.167
750.342	27.191	1411.139	1364.889
751.356	27.241	1409.557	1363.570
752.371	27.350	1408.868	1363.561
753.386	27.828	1408.889	1367.019
754.400	28.245	1408.761	1369.869
755.415	28.814	1407.203	1372.463
756.429	28.929	1406.323	1372.305
757.444	29.033	1405.249	1371.866
758.459	28.886	1404.700	1370.069
759.473	28.717	1403.293	1367.264
760.488	28.607	1401.714	1364.744
761.502	28.616	1399.942	1362.923
762.517	28.819	1398.615	1362.977
763.532	28.789	1397.731	1361.730
764.546	28.434	1395.796	1357.042
765.561	27.881	1394.648	1351.650
766.575	26.942	1392.676	1342.601
767.590	26.850	1392.117	1341.212
768.605	27.802	1391.590	1347.620
769.619	28.337	1391.185	1351.034
770.634	28.579	1390.572	1352.064
771.648	28.548	1389.699	1350.823
772.663	28.563	1388.570	1349.674
773.678	28.798	1387.977	1350.678
774.692	28.801	1387.578	1350.152
775.707	28.917	1387.050	1350.328
776.721	28.938	1386.499	1349.789
777.736	28.888	1384.703	1347.510
778.751	29.002	1383.617	1347.131
779.765	28.950	1382.655	1345.647
780.780	28.734	1382.536	1343.786
781.794	28.876	1381.088	1343.255
782.809	28.541	1379.165	1338.772
783.824	28.050	1377.965	1333.846
784.838	27.984	1375.489	1330.805
785.853	27.537	1374.771	1326.682
786.867	27.794	1374.173	1327.823
787.882	27.984	1373.358	1328.264
788.897	27.836	1373.497	1327.163
789.911	28.102	1371.512	1327.022
790.926	28.233	1370.462	1326.807
791.940	28.324	1369.751	1326.619
792.955	28.463	1368.733	1326.485
793.969	28.515	1367.641	1325.644
794.984	28.603	1367.233	1325.734
795.999	28.865	1366.585	1326.843
797.013	28.887	1364.619	1324.939
798.028	28.869	1363.577	1323.635
799.042	28.898	1363.014	1323.143
800.057	28.985	1361.544	1322.189
801.072	28.979	1360.534	1320.999
802.086	29.070	1359.061	1320.068
803.101	28.963	1357.698	1317.820
804.115	29.032	1357.226	1317.702
805.130	28.785	1356.470	1315.032
806.145	28.786	1354.938	1313.396
807.159	28.703	1353.217	1310.975
808.174	28.793	1351.630	1309.925
809.188	28.851	1350.801	1309.377
810.203	28.575	1348.864	1305.373
811.218	28.101	1347.327	1300.342
812.232	27.722	1345.065	1295.298
813.247	27.171	1344.259	1290.435
814.261	27.724	1345.435	1295.356
815.276	28.559	1344.497	1300.251
816.291	28.503	1343.522	1298.757
817.305	28.611	1342.319	1298.205
818.320	28.761	1341.467	1298.293
819.334	28.988	1340.341	1298.660
820.349	29.034	1339.176	1297.701
821.364	29.070	1337.380	1296.060
822.378	28.963	1336.581	1294.374
823.393	28.870	1334.975	1292.005
824.407	28.825	1333.974	1290.562
825.422	28.800	1333.183	1289.468
826.437	28.674	1332.046	1287.323
827.451	28.262	1329.764	1282.066
828.466	27.869	1327.565	1277.031
829.480	27.838	1325.805	1274.964
830.495	27.985	1324.429	1274.521
831.509	28.156	1324.014	1275.169
832.524	28.292	1324.383	1276.324
833.539	28.674	1323.364	1277.860
834.553	28.754	1322.241	1277.188
835.568	28.869	1321.198	1276.830
836.582	28.920	1319.860	1275.735
837.597	29.000	1318.781	1275.098
838.612	28.718	1317.062	1271.325
839.626	28.667	1315.357	1269.168
840.641	28.487	1313.901	1266.363
841.655	28.314	1312.818	1263.965
842.670	27.486	1311.072	1256.397
843.685	26.839	1309.221	1249.993
844.699	27.568	1309.569	1255.221
845.714	28.261	1308.922	1259.245
846.728	28.243	1308.274	1258.351
847.743	28.284	1307.514	1257.747
848.758	28.621	1306.785	1259.222
849.772	28.840	1305.572	1259.412
850.787	28.875	1303.597	1257.600
851.801	28.863	1302.391	1256.201
852.816	28.731	1301.486	1254.273
853.831	28.644	1300.185	1252.269
854.845	28.611	1298.426	1250.203
855.860	28.411	1296.837	1247.154
856.874	28.230	1295.159	1244.155
857.889	28.081	1293.592	1241.482
858.904	27.856	1292.073	1238.345
859.918	27.755	1290.396	1235.904
860.933	27.635	1289.067	1233.661
861.947	27.639	1288.622	1233.118
862.962	27.964	1287.874	1234.464
863.977	27.964	1286.357	1232.858
864.991	28.221	1286.375	1234.472
866.006	28.393	1286.498	1235.606
867.020	28.476	1285.414	1234.979
868.035	28.623	1283.816	1234.292
869.049	28.725	1282.865	1233.920
870.064	29.052	1281.735	1234.889
871.079	28.943	1280.731	1233.042
872.093	28.581	1280.453	1230.181
873.108	28.401	1279.467	1227.875
874.122	28.258	1277.669	1225.043
875.137	27.864	1276.454	1221.086
876.152	27.768	1274.985	1218.887
877.166	27.664	1274.216	1217.311
878.181	27.982	1272.873	1218.010
879.195	28.287	1272.613	1219.662
880.210	28.506	1271.938	1220.335
881.225	28.782	1270.290	1220.448
882.239	28.608	1269.721	1218.592
883.254	28.681	1269.612	1218.828
884.268	28.744	1268.751	1218.277
885.283	28.721	1267.701	1216.972
886.298	28.715	1265.715	1214.880
887.312	28.869	1263.874	1213.989
888.327	28.744	1263.022	1212.193
889.341	28.728	1261.791	1210.763
890.356	28.597	1261.034	1209.022
891.371	28.419	1260.931	1207.601
892.385	28.495	1259.797	1206.877
893.400	28.151	1258.948	1203.642
894.414	28.147	1257.387	1201.979
895.429	28.147	1255.397	1199.931
896.444	27.683	1252.857	1194.307
897.458	27.249	1251.673	1190.181
898.473	27.593	1251.372	1192.016
899.487	27.887	1251.361	1193.797
900.502	28.175	1250.209	1194.446
901.517	28.305	1249.140	1194.130
902.531	28.578	1248.016	1194.700
903.546	28.579	1248.074	1194.617
904.560	28.571	1247.797	1194.157
905.575	28.665	1246.586	1193.474
906.589	28.518	1245.202	1191.045
907.604	28.327	1244.652	1189.132
