DTS Sentinel unit serial number:	SN409020Multiplexer serial number:	ORYXHardware model number:	OX4-SRSoftware version number:	ORYX F/W v3.00 Oryx Data Collector v3.7.2.0data status	okinstallation	HaddamTimeLapsedifferential loss correction	single-endedforward channel	channel 3reverse channel	N/Adate	2011/06/21time	14:01:17forward acquisition time	30.00reverse acquisition time	0.00gamma	498.7831k internal	0.1820k external	0.1820temperature offset calibration	1.0074default loss term (dB/km)	0.3790temperature slope calibration	1.3530multiplexer offset coefficient	1.0000multiplexer slope coefficient	1.0000fibre end	0.00T internal ref (°C)	37.12T ext. ref 1 (°C)	33.69T ext. ref 2 (°C)	0.23length (m)	temperature (°C)	Stokes	anti-Stokes-747.200	55.004	0.214	0.264
-746.185	3.025	0.309	0.287
-745.171	-200.000	0.016	0.206
-744.156	800.000	0.154	0.696
-743.142	800.000	-0.069	0.273
-742.127	101.608	0.258	0.385
-741.112	2.591	0.420	-0.388
-740.098	133.453	0.065	0.107
-739.083	321.857	0.258	-0.630
-738.069	-118.266	-0.207	-0.047
-737.054	-138.370	0.341	0.048
-736.039	800.000	-0.106	-0.463
-735.025	-25.256	-0.287	0.217
-734.010	286.975	-0.072	-0.168
-732.996	79.113	-0.041	-0.056
-731.981	174.472	0.080	-0.148
-730.966	-200.000	-0.085	-0.558
-729.952	800.000	-0.064	-0.310
-728.937	-154.186	-0.360	-0.031
-727.923	152.055	-0.095	-0.166
-726.908	-200.000	0.012	0.204
-725.894	-200.000	0.051	0.358
-724.879	-106.243	-0.420	-0.119
-723.864	484.896	-0.210	0.613
-722.850	187.665	-0.162	0.309
-721.835	-26.884	-0.314	-0.234
-720.821	-30.790	-0.707	0.509
-719.806	-150.745	0.268	-0.026
-718.791	-77.810	0.266	0.117
-717.777	-49.915	0.305	0.184
-716.762	19.161	0.350	0.358
-715.748	122.513	0.063	-0.102
-714.733	176.381	-0.155	0.288
-713.718	114.363	0.052	0.082
-712.704	800.000	-0.016	-0.059
-711.689	-200.000	0.036	0.265
-710.675	-65.625	-0.515	0.263
-709.660	-40.338	-0.430	0.284
-708.645	33.188	0.149	-0.165
-707.631	-124.851	0.167	-0.033
-706.616	800.000	0.118	0.647
-705.602	142.847	-0.272	0.463
-704.587	-200.000	0.008	0.452
-703.572	459.044	-0.105	-0.299
-702.558	-19.052	0.251	0.198
-701.543	374.435	-0.057	-0.149
-700.529	-41.109	0.213	-0.140
-699.514	183.412	0.172	0.326
-698.499	-12.262	0.295	0.246
-697.485	301.123	-0.090	-0.214
-696.470	-139.820	0.078	-0.010
-695.456	-109.905	0.274	-0.073
-694.441	-103.335	-0.347	-0.104
-693.426	576.374	-0.136	0.425
-692.412	-66.531	-0.299	0.151
-691.397	105.026	0.126	0.191
-690.383	21.275	-0.203	-0.210
-689.368	-103.199	0.075	-0.023
-688.354	-151.900	0.243	0.022
-687.339	291.163	0.195	0.455
-686.324	-50.860	-0.463	0.277
-685.310	-116.969	0.277	0.064
-684.295	-9.224	0.251	0.214
-683.281	-179.810	0.644	-0.017
-682.266	-71.878	-0.046	0.022
-681.251	252.116	-0.210	0.459
-680.237	-200.000	0.015	-0.175
-679.222	-89.646	0.270	-0.100
-678.208	-72.694	-0.148	-0.069
-677.193	36.256	-0.088	-0.099
-676.178	-200.000	-0.086	-0.581
-675.164	249.450	-0.209	-0.453
-674.149	-150.740	-0.309	0.030
-673.135	23.906	-0.316	-0.332
-672.120	189.815	0.227	-0.436
-671.105	65.283	0.230	-0.297
-670.091	-129.922	-0.196	-0.034
-669.076	-141.316	-0.558	-0.072
-668.062	-82.003	-0.432	-0.179
-667.047	-12.350	-0.182	0.152
-666.032	-200.000	0.016	-0.150
-665.018	800.000	-0.070	-0.280
-664.003	-88.220	-0.325	0.123
-662.989	-37.532	-0.093	-0.063
-661.974	69.697	-0.299	-0.393
-660.959	199.763	-0.235	-0.460
-659.945	254.397	0.147	-0.321
-658.930	-200.000	0.014	0.081
-657.916	93.859	-0.380	-0.550
-656.901	193.738	-0.117	0.227
-655.886	-197.423	-0.442	0.003
-654.872	-151.125	-0.123	0.012
-653.857	-162.933	-0.176	-0.011
-652.843	800.000	0.041	-0.217
-651.828	800.000	-0.116	-0.508
-650.814	46.875	0.117	-0.139
-649.799	131.651	0.181	0.297
-648.784	-27.491	-0.446	-0.329
-647.770	-121.589	-0.379	-0.079
-646.755	164.751	-0.245	0.441
-645.741	-91.816	-0.200	-0.072
-644.726	267.164	-0.037	0.082
-643.711	-200.000	-0.040	-0.490
-642.697	-38.693	-0.209	-0.140
-641.682	371.008	0.196	-0.509
-640.668	-88.554	-0.723	-0.273
-639.653	179.437	-0.225	0.420
-638.638	-178.327	-0.280	0.008
-637.624	800.000	0.114	-0.495
-636.609	1.932	0.060	-0.055
-635.595	-200.000	0.127	-0.724
-634.580	82.631	0.284	0.393
-633.565	523.328	-0.031	-0.094
-632.551	111.296	0.187	0.287
-631.536	143.366	-0.088	-0.150
-630.522	45.013	-0.198	0.233
-629.507	-11.675	0.401	-0.335
-628.492	1.645	0.170	-0.156
-627.478	-200.000	0.003	0.074
-626.463	73.686	0.224	0.299
-625.449	-91.303	0.248	-0.090
-624.434	124.584	0.210	-0.338
-623.419	800.000	0.180	-0.732
-622.405	755.738	0.099	-0.343
-621.390	125.414	-0.169	-0.272
-620.376	-128.589	-0.196	-0.035
-619.361	-86.349	-0.276	-0.108
-618.346	723.304	0.053	0.180
-617.332	-108.624	-0.558	0.151
-616.317	286.053	0.206	0.474
-615.303	24.354	-0.094	-0.099
-614.288	800.000	-0.027	0.134
-613.273	-134.263	0.381	-0.059
-612.259	-33.979	-0.277	-0.193
-611.244	16.814	-0.299	-0.301
-610.230	-200.000	0.043	-0.354
-609.215	140.611	0.120	-0.201
-608.201	-17.786	0.439	0.350
-607.186	-45.186	-0.152	0.096
-606.171	18.915	-0.209	-0.213
-605.157	-200.000	0.032	-0.211
-604.142	-167.618	-0.472	0.024
-603.128	800.000	-0.099	-0.390
-602.113	95.175	-0.296	-0.429
-601.098	2.427	0.067	-0.062
-600.084	51.119	0.096	-0.116
-599.069	800.000	-0.044	0.223
-598.055	-88.736	0.634	-0.238
-597.040	-65.893	0.301	0.152
-596.025	275.297	0.094	0.214
-595.011	101.109	0.141	-0.208
-593.996	158.936	-0.206	-0.365
-592.982	-170.703	-0.454	0.020
-591.967	-65.861	0.553	0.280
-590.952	-20.450	0.203	-0.158
-589.938	800.000	-0.077	0.282
-588.923	27.440	-0.108	0.116
-587.909	-200.000	0.008	-0.370
-586.894	-59.463	0.015	-0.008
-585.879	-134.473	0.208	-0.032
-584.865	-170.273	0.248	-0.011
-583.850	-123.300	0.216	-0.044
-582.836	-200.000	-0.001	-0.336
-581.821	299.040	-0.053	0.125
-580.806	56.902	0.253	-0.313
-579.792	-49.253	-0.168	-0.102
-578.777	-65.069	0.041	-0.021
-577.763	-83.983	0.213	-0.086
-576.748	-200.000	0.013	0.112
-575.733	201.192	-0.239	0.469
-574.719	16.571	-0.161	-0.162
-573.704	800.000	0.136	-0.485
-572.690	-124.067	-0.161	-0.032
-571.675	-185.991	-0.339	0.006
-570.661	-99.048	-0.621	0.199
-569.646	292.094	-0.085	0.196
-568.631	35.143	0.315	0.351
-567.617	-197.688	0.190	0.001
-566.602	-200.000	-0.041	-0.432
-565.588	158.419	0.095	0.168
-564.573	800.000	0.062	-0.287
-563.558	-125.225	-0.377	-0.073
-562.544	464.725	0.155	-0.442
-561.529	-200.000	-0.000	0.039
-560.515	-0.036	-0.044	-0.040
-559.500	34.997	-0.362	0.403
-558.485	-134.662	-0.321	-0.049
-557.471	-156.217	0.395	0.031
-556.456	154.463	-0.267	0.466
-555.442	-74.196	-0.185	0.084
-554.427	42.453	0.139	-0.160
-553.412	-103.940	0.359	0.106
-552.398	184.880	0.056	0.105
-551.383	800.000	-0.036	0.188
-550.369	-43.300	0.289	-0.185
-549.354	-79.799	-0.209	0.089
-548.339	800.000	0.020	0.110
-547.325	-82.388	-0.250	0.103
-546.310	513.242	0.115	-0.342
-545.296	-64.453	0.122	0.063
-544.281	-52.765	0.103	-0.060
-543.266	50.963	-0.149	0.180
-542.252	-186.035	-0.089	0.002
-541.237	585.847	0.158	-0.496
-540.223	800.000	0.041	0.163
-539.208	-200.000	0.058	0.352
-538.193	-200.000	0.024	0.272
-537.179	-43.552	-0.211	0.135
-536.164	-200.000	0.032	0.269
-535.150	-99.174	-0.120	-0.038
-534.135	178.951	0.043	-0.080
-533.121	1.417	-0.282	-0.257
-532.106	-200.000	-0.097	0.591
-531.091	800.000	-0.026	0.096
-530.077	91.242	-0.173	0.247
-529.062	-15.635	-0.296	-0.239
-528.048	-185.928	-0.151	0.003
-527.033	-130.794	-0.370	-0.062
-526.018	22.304	0.168	-0.174
-525.004	110.772	-0.209	-0.319
-523.989	455.958	0.099	0.279
-522.975	-44.301	-0.278	-0.176
-521.960	-148.495	0.092	-0.009
-520.945	198.454	-0.080	0.155
-519.931	-30.997	-0.109	0.078
-518.916	481.788	-0.122	-0.353
-517.902	-183.786	0.131	0.003
-516.887	-200.000	0.111	-0.648
-515.872	-200.000	0.009	-0.318
-514.858	-134.892	0.331	0.050
-513.843	257.506	0.132	-0.289
-512.829	-52.639	0.615	-0.359
-511.814	800.000	-0.170	-0.648
-510.799	-124.756	-0.417	-0.081
-509.785	-33.674	0.249	0.174
-508.770	-66.782	-0.132	-0.066
-507.756	45.430	0.253	-0.296
-506.741	-136.883	-0.366	0.053
-505.726	-200.000	-0.036	0.490
-504.712	776.954	-0.075	0.261
-503.697	-200.000	-0.054	-0.395
-502.683	-152.032	-0.019	-0.002
-501.668	-66.244	-0.646	0.325
-500.653	-200.000	-0.055	0.456
-499.639	-12.282	0.446	0.368
-498.624	-128.777	0.417	-0.074
-497.610	800.000	0.018	0.091
-496.595	-129.434	0.177	0.031
-495.581	234.711	0.031	0.064
-494.566	776.619	0.066	0.231
-493.551	-151.429	0.222	-0.021
-492.537	75.586	0.097	-0.130
-491.522	26.710	0.217	-0.230
-490.508	76.836	0.168	-0.225
-489.493	-128.041	-0.346	-0.062
-488.478	800.000	0.051	-0.258
-487.464	-200.000	0.048	-0.483
-486.449	-127.341	-0.190	-0.035
-485.435	-159.371	0.717	0.050
-484.420	-25.662	0.328	0.245
-483.405	-43.907	-0.269	0.171
-482.391	-12.343	-0.285	0.235
-481.376	-118.121	-0.367	0.082
-480.362	168.716	-0.051	0.093
-479.347	-27.550	0.374	-0.274
-478.332	3.163	-0.095	-0.087
-477.318	800.000	0.046	-0.199
-476.303	-81.144	-0.239	0.099
-475.289	-109.671	0.063	0.017
-474.274	-200.000	0.003	-0.162
-473.259	-200.000	-0.019	-0.330
-472.245	-176.867	-0.491	0.015
-471.230	-117.309	-0.353	-0.080
-470.216	273.696	0.124	-0.279
-469.201	-184.660	0.147	0.003
-468.186	-89.849	0.325	-0.119
-467.172	-200.000	-0.012	0.251
-466.157	-65.125	0.236	0.120
-465.143	-10.555	0.479	-0.400
-464.128	-61.724	0.154	-0.081
-463.113	80.907	0.242	0.331
-462.099	-114.074	0.584	0.142
-461.084	-200.000	0.007	-0.107
-460.070	-93.064	-0.140	-0.049
-459.055	-75.803	0.206	-0.092
-458.040	-81.109	0.312	-0.130
-457.026	-34.556	-0.144	0.099
-456.011	131.435	-0.120	0.196
-454.997	-153.876	-0.378	0.032
-453.982	-1.661	-0.410	0.365
-452.968	632.316	-0.119	-0.382
-451.953	197.350	-0.089	-0.172
-450.938	1.751	0.028	0.025
-449.924	23.888	-0.208	-0.216
-448.909	67.244	-0.201	-0.259
-447.895	-200.000	0.018	-0.147
-446.880	-169.227	-0.441	-0.020
-445.865	-125.336	-0.486	0.093
-444.851	377.667	-0.145	0.377
-443.836	406.293	0.009	0.025
-442.822	-66.193	-0.631	0.316
-441.807	-152.154	0.396	-0.036
-440.792	-57.745	0.374	0.206
-439.778	121.430	0.416	0.656
-438.763	-78.606	0.231	0.099
-437.749	733.170	0.036	0.122
-436.734	-51.693	0.278	0.163
-435.719	42.762	0.267	-0.308
-434.705	-135.311	-0.145	-0.022
-433.690	43.973	0.066	0.077
-432.676	-200.000	-0.019	-0.147
-431.661	800.000	-0.059	-0.294
-430.646	-74.032	-0.209	0.095
-429.632	133.169	-0.094	-0.153
-428.617	-14.869	0.077	0.062
-427.603	-127.894	0.180	-0.032
-426.588	-96.944	0.224	-0.074
-425.573	-16.943	0.380	0.302
-424.559	33.262	0.430	-0.471
-423.544	479.148	-0.103	0.297
-422.530	-41.597	-0.128	-0.083
-421.515	-85.357	-0.179	0.070
-420.500	-78.420	0.092	-0.040
-419.486	-200.000	0.031	0.468
-418.471	-102.389	0.349	-0.105
-417.457	-200.000	-0.066	-0.538
-416.442	442.640	-0.090	-0.251
-415.428	-41.585	-0.323	0.209
-414.413	800.000	-0.094	-0.335
-413.398	51.801	-0.130	0.156
-412.384	-141.729	-0.228	0.029
-411.369	764.779	-0.088	0.302
-410.355	-80.978	-0.805	-0.335
-409.340	133.349	-0.071	0.116
-408.325	143.063	-0.296	-0.498
-407.311	-120.218	-0.307	0.066
-406.296	-68.806	-0.270	-0.131
-405.282	213.708	-0.165	0.331
-404.267	800.000	-0.121	0.625
-403.252	81.707	-0.215	-0.294
-402.238	-77.021	0.309	0.135
-401.223	441.227	0.116	-0.321
-400.209	102.762	0.327	0.484
-399.194	800.000	0.097	0.439
-398.179	-200.000	0.025	-0.486
-397.165	-120.300	-0.427	-0.091
-396.150	-200.000	0.038	-0.217
-395.136	552.243	-0.117	-0.355
-394.121	126.561	0.293	-0.468
-393.106	-116.311	-0.383	-0.089
-392.092	192.289	0.154	-0.294
-391.077	28.543	0.447	0.476
-390.063	18.723	-0.223	0.225
-389.048	-169.619	-0.144	-0.006
-388.033	-54.184	-0.346	0.198
-387.019	-138.269	0.156	0.022
-386.004	800.000	0.053	0.204
-384.990	-158.424	0.359	-0.026
-383.975	800.000	0.105	0.474
-382.960	55.877	-0.314	0.385
-381.946	-91.191	0.400	0.144
-380.931	-200.000	0.041	0.259
-379.917	-25.182	-0.147	0.110
-378.902	-63.364	-0.449	-0.232
-377.888	-118.886	-0.229	0.050
-376.873	-73.314	-0.249	0.114
-375.858	76.915	0.181	0.243
-374.844	800.000	-0.106	-0.546
-373.829	151.277	0.184	0.317
-372.815	75.001	0.297	-0.395
-371.800	-82.644	0.254	-0.103
-370.785	327.250	0.054	-0.131
-369.771	-27.933	-0.237	0.173
-368.756	-110.177	0.541	-0.141
-367.742	178.913	0.078	-0.145
-366.727	309.377	0.133	-0.314
-365.712	-64.786	-0.248	-0.126
-364.698	-142.286	-0.450	-0.055
-363.683	-200.000	-0.002	-0.247
-362.669	-46.870	-0.193	0.119
-361.654	407.139	0.017	-0.044
-360.639	-163.849	0.155	0.009
-359.625	-83.732	-0.125	0.050
-358.610	-93.864	0.712	0.245
-357.596	389.130	0.136	0.356
-356.581	-200.000	0.040	-0.290
-355.566	2.380	-0.126	-0.115
-354.552	-116.260	-0.165	0.038
-353.537	-133.300	-0.069	-0.011
-352.523	-10.286	-0.313	0.261
-351.508	-155.427	0.426	0.034
-350.493	-200.000	-0.029	0.240
-349.479	-19.356	-0.180	0.140
-348.464	79.613	0.210	0.285
-347.450	-65.128	0.148	-0.075
-346.435	-200.000	0.021	-0.197
-345.420	-200.000	0.501	-0.000
-344.406	-200.000	0.043	0.342
-343.391	-200.000	0.068	0.560
-342.377	800.000	0.075	0.376
-341.362	-1.452	-0.201	0.178
-340.348	-111.834	0.552	-0.139
-339.333	49.764	0.309	0.366
-338.318	76.143	-0.304	-0.406
-337.304	197.761	0.097	0.186
-336.289	388.717	0.159	0.417
-335.275	731.716	-0.095	-0.321
-334.260	-122.812	-0.334	-0.067
-333.245	-181.086	-0.435	-0.011
-332.231	800.000	0.078	-0.429
-331.216	-119.097	0.452	-0.099
-330.202	-200.000	-0.005	0.118
-329.187	243.271	-0.151	0.319
-328.172	-120.655	0.320	0.067
-327.158	-13.002	-0.297	0.243
-326.143	-83.931	0.251	0.100
-325.129	-37.241	-0.217	-0.146
-324.114	62.661	0.163	-0.205
-323.099	800.000	0.032	0.178
-322.085	29.376	-0.208	-0.222
-321.070	-125.509	-0.369	0.070
-320.056	-113.334	-0.158	0.039
-319.041	-40.418	0.309	0.201
-318.026	439.883	0.161	0.446
-317.012	-98.083	-0.528	0.170
-315.997	251.813	0.239	0.514
-314.983	-87.229	0.236	-0.089
-313.968	-59.312	0.251	0.135
-312.953	41.313	0.364	0.414
-311.939	793.205	-0.127	0.442
-310.924	-200.000	-0.012	-0.454
-309.910	-200.000	-0.031	-0.200
-308.895	800.000	0.077	0.272
-307.880	-200.000	-0.017	0.398
-306.866	-177.616	-0.402	-0.012
-305.851	-200.000	0.079	-0.880
-304.837	150.388	0.156	-0.267
-303.822	32.375	-0.175	-0.190
-302.807	356.558	-0.294	-0.741
-301.793	-200.000	0.016	-0.146
-300.778	259.659	-0.096	-0.209
-299.764	-39.950	0.253	-0.166
-298.749	-200.000	-0.037	-0.406
-297.735	-155.061	0.393	0.032
-296.720	-81.875	-0.105	0.043
-295.705	-146.992	0.075	-0.008
-294.691	-173.876	-0.347	0.013
-293.676	-200.000	-0.006	0.297
-292.662	-200.000	-0.077	0.495
-291.647	511.993	0.095	-0.280
-290.632	-69.967	-0.040	0.019
-289.618	149.206	0.160	-0.272
-288.603	-181.074	0.609	-0.015
-287.589	-96.528	0.297	0.098
-286.574	247.580	-0.213	0.453
-285.559	377.968	-0.010	-0.026
-284.545	-155.395	-0.314	-0.025
-283.530	129.697	0.067	-0.107
-282.516	-54.608	0.131	0.074
-281.501	9.729	-0.393	0.374
-280.486	206.765	0.152	-0.299
-279.472	28.614	-0.209	0.222
-278.457	-171.735	-0.378	-0.015
-277.443	-155.350	-0.566	-0.046
-276.428	-200.000	0.020	0.291
-275.413	48.680	0.175	0.206
-274.399	-134.104	-0.185	0.028
-273.384	101.087	0.029	0.043
-272.370	-104.397	-0.051	-0.015
-271.355	-143.597	0.160	0.019
-270.340	21.747	0.232	0.237
-269.326	-65.144	-0.175	0.088
-268.311	-71.439	-0.226	-0.106
-267.297	102.316	-0.350	-0.514
-266.282	75.136	-0.144	0.190
-265.267	-26.116	-0.349	0.257
-264.253	214.017	-0.169	-0.337
-263.238	-108.157	0.338	0.091
-262.224	-108.799	0.521	0.139
-261.209	265.498	-0.065	-0.142
-260.195	26.903	0.178	0.187
-259.180	-74.648	-0.330	-0.148
-258.165	-200.000	-0.062	0.361
-257.151	-40.558	0.215	0.139
-256.136	800.000	-0.074	-0.266
-255.122	22.648	-0.320	-0.329
-254.107	-175.148	0.054	-0.002
-253.092	-118.715	0.124	0.027
-252.078	-200.000	-0.024	0.146
-251.063	-3.248	-0.337	0.294
-250.049	270.033	0.116	0.257
-249.034	74.978	-0.265	-0.350
-248.019	-87.979	0.196	0.073
-247.005	-200.000	0.053	-0.304
-245.990	-147.992	0.195	0.020
-244.976	-93.298	0.297	-0.103
-243.961	597.913	-0.118	0.367
-242.946	-116.540	-0.180	0.041
-241.932	36.108	0.188	0.208
-240.917	-136.516	0.264	-0.038
-239.903	24.214	-0.061	0.063
-238.888	19.363	0.037	0.037
-237.873	-58.324	-0.214	-0.116
-236.859	-14.992	-0.504	-0.404
-235.844	-200.000	0.008	0.256
-234.830	-43.407	0.227	-0.143
-233.815	-132.148	0.226	-0.036
-232.800	-165.433	0.164	0.009
-231.786	-200.000	-0.042	0.574
-230.771	28.509	0.330	0.349
-229.757	753.814	0.055	-0.186
-228.742	-122.449	0.165	-0.033
-227.727	-165.240	0.260	0.014
-226.713	468.738	-0.113	-0.319
-225.698	-67.685	-0.397	0.194
-224.684	307.805	-0.104	-0.243
-223.669	43.432	0.112	0.128
-222.655	-200.000	-0.027	0.244
-221.640	-189.238	-0.395	0.006
-220.625	336.008	0.198	-0.482
-219.611	-3.548	-0.133	-0.116
-218.596	135.010	0.347	0.565
-217.582	-38.176	-0.148	0.098
-216.567	111.263	-0.168	0.254
-215.552	194.637	0.141	0.269
-214.538	-23.207	-0.222	0.167
-213.523	800.000	0.068	0.256
-212.509	-109.247	-0.453	0.120
-211.494	-43.509	-0.214	-0.135
-210.479	26.490	0.288	0.302
-209.465	121.705	-0.108	-0.170
-208.450	-127.306	-0.098	-0.018
-207.436	-133.010	0.405	-0.064
-206.421	-108.283	0.365	-0.098
-205.406	-200.000	0.010	-0.173
-204.392	-135.771	-0.301	0.044
-203.377	800.000	-0.041	0.162
-202.363	-200.000	-0.012	0.182
-201.348	-87.837	0.454	-0.170
-200.333	-107.562	0.447	0.122
-199.319	-106.709	-0.439	0.121
-198.304	-17.843	0.173	-0.136
-197.290	800.000	-0.025	-0.132
-196.275	158.170	-0.073	0.126
-195.260	800.000	-0.040	0.145
-194.246	-200.000	0.038	-0.483
-193.231	-200.000	-0.010	-0.079
-192.217	200.430	0.190	0.367
-191.202	85.697	-0.187	0.257
-190.187	-118.144	0.230	0.051
-189.173	-145.280	0.271	-0.030
-188.158	-95.488	0.473	-0.158
-187.144	-200.000	0.044	0.362
-186.129	-200.000	0.008	-0.467
-185.114	-152.914	0.387	0.034
-184.100	-200.000	0.026	-0.282
-183.085	800.000	-0.056	0.250
-182.071	-164.903	-0.207	-0.011
-181.056	287.631	0.044	0.099
-180.042	173.594	0.129	0.233
-179.027	-137.417	0.532	0.075
-178.012	-40.748	0.266	-0.172
-176.998	-179.399	-0.395	0.011
-175.983	-200.000	-0.079	-0.644
-174.969	351.728	0.117	0.291
-173.954	-108.435	0.337	0.090
-172.939	24.378	0.172	0.178
-171.925	190.546	0.129	0.243
-170.910	-41.653	-0.278	0.178
-169.896	-124.604	-0.368	0.071
-168.881	463.175	0.073	0.205
-167.866	-109.246	0.427	0.112
-166.852	-61.313	-0.228	-0.120
-165.837	-117.170	-0.209	-0.047
-164.823	800.000	0.074	-0.303
-163.808	800.000	-0.087	0.316
-162.793	-200.000	-0.019	-0.335
-161.779	-187.836	0.292	-0.005
-160.764	32.788	-0.174	0.188
-159.750	289.309	0.163	-0.371
-158.735	-42.656	0.336	0.213
-157.720	-24.634	-0.078	-0.058
-156.706	-74.662	0.146	0.065
-155.691	-146.859	-0.289	0.031
-154.677	314.752	-0.165	0.390
-153.662	-184.044	-0.135	0.003
-152.647	25.061	0.162	0.168
-151.633	-94.022	0.181	0.062
-150.618	621.755	-0.074	-0.234
-149.604	551.064	0.153	-0.462
-148.589	307.323	-0.127	0.298
-147.574	-200.000	0.008	0.325
-146.560	41.326	0.192	-0.217
-145.545	47.375	0.194	-0.226
-144.531	-3.388	-0.275	0.238
-143.516	134.805	-0.052	-0.085
-142.502	-200.000	-0.026	-0.260
-141.487	497.339	0.235	-0.677
-140.472	-34.075	0.193	-0.132
-139.458	-118.460	-0.326	-0.072
-138.443	87.637	0.204	0.283
-137.429	800.000	0.125	0.482
-136.414	1.577	-0.422	-0.379
-135.399	-53.457	0.296	0.168
-134.385	253.884	-0.087	-0.186
-133.370	-66.834	-0.160	-0.079
-132.356	-109.945	-0.263	0.068
-131.341	201.554	-0.216	0.417
-130.326	15.138	0.139	-0.136
-129.312	285.498	0.068	0.153
-128.297	115.528	-0.273	0.418
-127.283	-200.000	-0.004	-0.435
-126.268	34.555	-0.150	0.163
-125.253	155.512	-0.053	0.091
-124.239	316.224	-0.263	0.623
-123.224	177.631	-0.211	0.384
-122.210	68.661	0.355	-0.455
-121.195	77.609	0.084	-0.112
-120.180	-144.013	-0.283	-0.033
-119.166	140.980	0.198	0.328
-118.151	-200.000	0.012	0.243
-117.137	-9.809	-0.237	-0.197
-116.122	-68.027	-0.449	-0.217
-115.107	613.886	-0.130	0.409
-114.093	425.746	-0.104	0.281
-113.078	-33.530	-0.323	-0.222
-112.064	165.889	0.131	-0.233
-111.049	-165.990	0.396	-0.021
-110.034	-80.832	-0.078	0.032
-109.020	456.854	-0.082	-0.228
-108.005	82.601	0.252	-0.342
-106.991	-192.610	0.267	-0.003
-105.976	59.961	-0.319	-0.393
-104.962	-200.000	-0.021	-0.225
-103.947	626.477	-0.105	-0.334
-102.932	800.000	0.053	-0.207
-101.918	800.000	-0.049	-0.215
-100.903	36.241	-0.223	-0.245
-99.889	-179.538	-0.389	-0.010
-98.874	-200.000	-0.035	-0.372
-97.859	239.426	0.051	-0.105
-96.845	800.000	-0.122	-0.531
-95.830	194.433	0.151	-0.286
-94.816	-200.000	-0.021	0.203
-93.801	121.586	0.104	0.162
-92.786	-113.897	-0.227	-0.055
-91.772	800.000	-0.111	0.585
-90.757	-200.000	0.003	-0.311
-89.743	-36.577	0.340	0.227
-88.728	-36.511	0.595	0.398
-87.713	204.812	-0.111	0.216
-86.699	-27.180	-0.080	0.058
-85.684	131.741	-0.115	0.185
-84.670	-200.000	-0.050	0.398
-83.655	-96.510	0.107	-0.035
-82.640	-112.898	-0.265	0.065
-81.626	-200.000	-0.012	0.158
-80.611	-147.627	-0.333	-0.034
-79.597	198.415	-0.135	-0.258
-78.582	554.590	0.071	-0.213
-77.567	-154.531	-0.170	0.014
-76.553	-174.478	0.534	0.019
-75.538	-200.000	-0.054	0.507
-74.524	155.449	0.310	-0.533
-73.509	-108.920	0.414	-0.109
-72.494	-200.000	-0.037	0.293
-71.480	-126.433	0.287	0.053
-70.465	-49.177	-0.125	-0.074
-69.451	-87.620	0.905	-0.339
-68.436	226.939	-0.055	-0.112
-67.422	-5.822	0.177	0.150
-66.407	-200.000	-0.026	0.518
-65.392	192.303	0.134	0.252
-64.378	-10.979	-0.281	-0.230
-63.363	101.946	-0.098	0.142
-62.349	10.706	-0.405	-0.385
-61.334	-26.893	-1.097	-0.796
-60.319	-82.221	-0.217	-0.088
-59.305	413.831	-2.075	-5.521
-58.290	-5.300	2.502	2.137
-57.276	453.375	3.574	9.892
-56.261	-200.000	9.379	187.705
-55.246	524.982	1088.460	3203.937
-54.232	70.510	2725.751	3510.898
-53.217	74.791	2676.949	3510.026
-52.203	66.960	2413.171	3061.312
-51.188	43.604	2061.207	2346.713
-50.173	40.431	1926.383	2158.465
-49.159	38.238	1914.468	2121.136
-48.144	37.684	1910.734	2110.878
-47.130	37.591	1908.315	2107.110
-46.115	37.522	1906.057	2103.780
-45.100	37.476	1904.080	2101.021
-44.086	37.415	1903.049	2099.134
-43.071	37.378	1901.619	2097.075
-42.057	37.357	1900.909	2095.982
-41.042	37.366	1899.300	2094.221
-40.027	37.397	1897.594	2092.584
-39.013	37.383	1895.989	2090.581
-37.998	37.269	1895.353	2088.571
-36.984	37.345	1893.383	2087.138
-35.969	37.228	1892.772	2085.117
-34.954	37.267	1890.943	2083.439
-33.940	37.270	1890.169	2082.531
-32.925	37.144	1889.730	2080.616
-31.911	37.187	1887.917	2078.991
-30.896	37.343	1886.350	2078.870
-29.881	37.124	1885.743	2075.759
-28.867	37.232	1884.418	2075.376
-27.852	37.296	1882.414	2073.780
-26.838	37.035	1881.735	2070.143
-25.823	37.042	1880.533	2068.816
-24.809	37.179	1878.966	2068.480
-23.794	37.150	1877.947	2066.958
-22.779	37.219	1876.354	2065.869
-21.765	37.024	1875.040	2062.256
-20.750	37.143	1873.992	2062.289
-19.736	37.065	1873.752	2061.112
-18.721	36.976	1870.994	2057.050
-17.706	37.039	1870.377	2056.958
-16.692	37.065	1868.975	2055.614
-15.677	37.004	1868.099	2053.914
-14.663	37.104	1866.547	2053.192
-13.648	36.982	1865.397	2050.549
-12.633	37.016	1864.018	2049.313
-11.619	36.996	1863.035	2047.941
-10.604	37.082	1861.718	2047.326
-9.590	37.032	1860.971	2045.886
-8.575	37.076	1859.158	2044.282
-7.560	37.163	1857.872	2043.711
-6.546	36.982	1857.509	2041.314
-5.531	37.028	1856.469	2040.571
-4.517	37.036	1855.171	2039.148
-3.502	36.896	1855.117	2037.530
-2.487	37.034	1853.101	2036.693
-1.473	37.221	1850.126	2035.316
-0.458	37.851	1831.913	2021.763
0.556	35.195	1962.367	2123.539
1.571	35.159	2180.587	2358.959
2.586	37.271	2231.629	2440.600
3.600	37.534	2234.942	2447.255
4.615	37.726	2235.380	2449.868
5.629	37.854	2233.154	2448.748
6.644	37.887	2231.145	2446.670
7.659	37.836	2229.857	2444.329
8.673	38.140	2229.227	2447.169
9.688	37.457	2230.977	2440.192
10.702	32.609	2293.020	2444.708
11.717	27.464	2350.333	2436.523
12.731	13.762	2315.998	2217.763
13.746	2.389	2285.282	2036.576
14.761	0.580	2280.721	2008.104
15.775	0.494	2278.580	2004.831
16.790	0.467	2276.097	2002.039
17.804	0.396	2275.129	2000.001
18.819	0.447	2273.883	1999.356
19.834	0.408	2272.945	1997.764
20.848	0.289	2272.169	1995.259
21.863	0.439	2269.608	1994.761
22.877	0.334	2267.504	1991.289
23.892	0.310	2265.661	1989.105
24.907	0.256	2263.857	1986.572
25.921	0.200	2263.154	1984.978
26.936	0.317	2259.855	1983.390
27.950	0.346	2257.236	1981.240
28.965	0.389	2254.685	1979.329
29.980	0.374	2254.361	1978.606
30.994	0.505	2252.821	1978.751
32.009	6.965	2274.911	2083.684
33.023	25.896	2334.958	2393.583
34.038	41.091	2375.167	2638.991
35.053	46.050	2384.032	2714.646
36.067	45.655	2377.315	2701.443
37.082	44.255	2373.671	2678.436
38.096	44.879	2373.774	2686.502
39.111	46.356	2376.345	2708.658
40.126	47.198	2376.287	2719.396
41.140	48.270	2376.999	2734.045
42.155	47.257	2372.076	2714.701
43.169	47.655	2373.307	2721.044
44.184	49.114	2374.387	2741.184
45.199	48.673	2371.543	2731.769
46.213	46.719	2363.569	2696.606
47.228	45.462	2358.145	2673.591
48.242	45.531	2357.644	2673.615
49.257	45.411	2355.290	2669.049
50.271	46.164	2355.566	2678.919
51.286	46.633	2354.871	2683.945
52.301	46.437	2351.271	2676.957
53.315	45.767	2347.012	2663.052
54.330	40.155	2326.046	2566.038
55.344	34.120	2307.890	2467.331
56.359	33.320	2302.013	2450.350
57.374	32.711	2299.086	2439.031
58.388	32.141	2295.140	2427.147
59.403	33.050	2294.160	2437.616
60.417	34.801	2296.762	2462.799
61.432	35.301	2295.120	2467.202
62.447	33.962	2291.869	2446.106
63.461	33.495	2288.190	2435.856
64.476	33.065	2283.995	2425.550
65.490	34.701	2288.524	2451.206
66.505	38.700	2301.871	2516.950
67.520	43.682	2314.462	2594.867
68.534	44.132	2311.678	2597.222
69.549	44.497	2311.136	2601.008
70.563	45.239	2309.661	2608.556
71.578	45.787	2309.660	2615.272
72.593	46.104	2310.057	2619.482
73.607	46.881	2309.148	2628.080
74.622	46.362	2305.914	2617.457
75.636	44.976	2299.997	2592.732
76.651	45.647	2300.499	2601.560
77.666	45.982	2298.039	2602.738
78.680	45.701	2296.473	2597.074
79.695	46.786	2297.308	2611.524
80.709	47.978	2299.394	2628.749
81.724	48.347	2298.711	2632.340
82.739	48.402	2295.803	2629.391
83.753	47.558	2291.360	2613.293
84.768	46.753	2286.815	2597.617
85.782	45.546	2282.271	2576.886
86.797	44.996	2279.535	2566.528
87.812	44.419	2274.615	2553.407
88.826	43.903	2271.933	2543.571
89.841	44.450	2272.580	2550.901
90.855	45.495	2272.564	2563.750
91.870	44.382	2268.010	2544.304
92.884	43.766	2264.976	2532.847
93.899	44.966	2267.019	2549.924
94.914	44.066	2262.266	2532.982
95.928	39.487	2247.742	2459.131
96.943	36.812	2240.162	2417.037
97.957	40.584	2250.423	2475.245
98.972	44.000	2255.637	2523.515
99.987	43.548	2250.705	2512.058
101.001	43.736	2249.762	2513.048
102.016	43.979	2248.535	2514.406
103.030	44.300	2247.629	2517.100
104.045	45.465	2249.542	2533.444
105.060	46.705	2249.178	2548.157
106.074	46.440	2246.177	2541.164
107.089	45.097	2241.257	2518.647
108.103	44.976	2242.046	2517.736
109.118	45.791	2241.780	2527.232
110.133	46.310	2242.277	2533.927
111.147	46.378	2238.782	2530.515
112.162	46.056	2238.028	2525.382
113.176	45.946	2235.276	2520.612
114.191	46.073	2232.580	2518.841
115.206	46.035	2231.248	2516.558
116.220	46.035	2229.695	2514.511
117.235	45.708	2225.618	2505.598
118.249	45.396	2223.537	2499.116
119.264	46.174	2223.280	2508.080
120.279	46.453	2222.852	2510.719
121.293	46.107	2218.910	2501.736
122.308	45.518	2216.356	2491.353
123.322	45.095	2215.024	2484.383
124.337	44.676	2211.599	2475.123
125.352	41.398	2201.565	2423.632
126.366	41.234	2202.704	2422.586
127.381	44.279	2207.093	2464.346
128.395	45.299	2207.072	2476.466
129.410	46.002	2207.021	2484.660
130.424	46.198	2205.001	2484.474
131.439	45.875	2201.861	2476.721
132.454	45.099	2199.167	2463.984
133.468	45.537	2196.815	2466.365
134.483	45.524	2195.401	2464.316
135.497	44.995	2192.665	2454.556
136.512	45.378	2192.448	2458.647
137.527	45.440	2189.394	2455.675
138.541	44.788	2187.163	2445.022
139.556	44.201	2184.127	2434.259
140.570	43.902	2183.343	2429.488
141.585	44.534	2181.439	2434.690
142.600	44.848	2181.090	2437.784
143.614	44.618	2179.945	2433.457
144.629	45.360	2179.930	2442.059
145.643	44.824	2177.101	2432.171
146.658	44.445	2173.799	2423.639
147.673	44.460	2173.137	2422.792
148.687	45.632	2172.622	2435.957
149.702	45.542	2172.660	2434.633
150.716	45.462	2169.439	2429.774
151.731	45.684	2170.530	2433.357
152.746	45.981	2169.615	2435.585
153.760	43.412	2159.350	2393.219
154.775	37.766	2141.644	2306.364
155.789	34.927	2135.960	2266.223
156.804	39.081	2146.159	2326.340
157.819	43.430	2153.891	2386.236
158.833	44.793	2154.919	2403.265
159.848	45.620	2155.737	2413.693
160.862	46.133	2155.765	2419.516
161.877	46.669	2155.782	2425.589
162.892	47.175	2155.362	2430.809
163.906	47.339	2154.512	2431.498
164.921	47.494	2152.761	2431.053
165.935	47.289	2150.918	2426.262
166.950	46.603	2147.484	2414.030
167.964	45.645	2140.323	2394.443
168.979	44.943	2138.626	2384.013
169.994	45.043	2137.856	2384.044
171.008	45.455	2136.807	2387.414
172.023	45.408	2135.067	2384.636
173.037	45.940	2135.724	2391.314
174.052	46.326	2135.068	2394.820
175.067	46.434	2135.030	2395.752
176.081	46.552	2132.884	2394.440
177.096	46.039	2130.401	2385.375
178.110	45.370	2126.063	2372.434
179.125	45.470	2124.866	2371.978
180.140	46.303	2126.065	2382.733
181.154	46.318	2124.217	2380.558
182.169	45.653	2122.567	2370.689
183.183	44.533	2115.991	2350.067
184.198	39.718	2099.015	2275.278
185.213	37.009	2095.791	2240.103
186.227	42.602	2109.470	2319.594
187.242	45.285	2111.651	2352.831
188.256	45.172	2111.034	2350.556
189.271	46.039	2112.605	2362.049
190.286	46.761	2111.522	2368.895
191.300	45.657	2105.325	2348.944
192.315	44.918	2102.484	2336.986
193.329	45.314	2104.443	2343.451
194.344	46.411	2103.828	2355.107
195.359	46.707	2102.475	2356.711
196.373	46.912	2101.259	2357.419
197.388	46.775	2098.158	2352.094
198.402	46.003	2094.526	2338.901
199.417	45.650	2091.374	2331.066
200.432	45.994	2092.348	2335.805
201.446	46.808	2092.147	2344.600
202.461	46.401	2088.747	2335.876
203.475	45.276	2084.722	2318.269
204.490	44.845	2081.978	2310.028
205.504	45.531	2081.283	2316.800
206.519	45.151	2076.589	2306.980
207.534	44.973	2075.873	2303.882
208.548	45.680	2076.145	2311.933
209.563	44.343	2069.787	2289.452
210.577	43.576	2068.131	2278.657
211.592	45.317	2071.247	2301.540
212.607	43.372	2061.532	2268.533
213.621	35.120	2041.817	2153.780
214.636	34.937	2044.718	2154.509
215.650	40.842	2057.259	2234.474
216.665	43.809	2062.356	2273.292
217.680	45.048	2063.969	2288.773
218.694	45.749	2063.549	2295.939
219.709	45.822	2061.519	2294.224
220.723	46.073	2061.480	2296.730
221.738	46.774	2061.375	2304.212
222.753	46.383	2058.684	2296.537
223.767	45.794	2055.285	2285.874
224.782	45.321	2051.792	2276.424
225.796	45.177	2050.327	2272.913
226.811	46.158	2050.642	2283.961
227.826	46.309	2050.243	2284.928
228.840	46.658	2050.545	2288.884
229.855	46.534	2046.612	2282.848
230.869	45.361	2042.151	2264.543
231.884	44.076	2038.354	2245.778
232.899	44.145	2038.255	2246.158
233.913	45.009	2038.792	2256.098
234.928	45.840	2039.463	2265.807
235.942	46.357	2040.079	2271.951
236.957	46.604	2037.822	2271.906
237.972	46.102	2035.659	2263.668
238.986	46.362	2035.447	2266.034
240.001	46.226	2032.279	2260.737
241.015	45.821	2028.947	2252.295
242.030	45.371	2027.135	2245.044
243.045	42.268	2015.829	2198.130
244.059	39.985	2013.187	2169.821
245.074	43.684	2019.342	2217.049
246.088	44.925	2018.376	2229.375
247.103	44.818	2016.525	2225.888
248.117	44.970	2016.928	2227.733
249.132	45.453	2016.644	2232.449
250.147	45.318	2013.554	2227.281
251.161	45.006	2011.185	2220.984
252.176	45.003	2010.203	2219.604
253.190	45.002	2008.300	2217.223
254.205	45.310	2006.464	2218.290
255.220	46.450	2008.191	2232.375
256.234	46.731	2007.521	2234.417
257.249	45.917	2004.815	2222.282
258.263	45.870	2005.098	2221.817
259.278	46.240	2004.816	2225.268
260.293	46.392	2002.947	2224.581
261.307	46.107	1999.644	2217.553
262.322	45.938	1998.231	2213.885
263.336	45.159	1993.765	2200.244
264.351	44.254	1990.681	2186.783
265.366	44.518	1989.694	2188.294
266.380	44.900	1989.383	2191.815
267.395	44.193	1985.458	2179.600
268.409	44.090	1985.088	2177.821
269.424	45.227	1987.290	2192.257
270.439	46.066	1986.823	2200.515
271.453	44.289	1977.700	2171.075
272.468	39.054	1962.907	2098.561
273.482	36.805	1960.540	2071.623
274.497	40.849	1968.910	2123.776
275.512	44.201	1973.213	2164.172
276.526	44.684	1971.432	2167.128
277.541	44.508	1968.444	2161.705
278.555	44.662	1967.917	2162.515
279.570	44.334	1964.539	2155.047
280.585	43.579	1962.052	2144.015
281.599	43.767	1962.799	2146.581
282.614	44.804	1963.645	2158.297
283.628	45.815	1963.368	2168.494
284.643	46.329	1964.828	2175.304
285.657	46.550	1963.998	2176.482
286.672	46.509	1961.723	2173.260
287.687	46.375	1960.048	2169.729
288.701	46.254	1957.881	2165.785
289.716	45.982	1956.385	2160.997
290.730	45.973	1954.663	2158.739
291.745	46.311	1953.814	2161.110
292.760	45.584	1951.194	2150.287
293.774	45.043	1950.493	2143.543
294.789	45.846	1950.263	2151.507
295.803	45.786	1946.762	2146.751
296.818	45.461	1944.937	2141.072
297.833	45.512	1944.919	2141.332
298.847	46.172	1945.975	2149.172
299.862	46.599	1944.059	2151.285
300.876	45.948	1939.107	2138.732
301.891	41.323	1923.750	2073.324
302.906	36.940	1918.610	2021.704
303.920	42.222	1931.455	2090.559
304.935	45.318	1934.236	2125.758
305.949	45.470	1932.012	2124.646
306.964	46.150	1932.355	2131.859
307.979	46.285	1930.121	2130.543
308.993	44.439	1923.876	2104.213
310.008	43.848	1921.298	2094.994
311.022	45.085	1923.325	2109.820
312.037	46.139	1923.919	2121.170
313.052	46.090	1921.759	2118.023
314.066	45.045	1917.558	2102.326
315.081	44.685	1916.587	2097.280
316.095	45.003	1915.329	2098.948
317.110	44.769	1914.759	2095.651
318.125	45.048	1911.652	2094.880
319.139	44.858	1911.912	2092.949
320.154	45.780	1912.678	2103.056
321.168	46.142	1911.843	2105.613
322.183	46.440	1910.823	2107.301
323.197	45.958	1908.339	2099.356
324.212	45.444	1905.161	2090.329
325.227	44.938	1901.300	2080.660
326.241	44.511	1900.039	2074.657
327.256	44.902	1899.012	2077.284
328.270	44.982	1898.015	2076.763
329.285	44.977	1898.539	2077.047
330.300	43.832	1892.783	2058.801
331.314	37.963	1877.231	1981.929
332.329	36.236	1875.765	1962.505
333.343	41.700	1886.312	2029.288
334.358	45.410	1891.510	2072.527
335.373	46.063	1891.496	2078.913
336.387	46.443	1889.414	2080.233
337.402	46.152	1888.152	2075.642
338.416	45.656	1885.561	2067.509
339.431	45.465	1884.320	2063.968
340.446	46.650	1884.747	2076.194
341.460	47.060	1884.263	2079.562
342.475	47.216	1882.274	2078.700
343.489	46.200	1877.978	2063.461
344.504	45.562	1876.244	2054.872
345.519	45.725	1876.020	2056.026
346.533	45.927	1874.361	2055.997
347.548	45.819	1873.000	2053.164
348.562	45.565	1870.368	2047.485
349.577	45.666	1870.827	2048.754
350.592	46.157	1869.819	2052.337
351.606	46.086	1868.969	2050.450
352.621	46.227	1866.480	2048.888
353.635	46.264	1866.839	2049.400
354.650	45.723	1864.293	2040.949
355.665	45.321	1861.707	2033.858
356.679	45.374	1859.894	2032.156
357.694	45.298	1858.732	2029.890
358.708	45.684	1858.160	2032.868
359.723	44.531	1851.081	2013.414
360.738	38.153	1835.603	1933.146
361.752	36.725	1835.995	1919.105
362.767	42.190	1845.709	1983.599
363.781	44.741	1848.455	2011.688
364.796	46.054	1849.065	2025.141
365.810	45.461	1846.493	2016.202
366.825	44.587	1844.065	2004.657
367.840	44.746	1842.358	2004.137
368.854	43.944	1840.110	1993.528
369.869	43.847	1838.984	1991.112
370.883	44.441	1838.334	1996.031
371.898	44.686	1837.955	1997.797
372.913	45.241	1837.292	2002.307
373.927	45.192	1836.238	2000.442
374.942	45.330	1835.326	2000.560
375.956	45.473	1833.821	2000.086
376.971	44.845	1830.987	1990.599
377.986	44.901	1829.984	1989.817
379.000	45.435	1830.238	1995.093
380.015	45.937	1829.928	1999.430
381.029	46.032	1827.905	1997.915
382.044	45.713	1825.894	1992.364
383.059	45.651	1822.865	1988.208
384.073	44.360	1819.447	1971.660
385.088	43.741	1817.843	1963.655
386.102	44.182	1818.948	1968.916
387.117	45.261	1818.533	1978.745
388.132	45.587	1818.053	1981.150
389.146	44.156	1811.489	1959.883
390.161	37.872	1794.691	1880.782
391.175	36.331	1793.537	1864.403
392.190	42.433	1802.646	1932.953
393.205	44.424	1805.484	1955.040
394.219	44.487	1804.549	1954.406
395.234	44.240	1803.280	1950.408
396.248	44.290	1801.403	1948.630
397.263	44.156	1798.045	1943.471
398.278	43.577	1794.969	1934.349
399.292	43.436	1794.508	1932.262
400.307	45.393	1798.802	1955.492
401.321	46.360	1798.587	1964.315
402.336	45.525	1795.027	1952.185
403.350	45.401	1794.304	1949.976
404.365	46.338	1795.901	1960.461
405.380	47.620	1796.701	1973.377
406.394	47.475	1794.509	1969.344
407.409	46.336	1790.892	1954.270
408.423	45.581	1787.926	1943.598
409.438	45.587	1786.530	1941.913
410.453	45.971	1785.549	1944.267
411.467	45.901	1784.416	1942.133
412.482	45.956	1784.564	1942.588
413.496	46.335	1783.928	1945.270
414.511	46.091	1780.492	1938.970
415.526	45.920	1778.060	1934.471
416.540	46.569	1778.762	1941.149
417.555	46.528	1777.133	1938.757
418.569	45.547	1775.892	1927.885
419.584	46.401	1776.815	1936.743
420.599	46.873	1775.697	1939.750
421.613	45.576	1771.873	1923.111
422.628	44.557	1769.212	1910.377
423.642	45.970	1771.518	1925.975
424.657	46.910	1769.997	1932.944
425.672	45.250	1764.967	1911.626
426.686	45.273	1764.637	1911.260
427.701	45.806	1764.920	1916.344
428.715	46.738	1764.900	1924.848
429.730	48.022	1767.171	1939.141
430.745	49.584	1770.171	1956.856
431.759	50.260	1769.521	1962.228
432.774	48.856	1760.969	1939.424
433.788	40.204	1737.801	1833.560
434.803	31.647	1722.146	1737.419
435.818	30.054	1719.277	1719.471
436.832	29.800	1719.042	1716.661
437.847	29.234	1712.289	1704.450
438.861	19.735	1683.812	1588.606
439.876	4.916	1656.242	1426.849
440.890	0.735	1649.161	1382.207
441.905	0.493	1647.200	1378.175
442.920	0.398	1645.206	1375.477
443.934	0.232	1643.936	1372.724
444.949	0.343	1643.101	1372.884
445.963	0.385	1643.041	1373.048
446.978	0.172	1642.806	1370.737
447.993	0.234	1640.850	1369.507
449.007	0.265	1638.617	1367.767
450.022	0.448	1635.954	1367.044
451.036	0.328	1635.096	1365.077
452.051	1.246	1639.932	1377.326
453.066	11.933	1667.021	1498.633
454.080	27.641	1695.450	1669.810
455.095	33.072	1703.266	1727.369
456.109	33.413	1703.634	1730.665
457.124	33.800	1703.278	1733.652
458.139	33.063	1700.504	1723.868
459.153	32.470	1697.509	1715.189
460.168	32.656	1695.954	1715.115
461.182	32.868	1695.331	1716.218
462.197	33.082	1693.949	1716.573
463.212	33.339	1692.871	1717.620
464.226	33.587	1692.267	1719.058
465.241	33.522	1691.401	1717.377
466.255	33.317	1690.688	1714.582
467.270	33.280	1689.241	1712.574
468.285	33.478	1688.628	1713.552
469.299	33.801	1688.224	1715.865
470.314	34.248	1686.341	1717.803
471.328	34.142	1685.525	1715.804
472.343	34.380	1685.087	1717.310
473.358	34.693	1683.839	1718.662
474.372	34.751	1682.504	1717.619
475.387	35.049	1682.946	1720.557
476.401	35.056	1681.363	1718.803
477.416	34.518	1679.401	1711.738
478.430	34.212	1677.607	1706.948
479.445	34.818	1677.760	1712.360
480.460	35.434	1676.830	1716.743
481.474	35.314	1675.878	1714.482
482.489	35.052	1673.011	1708.995
483.503	34.477	1670.486	1701.057
484.518	34.117	1669.084	1696.204
485.533	34.315	1668.650	1697.335
486.547	34.333	1666.096	1694.693
487.562	33.385	1662.800	1682.671
488.576	33.459	1662.805	1683.141
489.591	34.317	1662.721	1690.509
490.606	34.941	1662.009	1695.147
491.620	34.932	1661.416	1694.257
492.635	34.512	1658.036	1686.875
493.649	33.841	1655.254	1677.882
494.664	33.877	1655.760	1678.514
495.679	34.526	1655.723	1684.041
496.693	34.570	1653.855	1682.323
497.708	34.221	1651.829	1676.973
498.722	33.783	1650.429	1671.482
499.737	33.766	1647.999	1668.666
500.752	33.867	1646.815	1668.159
501.766	33.981	1645.105	1667.233
502.781	33.761	1643.673	1663.645
503.795	33.840	1641.651	1662.095
504.810	33.651	1640.766	1659.341
505.825	33.472	1640.219	1657.010
506.839	33.083	1638.954	1652.119
507.854	33.177	1637.371	1651.149
508.868	33.045	1634.803	1647.208
509.883	32.683	1633.818	1642.848
510.898	32.350	1631.833	1637.740
511.912	32.230	1630.075	1634.728
512.927	32.287	1629.089	1634.045
513.941	32.245	1627.677	1632.066
514.956	32.661	1627.003	1634.822
515.971	33.511	1626.148	1641.167
516.985	33.019	1623.914	1634.442
518.000	32.354	1623.186	1627.729
519.014	32.097	1621.282	1623.395
520.029	32.103	1619.016	1620.980
521.043	32.008	1618.398	1619.348
522.058	32.347	1617.692	1621.387
523.073	32.307	1617.107	1620.253
524.087	32.079	1615.517	1616.500
525.102	32.092	1614.691	1615.586
526.116	32.890	1614.474	1622.079
527.131	33.228	1613.584	1623.905
528.146	32.992	1611.783	1619.865
529.160	32.658	1610.746	1615.749
530.175	32.866	1610.091	1616.694
531.189	33.035	1608.513	1616.364
532.204	32.994	1607.621	1614.922
533.219	33.505	1607.071	1618.569
534.233	34.170	1608.165	1625.181
535.248	34.004	1606.433	1621.817
536.262	33.363	1604.242	1613.923
537.277	33.455	1603.618	1613.883
538.292	33.881	1602.631	1616.339
539.306	33.927	1600.851	1614.752
540.321	33.272	1599.001	1607.102
541.335	32.882	1596.441	1601.006
542.350	33.194	1595.510	1602.539
543.365	33.581	1594.980	1605.109
544.379	33.764	1593.405	1604.886
545.394	33.491	1592.267	1601.234
546.408	33.507	1591.449	1600.355
547.423	34.261	1591.084	1606.192
548.438	34.407	1589.830	1605.966
549.452	33.970	1589.298	1601.542
550.467	33.856	1587.641	1598.712
551.481	33.739	1585.125	1595.002
552.496	33.368	1583.557	1590.102
553.511	32.880	1581.875	1584.107
554.525	32.665	1580.696	1580.923
555.540	32.498	1579.179	1577.808
556.554	32.503	1578.140	1576.627
557.569	32.457	1576.327	1574.241
558.583	32.630	1574.420	1573.602
559.598	32.519	1573.835	1571.898
560.613	32.443	1573.463	1570.695
561.627	32.358	1571.365	1567.705
562.642	31.985	1568.688	1561.723
563.656	31.568	1566.055	1555.436
564.671	31.372	1565.062	1552.623
565.686	31.402	1564.024	1551.662
566.700	31.614	1563.033	1552.258
567.715	31.651	1562.164	1551.516
568.729	31.926	1561.714	1553.173
569.744	32.520	1561.431	1557.648
570.759	32.556	1560.047	1556.382
571.773	32.167	1558.196	1551.118
572.788	31.813	1556.452	1546.265
573.802	31.529	1555.187	1542.464
574.817	31.399	1552.584	1538.621
575.832	31.123	1551.225	1534.811
576.846	31.345	1550.668	1535.908
577.861	32.042	1550.397	1541.216
578.875	32.081	1550.018	1540.976
579.890	32.056	1548.374	1538.951
580.905	32.021	1547.641	1537.750
581.919	32.082	1546.840	1537.267
582.934	31.963	1545.974	1535.246
583.948	32.165	1544.352	1535.111
584.963	32.146	1543.739	1534.159
585.978	32.767	1543.982	1539.314
586.992	32.747	1542.703	1537.690
588.007	32.573	1541.091	1534.481
589.021	32.534	1540.010	1532.898
590.036	32.007	1538.323	1526.727
591.051	31.921	1537.134	1524.661
592.065	32.343	1535.319	1526.124
593.080	32.127	1534.436	1523.304
594.094	32.500	1533.829	1525.559
595.109	32.881	1533.105	1527.755
596.123	33.620	1531.673	1532.151
597.138	33.227	1530.380	1527.481
598.153	32.699	1528.956	1521.593
599.167	32.608	1527.252	1518.978
600.182	32.727	1525.926	1518.445
601.196	32.664	1525.329	1517.158
602.211	32.635	1524.028	1515.450
603.226	32.238	1521.601	1509.644
604.240	32.199	1519.895	1507.458
605.255	32.063	1517.989	1504.298
606.269	31.847	1517.811	1502.198
607.284	31.896	1516.321	1500.939
608.299	31.830	1514.262	1498.188
609.313	31.863	1513.585	1497.607
610.328	31.629	1512.366	1494.344
611.342	31.652	1510.291	1492.297
612.357	31.363	1508.922	1488.452
613.372	31.272	1508.086	1486.723
614.386	31.168	1507.205	1484.841
615.401	31.147	1506.623	1483.924
616.415	31.028	1504.851	1481.055
617.430	30.881	1503.438	1478.307
618.445	30.546	1502.248	1474.292
619.459	30.704	1501.131	1474.277
620.474	31.146	1500.943	1477.434
621.488	31.624	1501.511	1481.624
622.503	32.704	1501.469	1489.987
623.518	31.858	1499.059	1480.706
624.532	30.811	1495.859	1469.073
625.547	30.579	1494.600	1465.823
626.561	30.353	1493.199	1462.480
627.576	30.277	1492.387	1460.907
628.591	30.927	1491.738	1465.242
629.605	31.498	1491.835	1469.669
630.620	31.892	1492.124	1472.890
631.634	32.790	1492.308	1479.979
632.649	32.710	1491.097	1477.976
633.663	32.067	1487.450	1469.122
634.678	31.010	1484.859	1458.088
635.693	30.466	1482.040	1450.879
636.707	30.370	1480.447	1448.392
637.722	30.214	1478.863	1445.443
638.736	30.305	1478.423	1445.556
639.751	30.673	1477.927	1447.771
640.766	30.788	1477.484	1448.067
641.780	30.797	1476.209	1446.716
642.795	31.045	1475.264	1447.551
643.809	31.416	1474.319	1449.344
644.824	31.220	1475.076	1448.381
645.839	31.644	1473.797	1450.254
646.853	31.575	1472.153	1447.928
647.868	31.599	1471.187	1446.990
648.882	31.860	1470.574	1448.244
649.897	31.799	1470.160	1447.187
650.912	31.993	1468.067	1446.457
651.926	31.781	1466.304	1442.909
652.941	31.760	1465.591	1441.870
653.955	31.527	1463.958	1438.290
654.970	31.396	1461.120	1434.324
655.985	31.251	1459.209	1431.154
656.999	30.762	1457.625	1425.667
658.014	30.564	1456.917	1423.283
659.028	30.943	1456.695	1425.812
660.043	31.398	1457.293	1429.725
661.058	31.713	1456.140	1430.838
662.072	31.766	1455.221	1430.169
663.087	31.827	1454.451	1429.711
664.101	31.930	1453.211	1429.111
665.116	31.709	1452.074	1426.129
666.131	31.506	1450.381	1422.747
667.145	31.611	1449.177	1422.194
668.160	31.396	1447.378	1418.622
669.174	31.159	1445.411	1414.715
670.189	31.054	1444.272	1412.634
671.204	31.288	1444.594	1414.558
672.218	31.220	1443.888	1413.184
673.233	31.118	1442.560	1410.939
674.247	30.944	1440.567	1407.499
675.262	30.712	1439.436	1404.468
676.276	30.459	1438.018	1400.996
677.291	30.756	1437.716	1402.781
678.306	31.041	1436.994	1404.071
679.320	31.094	1435.391	1402.739
680.335	30.678	1433.667	1397.744
681.349	30.518	1433.479	1396.186
682.364	30.626	1432.352	1395.737
683.379	30.535	1429.988	1392.576
684.393	30.428	1428.368	1390.029
685.408	30.257	1427.787	1388.012
686.422	30.252	1427.289	1387.327
687.437	30.121	1425.840	1384.762
688.452	29.812	1424.516	1380.992
689.466	29.805	1422.826	1379.136
690.481	29.900	1421.241	1378.148
691.495	30.317	1421.980	1381.821
692.510	31.461	1423.221	1391.425
693.525	32.358	1423.377	1398.114
694.539	31.916	1421.072	1392.389
695.554	30.458	1418.017	1378.361
696.568	29.934	1415.355	1371.705
697.583	29.691	1414.260	1368.671
698.598	29.798	1413.803	1368.862
699.612	29.805	1412.514	1367.503
700.627	29.818	1411.569	1366.524
701.641	30.222	1411.572	1369.361
702.656	30.353	1410.677	1369.301
703.671	30.375	1409.424	1368.084
704.685	30.380	1409.719	1368.241
705.700	30.666	1408.266	1368.780
706.714	30.879	1407.466	1369.413
707.729	31.217	1406.239	1370.552
708.744	31.251	1405.330	1369.757
709.758	31.137	1403.545	1367.009
710.773	30.561	1402.029	1361.131
711.787	30.338	1400.364	1357.714
712.802	30.784	1398.990	1359.494
713.816	31.066	1398.229	1360.658
714.831	31.182	1398.039	1361.160
715.846	31.097	1396.914	1359.285
716.860	30.698	1395.721	1355.039
717.875	30.906	1394.727	1355.430
718.889	30.913	1394.574	1355.169
719.904	30.956	1392.492	1353.302
720.919	30.639	1391.479	1349.839
721.933	30.503	1390.266	1347.510
722.948	30.475	1389.635	1346.533
723.962	30.455	1387.932	1344.581
724.977	30.417	1386.147	1342.413
725.992	30.308	1385.343	1340.678
727.006	30.564	1384.006	1341.084
728.021	30.564	1382.105	1339.078
729.035	30.166	1380.965	1334.938
730.050	30.222	1380.296	1334.534
731.065	30.399	1378.971	1334.376
732.079	30.179	1378.200	1331.880
733.094	30.013	1377.808	1330.143
734.108	30.278	1376.614	1330.739
735.123	30.391	1374.412	1329.264
736.138	30.177	1373.556	1326.738
737.152	30.251	1372.636	1326.223
738.167	30.043	1371.022	1323.011
739.181	30.004	1370.179	1321.765
740.196	29.859	1369.991	1320.386
741.211	29.718	1369.032	1318.292
742.225	29.791	1368.127	1317.781
743.240	29.707	1366.539	1315.497
744.254	29.719	1364.537	1313.495
745.269	29.553	1363.739	1311.385
746.284	29.523	1362.555	1309.879
747.298	29.528	1362.172	1309.384
748.313	29.859	1361.963	1311.388
749.327	30.445	1362.221	1315.653
750.342	31.163	1363.780	1322.119
751.356	32.231	1362.871	1328.674
752.371	31.926	1360.516	1324.055
753.386	30.541	1357.301	1310.956
754.400	29.663	1355.581	1302.914
755.415	29.823	1354.340	1302.700
756.429	29.919	1353.234	1302.162
757.444	29.888	1352.722	1301.295
758.459	29.975	1351.551	1300.624
759.473	29.888	1350.736	1299.071
760.488	30.041	1349.066	1298.384
761.502	30.062	1347.772	1297.132
762.517	30.219	1346.829	1297.177
763.532	30.464	1346.055	1297.997
764.546	30.440	1344.616	1296.282
765.561	30.151	1344.324	1293.820
766.575	29.777	1343.034	1289.802
767.590	29.749	1342.063	1288.522
768.605	30.213	1341.194	1290.780
769.619	30.375	1340.989	1291.560
770.634	30.453	1339.400	1290.416
771.648	30.201	1337.596	1286.769
772.663	29.845	1336.510	1283.086
773.678	29.893	1335.733	1282.522
774.692	29.911	1335.186	1281.971
775.707	29.754	1334.459	1280.022
776.721	29.898	1333.740	1280.185
777.736	29.587	1332.765	1276.937
778.751	29.589	1331.117	1275.218
779.765	29.723	1329.708	1274.645
780.780	29.540	1328.827	1272.375
781.794	29.760	1327.934	1272.892
782.809	29.511	1326.608	1269.750
783.824	29.217	1325.890	1266.879
784.838	29.615	1325.723	1269.317
785.853	30.704	1325.985	1276.931
786.867	30.627	1324.859	1275.166
787.882	29.967	1323.281	1268.951
788.897	29.525	1322.438	1264.944
789.911	29.398	1321.136	1262.672
790.926	29.132	1319.196	1258.839
791.940	29.169	1317.493	1257.318
792.955	29.140	1316.119	1255.661
793.969	28.993	1315.277	1253.697
794.984	29.242	1314.265	1254.284
795.999	29.145	1313.919	1253.143
797.013	29.352	1311.515	1252.113
798.028	29.359	1310.294	1250.845
799.042	29.338	1309.776	1250.055
800.057	29.328	1308.723	1248.838
801.072	29.482	1307.458	1248.525
802.086	29.492	1306.364	1247.404
803.101	29.375	1305.155	1245.303
804.115	29.378	1304.677	1244.719
805.130	29.507	1304.138	1244.930
806.145	29.288	1303.212	1242.411
807.159	29.579	1301.474	1242.573
808.174	29.771	1300.822	1243.099
809.188	29.853	1300.578	1243.273
810.203	29.863	1299.428	1242.092
811.218	29.849	1297.789	1240.284
812.232	29.656	1295.796	1236.933
813.247	29.572	1294.229	1234.726
814.261	29.750	1294.429	1235.962
815.276	29.861	1293.592	1235.762
816.291	29.698	1291.953	1232.951
817.305	29.519	1290.877	1230.579
818.320	29.374	1289.361	1228.018
819.334	29.408	1288.403	1227.186
820.349	29.347	1287.289	1225.568
821.364	29.323	1285.694	1223.749
822.378	29.177	1284.632	1221.612
823.393	29.082	1282.791	1219.088
824.407	29.081	1281.706	1217.904
825.422	29.134	1281.322	1217.740
826.437	29.093	1280.829	1216.854
827.451	29.023	1279.442	1214.932
828.466	29.736	1279.725	1219.782
829.480	30.540	1278.626	1223.914
830.495	29.938	1275.489	1216.786
831.509	29.277	1273.380	1210.270
832.524	28.993	1272.813	1207.715
833.539	28.981	1271.706	1206.439
834.553	29.000	1270.031	1204.830
835.568	28.927	1269.382	1203.593
836.582	29.001	1268.883	1203.460
837.597	29.248	1267.251	1203.386
838.612	29.229	1265.633	1201.585
839.626	29.335	1265.150	1201.673
840.641	29.473	1265.180	1202.466
841.655	29.347	1264.284	1200.646
842.670	29.346	1262.691	1198.978
843.685	29.255	1261.956	1197.547
844.699	29.364	1261.031	1197.233
845.714	29.247	1259.540	1194.913
846.728	29.320	1258.104	1193.884
847.743	29.176	1256.889	1191.651
848.758	29.147	1255.926	1190.408
849.772	29.055	1254.591	1188.405
850.787	28.937	1252.899	1185.892
851.801	28.928	1252.011	1184.852
852.816	28.861	1250.794	1183.126
853.831	28.994	1249.000	1182.148
854.845	28.749	1247.717	1179.210
855.860	28.875	1246.366	1178.600
856.874	28.945	1245.674	1178.259
857.889	29.265	1245.210	1179.737
858.904	29.725	1244.872	1182.233
859.918	30.511	1244.536	1186.825
860.933	30.799	1243.220	1187.268
861.947	30.486	1241.734	1183.710
862.962	29.556	1239.854	1175.824
863.977	29.236	1238.261	1172.129
864.991	29.076	1236.591	1169.386
866.006	28.853	1236.133	1167.387
867.020	28.765	1235.237	1165.840
868.035	28.842	1233.981	1165.008
869.049	28.757	1233.255	1163.638
870.064	28.852	1232.447	1163.344
871.079	28.862	1231.368	1162.250
872.093	28.943	1230.959	1162.237
873.108	28.917	1230.760	1161.747
874.122	29.192	1228.980	1161.668
875.137	29.197	1228.442	1161.053
876.152	29.252	1227.262	1160.146
877.166	29.101	1226.423	1158.262
878.181	29.042	1224.234	1155.682
879.195	28.991	1223.769	1154.782
880.210	28.771	1223.053	1152.582
881.225	28.969	1221.131	1151.876
882.239	28.852	1220.819	1150.713
883.254	28.767	1219.808	1149.083
884.268	28.722	1219.246	1148.137
885.283	28.868	1217.871	1147.623
886.298	28.752	1216.028	1145.022
887.312	28.796	1214.880	1144.074
888.327	28.629	1214.631	1142.661
889.341	28.744	1212.953	1141.662
890.356	28.757	1212.130	1140.831
891.371	28.650	1212.371	1140.258
892.385	28.939	1211.099	1140.726
893.400	28.759	1210.480	1138.881
894.414	29.020	1209.816	1139.746
895.429	29.138	1208.960	1139.537
896.444	30.436	1208.934	1147.443
897.458	31.734	1208.733	1155.171
898.473	31.008	1207.290	1149.154
899.487	29.797	1205.190	1139.523
900.502	29.243	1202.709	1133.618
901.517	28.932	1200.953	1129.905
902.531	29.036	1199.713	1129.248
903.546	28.852	1199.500	1127.775
904.560	28.775	1198.580	1126.300
905.575	28.792	1197.857	1125.594
906.589	29.038	1196.563	1125.753
907.604	28.956	1195.838	1124.432
