DTS Sentinel unit serial number:	SN409020Multiplexer serial number:	ORYXHardware model number:	OX4-SRSoftware version number:	ORYX F/W v3.00 Oryx Data Collector v3.7.2.0data status	okinstallation	HaddamTimeLapsedifferential loss correction	single-endedforward channel	channel 3reverse channel	N/Adate	2011/06/22time	01:51:17forward acquisition time	30.00reverse acquisition time	0.00gamma	498.7831k internal	0.1751k external	0.1751temperature offset calibration	1.0074default loss term (dB/km)	0.3790temperature slope calibration	1.3530multiplexer offset coefficient	1.0000multiplexer slope coefficient	1.0000fibre end	0.00T internal ref (°C)	22.44T ext. ref 1 (°C)	17.72T ext. ref 2 (°C)	0.00length (m)	temperature (°C)	Stokes	anti-Stokes-747.200	1.947	0.227	-0.218
-746.185	-200.000	0.021	0.485
-745.171	-87.435	0.372	-0.149
-744.156	800.000	-0.051	0.244
-743.142	7.189	-0.165	0.163
-742.127	53.729	-0.094	-0.120
-741.112	-107.108	0.370	-0.108
-740.098	709.348	0.092	-0.324
-739.083	-200.000	-0.000	-0.221
-738.069	-189.648	-0.413	-0.006
-737.054	-200.000	-0.005	0.187
-736.039	-200.000	0.014	0.278
-735.025	-54.466	0.319	0.191
-734.010	274.179	0.235	-0.555
-732.996	-160.752	-0.184	-0.013
-731.981	-200.000	-0.042	-0.480
-730.966	-122.663	0.061	-0.013
-729.952	34.631	-0.105	0.122
-728.937	-200.000	-0.006	-0.059
-727.923	37.253	-0.178	0.209
-726.908	-200.000	-0.063	-0.513
-725.894	135.785	-0.222	0.384
-724.879	573.972	-0.134	0.435
-723.864	-200.000	-0.048	-0.344
-722.850	-27.411	0.217	0.167
-721.835	-177.541	0.629	0.020
-720.821	70.250	-0.030	0.041
-719.806	625.395	-0.137	0.461
-718.791	-9.633	-0.149	0.131
-717.777	-98.666	0.262	-0.088
-716.762	-38.496	-0.398	-0.278
-715.748	20.180	-0.187	0.200
-714.733	-200.000	0.088	0.620
-713.718	-175.832	-0.073	-0.003
-712.704	-54.035	0.730	-0.440
-711.689	-200.000	0.001	0.059
-710.675	129.399	-0.018	0.031
-709.660	-72.924	0.057	0.028
-708.645	-78.311	-0.333	0.151
-707.631	296.097	0.284	0.692
-706.616	208.212	-0.096	-0.199
-705.602	-137.757	0.466	0.069
-704.587	-65.375	-0.500	0.266
-703.572	-200.000	-0.053	-0.507
-702.558	-16.219	0.201	-0.169
-701.543	800.000	0.133	0.505
-700.529	2.595	-0.386	-0.371
-699.514	531.746	-0.084	-0.264
-698.499	-17.859	-0.323	-0.268
-697.485	-200.000	-0.035	-0.530
-696.470	800.000	-0.077	-0.380
-695.456	-39.098	0.272	0.189
-694.441	-133.133	0.220	0.037
-693.426	800.000	-0.020	0.089
-692.412	-172.550	-0.246	-0.010
-691.397	-44.576	0.167	-0.111
-690.383	-106.740	0.256	0.075
-689.368	-98.049	0.122	-0.041
-688.354	536.774	0.016	0.050
-687.339	-113.336	0.586	-0.151
-686.324	-151.966	-0.072	-0.007
-685.310	456.629	-0.107	0.316
-684.295	-32.243	0.398	0.294
-683.281	0.607	0.157	0.149
-682.266	-80.815	0.061	0.027
-681.251	-90.021	0.254	0.098
-680.237	184.343	-0.166	0.327
-679.222	-19.889	-0.286	-0.234
-678.208	-99.880	0.154	-0.051
-677.193	-37.734	0.097	0.068
-676.178	54.688	-0.262	0.335
-675.164	-87.135	0.089	-0.036
-674.149	-200.000	-0.020	-0.726
-673.135	-200.000	0.010	-0.094
-672.120	800.000	-0.094	0.356
-671.105	800.000	-0.049	0.238
-670.091	364.683	-0.210	-0.564
-669.076	800.000	-0.061	0.265
-668.062	527.948	0.120	0.378
-667.047	231.659	-0.112	-0.243
-666.032	649.134	-0.105	-0.356
-665.018	19.214	0.366	0.389
-664.003	115.123	-0.230	0.373
-662.989	-36.179	0.188	0.134
-661.974	-60.612	0.433	0.243
-660.959	20.775	0.115	-0.123
-659.945	125.873	-0.152	0.255
-658.930	334.393	0.133	0.343
-657.916	-77.499	-0.260	-0.119
-656.901	-70.212	-0.484	-0.242
-655.886	-200.000	-0.035	0.290
-654.872	-184.024	-0.307	0.007
-653.857	-8.583	0.098	-0.087
-652.843	290.626	-0.026	0.064
-651.828	-114.007	-0.175	-0.045
-650.814	-44.120	-0.401	-0.266
-649.799	-150.924	0.634	-0.063
-648.784	758.285	0.153	-0.552
-647.770	-42.625	0.467	0.314
-646.755	-86.238	-0.376	0.153
-645.741	-200.000	-0.015	-0.273
-644.726	-200.000	0.014	0.214
-643.711	9.246	-0.226	0.226
-642.697	75.260	0.211	-0.295
-641.682	75.471	-0.224	0.313
-640.668	-25.725	-0.275	-0.214
-639.653	-70.819	-0.294	0.146
-638.638	-130.138	0.182	0.033
-637.624	-200.000	-0.014	-0.207
-636.609	-95.538	-0.477	-0.168
-635.595	-182.212	0.221	-0.005
-634.580	181.030	-0.149	0.290
-633.565	-122.996	-0.713	0.150
-632.551	-200.000	0.054	-0.391
-631.536	-127.611	-0.447	0.085
-630.522	341.346	-0.056	0.145
-629.507	-56.102	0.582	0.342
-628.492	-49.802	-0.111	0.070
-627.478	-140.459	-0.592	0.081
-626.463	60.047	0.355	-0.464
-625.449	-111.393	-0.103	-0.027
-624.434	-50.142	0.386	-0.241
-623.419	-200.000	0.014	0.276
-622.405	-200.000	-0.073	-0.486
-621.390	-41.526	0.536	-0.364
-620.376	-157.323	0.179	-0.014
-619.361	800.000	-0.081	-0.453
-618.346	-156.077	0.498	-0.041
-617.332	-32.988	-0.370	0.271
-616.317	800.000	-0.036	0.209
-615.303	172.639	-0.277	-0.529
-614.288	-70.857	0.241	0.120
-613.273	45.391	-0.206	-0.251
-612.259	-115.934	-0.459	0.112
-611.244	-52.168	-0.145	0.088
-610.230	-183.424	-0.136	0.003
-609.215	-145.256	0.378	0.045
-608.201	12.785	-0.339	-0.346
-607.186	-168.106	0.515	0.026
-606.171	110.163	-0.053	-0.085
-605.157	104.658	-0.154	-0.241
-604.142	139.456	0.079	-0.137
-603.128	-132.290	-0.275	0.047
-602.113	98.303	0.221	-0.337
-601.098	-160.367	0.396	0.028
-600.084	-45.989	0.183	-0.119
-599.069	-75.534	0.279	0.130
-598.055	-5.803	-0.498	0.450
-597.040	-54.715	0.177	0.105
-596.025	93.002	0.194	-0.289
-595.011	-85.951	0.766	0.311
-593.996	70.475	0.098	-0.135
-592.982	800.000	0.074	0.368
-591.967	41.232	0.251	0.300
-590.952	-200.000	-0.014	0.255
-589.938	-146.182	0.435	-0.050
-588.923	41.190	-0.114	-0.136
-587.909	391.275	0.109	-0.300
-586.894	-113.730	-0.204	-0.052
-585.879	421.105	0.093	-0.264
-584.865	161.969	0.086	-0.160
-583.850	-69.200	0.447	-0.226
-582.836	-118.175	0.279	0.065
-581.821	130.786	-0.217	-0.368
-580.806	144.274	0.125	-0.221
-579.792	-67.370	0.408	0.211
-578.777	800.000	-0.064	0.299
-577.763	127.391	-0.133	0.224
-576.748	-83.557	0.533	0.224
-575.733	-28.232	-0.290	0.221
-574.719	-89.968	0.275	-0.105
-573.704	-128.052	0.075	-0.014
-572.690	-66.220	-0.329	0.172
-571.675	-157.342	-0.288	0.023
-570.661	-181.520	-0.076	-0.002
-569.646	800.000	0.133	0.544
-568.631	-200.000	0.031	-0.283
-567.617	-101.309	0.175	0.056
-566.602	-101.993	-0.156	0.049
-565.588	32.848	0.111	-0.126
-564.573	-78.165	0.717	-0.324
-563.558	50.076	-0.153	0.191
-562.544	5.307	0.397	0.386
-561.529	107.259	-0.213	-0.335
-560.515	50.968	-0.076	0.095
-559.500	26.158	0.129	0.143
-558.485	-47.382	-0.437	-0.280
-557.471	239.811	0.165	-0.363
-556.456	67.760	0.522	-0.705
-555.442	-169.588	-0.075	0.004
-554.427	-80.162	0.441	0.194
-553.412	800.000	-0.129	0.531
-552.398	-63.252	-0.673	-0.364
-551.383	-14.761	0.410	-0.347
-550.369	20.943	0.336	-0.359
-549.354	800.000	-0.036	-0.208
-548.339	64.586	-0.142	-0.188
-547.325	-44.857	-0.325	0.213
-546.310	-200.000	-0.014	0.185
-545.296	-180.709	0.283	-0.007
-544.281	622.410	0.027	0.089
-543.266	-200.000	0.032	0.198
-542.252	503.774	-0.046	-0.140
-541.237	-45.228	-0.531	0.347
-540.223	81.725	0.270	0.386
-539.208	456.166	0.091	0.266
-538.193	-128.213	-0.353	0.066
-537.179	662.406	-0.124	0.423
-536.164	-15.785	-0.069	-0.058
-535.150	-54.114	-0.170	-0.102
-534.135	-200.000	-0.006	0.512
-533.121	-20.178	-0.170	-0.138
-532.106	458.998	-0.217	-0.640
-531.091	800.000	-0.060	0.293
-530.077	-60.397	0.084	-0.047
-529.062	-200.000	0.054	0.509
-528.048	317.413	0.056	0.140
-527.033	800.000	-0.133	0.749
-526.018	97.680	0.026	0.040
-525.004	-200.000	0.036	-0.256
-523.989	-114.466	-0.579	-0.145
-522.975	553.158	-0.112	0.357
-521.960	-49.973	0.229	0.143
-520.945	-200.000	-0.021	-0.139
-519.931	494.423	0.051	-0.156
-518.916	-36.450	-0.191	-0.135
-517.902	800.000	-0.053	0.207
-516.887	-20.223	-0.234	0.190
-515.872	-75.530	0.242	0.113
-514.858	-15.834	-0.071	0.060
-513.843	-34.938	-0.100	0.071
-512.829	800.000	0.015	0.072
-511.814	43.412	0.286	0.344
-510.799	-200.000	-0.022	0.153
-509.785	-134.603	0.305	-0.049
-508.770	-22.023	-0.259	0.207
-507.756	-139.839	0.213	-0.029
-506.741	39.492	-0.216	0.254
-505.726	-31.037	0.284	-0.210
-504.712	-200.000	-0.010	-0.518
-503.697	11.966	0.132	-0.134
-502.683	22.175	-0.156	0.168
-501.668	-75.434	0.316	0.147
-500.653	24.371	0.153	-0.166
-499.639	-88.703	-0.314	0.122
-498.624	-50.536	0.216	0.133
-497.610	-101.237	0.474	0.152
-496.595	-71.742	0.326	0.160
-495.581	-76.013	0.296	0.137
-494.566	-200.000	0.026	-0.281
-493.551	393.980	0.058	-0.159
-492.537	-200.000	0.015	-0.207
-491.522	328.148	0.165	-0.419
-490.508	396.601	0.048	-0.132
-489.493	208.567	0.143	-0.295
-488.478	-13.322	0.109	-0.093
-487.464	19.101	0.358	-0.378
-486.449	-45.858	-0.800	-0.518
-485.435	800.000	0.071	-0.287
-484.420	800.000	-0.046	-0.264
-483.405	-25.540	0.029	-0.023
-482.391	377.054	-0.043	0.117
-481.376	-141.382	-0.127	0.017
-480.362	119.615	0.251	-0.410
-479.347	800.000	-0.093	0.430
-478.332	59.032	0.431	-0.558
-477.318	-2.930	0.399	-0.366
-476.303	-131.460	-0.228	-0.039
-475.289	-122.639	-0.307	0.065
-474.274	-145.833	-0.300	0.035
-473.259	-115.586	-0.118	-0.029
-472.245	14.742	-0.232	-0.238
-471.230	-65.502	0.591	-0.311
-470.216	453.664	-0.032	0.093
-469.201	800.000	0.055	0.293
-468.186	-200.000	-0.022	-0.209
-467.172	6.957	0.279	-0.273
-466.157	-110.884	0.330	-0.089
-465.143	800.000	-0.063	-0.260
-464.128	-200.000	0.016	0.172
-463.113	-200.000	-0.024	0.169
-462.099	-15.558	-0.161	-0.135
-461.084	-20.865	-0.265	0.213
-460.070	800.000	-0.032	0.154
-459.055	-26.056	-0.261	-0.201
-458.040	-28.857	-0.224	-0.169
-457.026	800.000	0.156	0.618
-456.011	-38.113	0.035	-0.025
-454.997	609.408	0.059	0.194
-453.982	-101.308	-0.095	-0.030
-452.968	-138.856	0.275	0.039
-451.953	-91.019	0.198	0.074
-450.938	8.678	-0.146	-0.145
-449.924	-200.000	0.031	-0.422
-448.909	191.275	-0.168	-0.332
-447.895	-116.602	-0.167	0.040
-446.880	-42.837	0.605	0.402
-445.865	800.000	-0.090	0.381
-444.851	159.691	-0.034	0.063
-443.836	585.300	0.025	-0.082
-442.822	69.564	-0.236	-0.319
-441.807	-18.025	0.172	-0.141
-440.792	44.662	-0.178	-0.215
-439.778	-48.897	0.033	-0.021
-438.763	104.703	0.175	-0.271
-437.749	41.163	0.150	0.177
-436.734	267.754	0.086	0.199
-435.719	692.611	-0.125	-0.433
-434.705	-187.531	0.417	0.007
-433.690	-118.092	0.369	0.086
-432.676	15.845	-0.283	0.292
-431.661	-145.449	0.355	0.041
-430.646	-96.165	0.251	-0.087
-429.632	47.670	0.172	-0.211
-428.617	-4.302	0.271	-0.246
-427.603	299.782	0.061	-0.147
-426.588	-200.000	0.033	0.269
-425.573	-127.283	0.401	0.076
-424.559	-200.000	-0.021	-0.292
-423.544	131.687	0.137	-0.232
-422.530	108.184	-0.260	0.408
-421.515	-200.000	0.027	0.469
-420.500	129.841	-0.065	0.109
-419.486	-200.000	-0.007	0.072
-418.471	-200.000	0.016	0.300
-417.457	-72.494	0.318	-0.154
-416.442	83.365	0.264	0.377
-415.428	-106.649	-0.167	-0.049
-414.413	22.761	-0.076	-0.081
-413.398	110.144	-0.067	0.105
-412.384	-95.013	-0.262	-0.093
-411.369	-159.795	-0.112	0.008
-410.355	62.719	0.132	0.173
-409.340	39.655	0.238	-0.280
-408.325	-175.742	-0.146	-0.005
-407.311	39.596	0.113	-0.133
-406.296	800.000	-0.067	-0.314
-405.282	-22.259	-0.028	0.022
-404.267	2.944	0.099	0.094
-403.252	232.191	-0.185	0.399
-402.238	748.565	-0.079	0.280
-401.223	-50.061	-0.214	0.133
-400.209	-127.588	-0.604	-0.114
-399.194	-144.823	0.382	0.045
-398.179	594.356	-0.060	0.196
-397.165	593.762	-0.049	0.159
-396.150	-67.186	0.161	-0.083
-395.136	335.319	0.085	0.217
-394.121	-107.194	0.354	0.102
-393.106	-88.792	0.268	0.104
-392.092	312.354	-0.097	0.240
-391.077	-65.141	-0.106	0.056
-390.063	-200.000	-0.002	0.057
-389.048	99.139	-0.219	0.332
-388.033	-155.878	0.543	0.045
-387.019	-200.000	0.004	-0.124
-386.004	-153.860	-0.142	0.013
-384.990	2.150	-0.123	-0.117
-383.975	800.000	-0.050	-0.205
-382.960	-23.509	0.159	0.125
-381.946	31.453	-0.094	-0.106
-380.931	-40.074	-0.322	0.220
-379.917	800.000	0.147	0.592
-378.902	45.655	-0.108	0.131
-377.888	-128.700	0.499	-0.091
-376.873	-36.934	0.124	0.087
-375.858	-16.259	-0.441	0.366
-374.844	-162.989	-0.470	0.029
-373.829	-62.341	-0.494	-0.268
-372.815	800.000	0.076	-0.392
-371.800	-61.457	0.328	-0.180
-370.785	800.000	-0.097	-0.453
-369.771	-200.000	-0.049	0.329
-368.756	-126.986	-0.321	-0.061
-367.742	202.204	-0.123	0.248
-366.727	-81.793	-0.136	-0.058
-365.712	123.544	-0.076	0.124
-364.698	796.107	0.050	0.182
-363.683	-3.930	-0.225	0.204
-362.669	-95.252	-0.428	-0.150
-361.654	-68.608	-0.190	0.096
-360.639	171.828	-0.293	0.552
-359.625	-200.000	-0.015	0.167
-358.610	202.631	0.052	-0.105
-357.596	-200.000	-0.014	0.339
-356.581	-24.681	-0.070	0.055
-355.566	-145.848	-0.243	-0.028
-354.552	-200.000	-0.043	-0.347
-353.537	684.115	0.087	-0.297
-352.523	800.000	0.058	0.295
-351.508	-74.752	0.195	0.091
-350.493	-200.000	-0.079	0.731
-349.479	-112.729	-0.174	0.045
-348.464	152.422	-0.176	-0.315
-347.450	90.459	0.132	0.193
-346.435	-200.000	-0.005	-0.303
-345.420	141.260	-0.038	-0.066
-344.406	-56.464	0.133	0.077
-343.391	110.282	0.172	0.271
-342.377	-38.684	0.128	-0.088
-341.362	-2.114	-0.100	0.092
-340.348	-19.203	-0.087	0.071
-339.333	599.594	0.108	-0.353
-338.318	-35.089	0.288	0.204
-337.304	-200.000	-0.001	-0.038
-336.289	-200.000	0.056	0.326
-335.275	-200.000	-0.022	-0.216
-334.260	800.000	0.077	0.304
-333.245	-200.000	0.040	0.285
-332.231	39.688	-0.228	0.267
-331.216	76.442	-0.182	-0.252
-330.202	-200.000	-0.004	-0.100
-329.187	-132.084	-0.287	-0.048
-328.172	-70.805	-0.360	-0.177
-327.158	78.201	-0.259	-0.362
-326.143	-76.797	0.199	0.091
-325.129	-19.433	0.169	-0.136
-324.114	-200.000	-0.009	-0.164
-323.099	745.632	-0.082	-0.292
-322.085	36.018	0.145	-0.167
-321.070	-114.113	0.372	0.093
-320.056	800.000	-0.049	0.200
-319.041	-67.002	0.070	-0.036
-318.026	800.000	-0.043	0.231
-317.012	-56.605	-0.704	-0.406
-315.997	-120.240	-0.153	0.034
-314.983	-131.293	0.405	-0.069
-313.968	20.984	-0.179	-0.190
-312.953	10.610	-0.222	0.221
-311.939	100.817	-0.219	0.332
-310.924	-122.125	0.298	-0.063
-309.910	118.325	0.284	-0.459
-308.895	-200.000	0.045	-0.283
-307.880	395.812	-0.070	-0.191
-306.866	-56.621	0.223	-0.129
-305.851	-113.455	-0.256	-0.065
-304.837	-56.057	-0.354	0.205
-303.822	194.257	-0.196	0.388
-302.807	-50.774	-0.196	-0.120
-301.793	-69.475	0.217	0.108
-300.778	-39.093	-0.349	-0.239
-299.764	-168.106	-0.496	0.025
-298.749	530.003	0.103	0.319
-297.735	-156.354	-0.136	0.011
-296.720	800.000	0.083	-0.379
-295.705	21.901	-0.189	0.201
-294.691	-0.226	-0.474	0.440
-293.676	404.283	-0.055	0.151
-292.662	96.781	0.273	0.408
-291.647	5.131	0.393	0.377
-290.632	-119.962	-0.315	-0.070
-289.618	-148.183	-0.179	0.019
-288.603	102.354	-0.183	0.280
-287.589	134.701	0.116	0.197
-286.574	-110.615	-0.239	-0.064
-285.559	-127.024	-0.523	0.099
-284.545	203.990	-0.256	-0.519
-283.530	-42.728	-0.110	0.073
-282.516	-59.504	0.247	0.138
-281.501	-27.822	-0.090	-0.068
-280.486	42.111	0.020	-0.023
-279.472	347.178	0.070	-0.181
-278.457	-146.768	0.066	0.007
-277.443	113.855	0.178	-0.283
-276.428	667.009	-0.037	-0.124
-275.413	286.982	-0.056	-0.131
-274.399	-164.203	-0.343	0.020
-273.384	-149.418	0.566	0.058
-272.370	130.178	-0.114	-0.190
-271.355	-57.456	0.206	0.118
-270.340	82.498	-0.196	-0.277
-269.326	-31.839	0.333	-0.243
-268.311	-200.000	-0.033	-0.670
-267.297	-193.073	0.515	0.006
-266.282	-200.000	-0.017	-0.106
-265.267	185.884	0.142	0.277
-264.253	25.623	-0.164	-0.178
-263.238	-89.329	-0.186	0.071
-262.224	57.765	0.431	0.550
-261.209	119.567	-0.255	0.413
-260.195	800.000	-0.112	0.582
-259.180	-142.777	-0.351	0.044
-258.165	95.321	-0.115	0.171
-257.151	-116.917	-0.119	0.028
-256.136	-73.301	0.138	-0.066
-255.122	180.446	0.172	0.329
-254.107	-9.562	-0.282	-0.245
-253.092	60.824	-0.183	-0.237
-252.078	-185.647	-0.226	0.004
-251.063	-172.696	0.338	0.014
-250.049	437.310	-0.054	0.155
-249.034	800.000	-0.038	-0.147
-248.019	-200.000	0.013	0.455
-247.005	-136.159	0.240	-0.036
-245.990	159.113	-0.119	-0.217
-244.976	5.035	0.069	-0.066
-243.961	-200.000	0.026	-0.209
-242.946	-112.362	0.397	-0.103
-241.932	288.576	-0.040	-0.096
-240.917	-22.706	0.155	0.122
-239.903	-200.000	0.020	0.541
-238.888	377.455	0.309	0.827
-237.873	224.475	-0.187	-0.394
-236.859	-162.996	0.179	0.011
-235.844	800.000	0.042	0.197
-234.830	627.806	-0.191	-0.633
-233.815	-15.169	-0.303	-0.252
-232.800	-36.668	-0.136	0.095
-231.786	-17.143	0.159	0.130
-230.771	-88.070	-0.138	0.054
-229.757	56.564	0.242	0.307
-228.742	239.904	-0.118	-0.257
-227.727	-61.509	0.160	-0.087
-226.713	229.283	-0.186	-0.397
-225.698	128.300	-0.025	-0.042
-224.684	-134.890	0.157	0.024
-223.669	175.326	0.093	-0.177
-222.655	-148.805	0.249	0.026
-221.640	-77.333	0.549	-0.247
-220.625	-5.826	0.272	-0.243
-219.611	-153.851	0.507	0.045
-218.596	-34.854	0.327	-0.232
-217.582	-157.275	-0.272	0.021
-216.567	-12.464	0.055	-0.047
-215.552	249.958	0.049	0.109
-214.538	800.000	0.025	0.115
-213.523	-151.543	-0.198	-0.019
-212.509	375.688	-0.137	-0.366
-211.494	-135.976	-0.517	-0.078
-210.479	132.997	-0.094	0.158
-209.465	-112.227	0.117	0.030
-208.450	515.743	0.097	0.297
-207.436	-56.120	-0.341	-0.197
-206.421	-95.442	-0.428	-0.148
-205.406	106.474	0.235	-0.363
-204.392	-54.628	-0.289	0.170
-203.377	-125.347	0.312	0.061
-202.363	-200.000	0.008	0.410
-201.348	-85.477	-0.277	-0.112
-200.333	-155.350	0.466	-0.039
-199.319	-61.595	-0.170	-0.093
-198.304	800.000	-0.011	-0.041
-197.290	-200.000	-0.312	-0.002
-196.275	40.094	0.141	-0.164
-195.260	-179.092	-0.470	-0.013
-194.246	-170.140	-0.307	0.014
-193.231	-127.848	-0.701	-0.130
-192.217	-81.988	-0.287	-0.121
-191.202	-105.969	0.238	0.069
-190.187	-130.544	-0.295	-0.051
-189.173	-174.088	0.178	0.007
-188.158	592.541	0.191	0.617
-187.144	17.079	-0.185	0.191
-186.129	16.873	-0.231	0.238
-185.114	59.262	-0.254	0.326
-184.100	-92.144	0.275	0.101
-183.085	-47.854	-0.065	-0.041
-182.071	124.051	0.233	-0.381
-181.056	-200.000	-0.003	-0.342
-180.042	-22.114	-0.107	-0.085
-179.027	580.562	-0.033	0.107
-178.012	-38.613	0.360	-0.247
-176.998	-130.751	0.263	-0.046
-175.983	-170.562	-0.458	-0.020
-174.969	-64.516	-0.165	-0.087
-173.954	-135.799	0.322	0.049
-172.939	-102.985	-0.345	0.106
-171.925	800.000	0.090	0.361
-170.910	254.357	-0.015	0.033
-169.896	-161.875	0.288	0.019
-168.881	9.929	-0.266	0.262
-167.866	-94.719	0.141	-0.049
-166.852	318.731	-0.051	0.126
-165.837	88.754	0.298	-0.431
-164.823	308.313	0.181	0.441
-163.808	-117.416	0.034	0.008
-162.793	-88.720	-0.321	-0.123
-161.779	-130.538	-0.516	0.090
-160.764	-42.360	-0.148	-0.098
-159.750	250.020	0.035	-0.078
-158.735	-106.615	0.433	0.124
-157.720	54.142	0.089	-0.112
-156.706	-139.850	-0.170	-0.023
-155.691	137.546	0.024	0.040
-154.677	129.654	0.216	-0.360
-153.662	-0.273	-0.298	-0.275
-152.647	82.515	-0.347	-0.489
-151.633	-119.912	0.254	0.056
-150.618	6.350	-0.165	0.159
-149.604	-84.608	0.373	0.152
-148.589	-105.470	-0.325	0.095
-147.574	-60.350	-0.132	0.073
-146.560	-12.114	0.309	0.262
-145.545	-46.825	-0.382	-0.242
-144.531	-1.666	-0.275	-0.252
-143.516	-30.219	-0.206	-0.151
-142.502	-116.262	0.156	-0.037
-141.487	-60.126	0.164	-0.091
-140.472	-78.300	0.110	0.049
-139.458	223.114	0.176	0.370
-138.443	53.079	0.127	0.158
-137.429	-145.878	0.396	0.045
-136.414	23.640	-0.434	0.463
-135.399	-60.825	-0.030	0.016
-134.385	101.599	0.303	0.459
-133.370	324.930	-0.123	0.305
-132.356	4.089	0.316	0.300
-131.341	-15.853	-0.318	0.262
-130.326	-13.724	0.167	-0.140
-129.312	-84.837	0.483	-0.196
-128.297	466.589	-0.105	-0.308
-127.283	-62.885	-0.231	-0.123
-126.268	26.283	-0.124	0.134
-125.253	-32.276	-0.461	0.333
-124.239	-167.015	-0.254	0.013
-123.224	-186.536	-0.405	-0.007
-122.210	-11.093	-0.166	-0.142
-121.195	368.143	-0.133	0.350
-120.180	-83.916	0.525	-0.216
-119.166	-137.502	0.343	-0.050
-118.151	-200.000	-0.024	-0.240
-117.137	76.077	0.128	-0.176
-116.122	241.806	-0.223	0.484
-115.107	165.781	0.053	0.097
-114.093	800.000	-0.102	-0.558
-113.078	-142.142	-0.454	-0.058
-112.064	431.480	0.064	0.181
-111.049	336.848	-0.069	-0.174
-110.034	-45.590	-0.354	-0.226
-109.020	14.061	-0.410	0.414
-108.005	-165.417	0.325	0.018
-106.991	-200.000	-0.075	0.465
-105.976	-200.000	0.037	-0.246
-104.962	800.000	0.101	-0.444
-103.947	-128.515	-0.186	-0.034
-102.932	800.000	-0.077	0.416
-101.918	-84.198	-0.250	-0.102
-100.903	-62.709	-0.785	-0.420
-99.889	-200.000	0.016	-0.095
-98.874	238.719	0.203	0.438
-97.859	21.955	0.074	-0.078
-96.845	487.275	0.194	0.576
-95.830	313.774	0.052	0.128
-94.816	-200.000	-0.311	0.001
-93.801	233.232	-0.076	-0.163
-92.786	-111.273	0.155	-0.041
-91.772	800.000	0.085	0.315
-90.757	508.917	0.219	0.663
-89.743	800.000	-0.069	-0.360
-88.728	367.518	-0.115	-0.302
-87.713	-200.000	-0.025	-0.283
-86.699	129.421	-0.071	-0.118
-85.684	277.407	0.107	0.247
-84.670	800.000	-0.037	-0.186
-83.655	-115.051	0.185	0.045
-82.640	139.440	-0.179	-0.305
-81.626	28.127	-0.557	-0.608
-80.611	-200.000	-0.014	-0.138
-79.597	800.000	-0.102	-0.395
-78.582	-59.124	-0.158	0.088
-77.567	-37.908	0.325	-0.223
-76.553	-64.280	-0.304	-0.160
-75.538	-41.649	-0.162	-0.108
-74.524	-145.254	0.058	0.007
-73.509	-148.798	0.575	-0.060
-72.494	-132.786	-0.361	0.059
-71.480	-10.845	0.245	0.209
-70.465	-106.440	0.463	0.133
-69.451	26.337	-0.162	-0.175
-68.436	418.808	-0.146	0.405
-67.422	-116.287	0.495	-0.118
-66.407	-3.317	-0.103	-0.093
-65.392	-65.491	-0.649	0.336
-64.378	-41.193	0.210	-0.140
-63.363	800.000	0.006	-0.031
-62.349	127.877	0.099	-0.163
-61.334	46.974	-2.235	-2.690
-60.319	56.520	1.376	1.732
-59.305	211.586	-3.760	-7.680
-58.290	22.728	4.386	4.646
-57.276	318.052	4.165	10.239
-56.261	-200.000	23.990	321.591
-55.246	350.889	1308.832	3363.514
-54.232	52.298	2849.603	3517.213
-53.217	51.025	2661.216	3264.858
-52.203	31.470	2389.985	2656.226
-51.188	27.649	2057.006	2239.010
-50.173	24.256	1943.755	2076.004
-49.159	23.295	1931.845	2052.015
-48.144	22.782	1927.266	2041.104
-47.130	22.713	1924.689	2037.494
-46.115	22.529	1924.286	2034.857
-45.100	22.717	1921.940	2034.471
-44.086	22.670	1920.623	2032.456
-43.071	22.609	1918.763	2029.693
-42.057	22.623	1917.090	2028.012
-41.042	22.573	1915.230	2025.385
-40.027	22.626	1914.540	2025.186
-39.013	22.713	1913.056	2024.536
-37.998	22.705	1912.118	2023.367
-36.984	22.545	1911.019	2020.283
-35.969	22.520	1909.911	2018.746
-34.954	22.535	1907.961	2016.776
-33.940	22.494	1907.275	2015.501
-32.925	22.550	1904.919	2013.577
-31.911	22.504	1904.252	2012.267
-30.896	22.570	1902.262	2010.841
-29.881	22.565	1901.359	2009.743
-28.867	22.545	1900.285	2008.305
-27.852	22.394	1898.697	2004.814
-26.838	22.387	1896.743	2002.587
-25.823	22.353	1896.884	2002.269
-24.809	22.425	1894.511	2000.513
-23.794	22.535	1893.221	2000.326
-22.779	22.463	1891.742	1997.856
-21.765	22.400	1890.807	1996.069
-20.750	22.428	1889.034	1994.440
-19.736	22.337	1889.066	1993.365
-18.721	22.390	1887.466	1992.196
-17.706	22.340	1886.893	1990.945
-16.692	22.512	1885.049	1990.873
-15.677	22.376	1884.448	1988.611
-14.663	22.266	1882.890	1985.640
-13.648	22.343	1880.900	1984.334
-12.633	22.323	1880.135	1983.226
-11.619	22.369	1878.975	1982.446
-10.604	22.358	1877.680	1980.882
-9.590	22.440	1876.092	1980.046
-8.575	22.338	1875.286	1977.971
-7.560	22.295	1873.977	1976.021
-6.546	22.335	1872.712	1975.067
-5.531	22.426	1871.118	1974.329
-4.517	22.223	1870.646	1971.466
-3.502	22.302	1869.446	1971.007
-2.487	22.403	1868.182	1970.733
-1.473	22.389	1865.243	1967.403
-0.458	22.071	1846.795	1944.323
0.556	18.649	1993.745	2045.825
1.571	17.269	2196.955	2235.840
2.586	18.032	2236.220	2285.794
3.600	18.182	2238.023	2289.381
4.615	18.172	2236.649	2287.561
5.629	18.140	2235.595	2285.779
6.644	18.143	2233.655	2283.572
7.659	18.061	2231.858	2280.363
8.673	18.239	2229.678	2280.244
9.688	17.883	2239.516	2285.244
10.702	16.946	2320.186	2354.206
11.717	15.439	2384.409	2397.452
12.731	7.187	2365.576	2260.260
13.746	0.951	2349.336	2155.448
14.761	0.128	2346.114	2140.466
15.775	0.027	2344.398	2137.197
16.790	0.087	2341.667	2135.318
17.804	0.064	2340.845	2133.977
18.819	0.028	2339.250	2131.757
19.834	0.008	2337.562	2129.677
20.848	0.041	2336.156	2128.606
21.863	0.022	2334.676	2126.741
22.877	0.005	2332.637	2124.383
23.892	0.022	2329.686	2121.684
24.907	-0.069	2328.443	2119.008
25.921	0.025	2326.377	2118.208
26.936	0.050	2324.321	2116.436
27.950	-0.013	2321.214	2112.462
28.965	-0.025	2319.392	2110.384
29.980	0.003	2317.917	2109.180
30.994	0.107	2316.468	2109.072
32.009	3.804	2326.286	2169.996
33.023	12.666	2351.689	2319.401
34.038	16.330	2359.452	2378.743
35.053	16.380	2355.772	2375.458
36.067	16.178	2352.324	2368.833
37.082	16.017	2350.264	2364.206
38.096	16.193	2348.208	2364.336
39.111	16.361	2346.116	2364.320
40.126	16.515	2344.794	2364.857
41.140	16.647	2343.877	2365.507
42.155	16.682	2341.741	2363.567
43.169	16.570	2339.965	2359.924
44.184	16.495	2336.069	2354.660
45.199	16.456	2333.692	2351.438
46.213	16.489	2333.588	2351.505
47.228	16.587	2332.674	2351.673
48.242	16.637	2330.888	2350.296
49.257	16.730	2328.883	2349.286
50.271	16.785	2326.971	2347.841
51.286	16.577	2323.504	2341.167
52.301	16.405	2321.683	2336.669
53.315	17.156	2324.455	2349.621
54.330	19.905	2332.410	2395.679
55.344	21.596	2332.955	2419.458
56.359	21.726	2330.010	2417.916
57.374	21.888	2329.336	2419.178
58.388	22.112	2325.947	2418.476
59.403	21.912	2322.821	2412.168
60.417	21.570	2319.337	2403.540
61.432	21.574	2317.909	2401.835
62.447	21.874	2317.268	2405.017
63.461	22.108	2315.240	2405.846
64.476	22.100	2313.550	2403.688
65.490	21.778	2311.523	2396.866
66.505	20.946	2307.552	2381.044
67.520	18.883	2299.354	2344.054
68.534	16.975	2291.210	2309.384
69.549	16.370	2286.812	2296.413
70.563	16.382	2283.866	2293.339
71.578	16.506	2282.719	2293.606
72.593	16.564	2280.876	2292.260
73.607	16.473	2281.013	2290.894
74.622	16.562	2277.916	2288.717
75.636	16.423	2275.899	2284.531
76.651	16.380	2272.672	2280.428
77.666	16.465	2269.427	2278.053
78.680	16.426	2267.465	2275.280
79.695	16.251	2265.389	2270.565
80.709	15.990	2264.819	2266.194
81.724	16.036	2262.556	2264.275
82.739	16.035	2260.330	2261.765
83.753	16.103	2257.654	2259.736
84.768	16.041	2256.064	2257.034
85.782	15.916	2255.568	2254.582
86.797	16.060	2252.493	2253.183
87.812	16.057	2251.267	2251.644
88.826	16.248	2249.397	2252.062
89.841	16.135	2247.670	2248.556
90.855	16.200	2244.352	2245.830
91.870	16.097	2244.127	2243.954
92.884	16.191	2242.157	2242.983
93.899	16.280	2240.912	2242.656
94.914	16.901	2243.971	2253.749
95.928	19.369	2250.156	2292.709
96.943	20.238	2248.040	2301.875
97.957	17.671	2238.703	2257.899
98.972	16.203	2232.604	2231.970
99.987	16.156	2229.364	2227.840
101.001	16.120	2226.494	2224.238
102.016	16.268	2224.480	2223.917
103.030	16.028	2221.980	2217.977
104.045	16.155	2218.912	2216.321
105.060	16.086	2217.879	2214.119
106.074	16.103	2216.271	2212.474
107.089	16.146	2214.852	2211.352
108.103	16.248	2212.857	2210.446
109.118	16.223	2212.541	2209.527
110.133	16.266	2210.379	2207.680
111.147	16.139	2208.160	2203.526
112.162	16.121	2206.796	2201.668
113.176	16.312	2204.792	2201.912
114.191	16.408	2203.767	2201.878
115.206	16.300	2201.987	2198.419
116.220	16.373	2199.574	2196.700
117.235	16.285	2197.541	2193.256
118.249	16.307	2196.248	2191.998
119.264	16.211	2195.293	2189.525
120.279	16.222	2192.678	2186.806
121.293	16.200	2191.589	2185.170
122.308	16.271	2189.489	2183.734
123.322	16.191	2188.412	2181.360
124.337	16.609	2190.444	2188.559
125.352	19.432	2196.381	2230.976
126.366	19.954	2194.259	2235.328
127.381	17.319	2184.469	2191.002
128.395	16.256	2178.932	2171.455
129.410	16.189	2176.516	2167.915
130.424	16.120	2174.844	2165.105
131.439	16.171	2172.778	2163.438
132.454	16.235	2171.884	2163.112
133.468	16.495	2170.061	2164.385
134.483	16.624	2168.695	2164.431
135.497	16.578	2167.208	2162.098
136.512	16.455	2164.823	2157.875
137.527	16.281	2163.719	2154.286
138.541	16.187	2161.842	2150.956
139.556	16.175	2160.728	2149.433
140.570	16.075	2159.642	2146.817
141.585	15.993	2157.611	2143.487
142.600	16.173	2154.422	2142.361
143.614	16.197	2153.221	2141.218
144.629	15.992	2151.353	2136.494
145.643	15.934	2151.357	2135.508
146.658	16.025	2149.187	2134.253
147.673	15.848	2146.946	2129.518
148.687	15.924	2145.745	2129.045
149.702	16.132	2145.279	2130.963
150.716	16.206	2143.504	2129.890
151.731	16.136	2141.881	2127.131
152.746	16.216	2142.250	2128.255
153.760	16.831	2145.470	2139.010
154.775	19.606	2151.599	2180.123
155.789	20.309	2149.276	2186.410
156.804	17.895	2139.121	2145.360
157.819	16.372	2131.147	2117.931
158.833	16.200	2128.289	2112.666
159.848	16.158	2127.419	2111.020
160.862	16.211	2125.764	2109.790
161.877	16.324	2124.896	2110.100
162.892	16.344	2124.767	2109.962
163.906	16.360	2123.108	2108.275
164.921	16.295	2120.582	2104.701
165.935	16.301	2118.729	2102.682
166.950	16.500	2117.403	2103.598
167.964	16.309	2115.048	2098.624
168.979	15.986	2113.363	2092.668
169.994	16.030	2110.478	2090.107
171.008	15.949	2108.983	2087.367
172.023	15.876	2108.334	2085.571
173.037	15.972	2107.090	2085.277
174.052	16.249	2104.091	2085.507
175.067	16.232	2102.931	2083.900
176.081	16.150	2101.858	2081.570
177.096	16.012	2102.070	2079.812
178.110	16.333	2099.061	2080.562
179.125	16.257	2098.115	2078.436
180.140	16.117	2097.349	2075.692
181.154	16.229	2095.512	2075.011
182.169	16.460	2095.027	2077.139
183.183	17.246	2097.177	2088.735
184.198	20.097	2104.734	2131.302
185.213	20.548	2101.435	2133.271
186.227	17.658	2092.050	2087.958
187.242	16.582	2087.503	2069.945
188.256	16.357	2085.542	2064.978
189.271	16.120	2084.032	2060.333
190.286	16.191	2081.683	2058.630
191.300	16.053	2080.186	2055.218
192.315	16.173	2078.481	2054.747
193.329	16.335	2077.570	2055.592
194.344	16.551	2076.453	2056.877
195.359	16.615	2075.653	2056.623
196.373	16.366	2072.683	2050.390
197.388	16.334	2069.402	2046.517
198.402	16.052	2068.278	2041.728
199.417	16.081	2065.713	2039.297
200.432	16.113	2064.491	2038.240
201.446	16.107	2063.852	2037.287
202.461	16.016	2062.227	2034.340
203.475	15.982	2061.013	2032.486
204.490	15.997	2057.751	2029.206
205.504	16.050	2056.746	2028.615
206.519	16.224	2054.326	2028.087
207.534	16.162	2052.389	2025.190
208.548	16.190	2051.522	2024.419
209.563	16.158	2051.062	2023.344
210.577	16.316	2049.301	2023.261
211.592	16.346	2048.734	2022.826
212.607	17.720	2053.034	2043.387
213.621	20.801	2061.190	2088.466
214.636	20.302	2053.960	2074.891
215.650	17.303	2044.376	2029.043
216.665	16.496	2040.295	2015.083
217.680	16.491	2038.396	2012.904
218.694	16.224	2037.422	2008.511
219.709	16.087	2035.937	2005.174
220.723	16.284	2034.712	2006.075
221.738	16.383	2032.273	2004.607
222.753	16.529	2030.830	2004.687
223.767	16.315	2029.746	2000.824
224.782	16.404	2027.142	1999.077
225.796	16.194	2026.263	1995.473
226.811	16.226	2025.623	1994.988
227.826	16.255	2023.595	1993.102
228.840	16.317	2021.483	1991.509
229.855	16.068	2021.246	1988.097
230.869	16.223	2019.248	1987.723
231.884	16.104	2017.204	1984.061
232.899	16.208	2016.100	1983.975
233.913	16.337	2014.704	1983.885
234.928	16.215	2013.499	1981.018
235.942	16.168	2011.019	1977.788
236.957	16.267	2009.837	1977.552
237.972	16.227	2008.683	1975.717
238.986	16.091	2008.102	1973.298
240.001	16.126	2005.402	1970.822
241.015	16.371	2005.405	1973.475
242.030	17.063	2007.648	1983.577
243.045	19.608	2013.046	2018.603
244.059	19.844	2010.313	2018.392
245.074	17.449	2000.926	1980.743
246.088	16.526	1996.638	1965.475
247.103	16.611	1995.706	1965.322
248.117	16.488	1994.248	1962.217
249.132	16.368	1991.697	1958.068
250.147	16.458	1989.490	1956.709
251.161	16.450	1988.600	1955.505
252.176	16.610	1987.623	1956.170
253.190	16.788	1985.680	1956.098
254.205	16.735	1984.074	1953.663
255.220	16.617	1982.925	1950.929
256.234	16.712	1981.775	1950.660
257.249	16.436	1980.568	1946.049
258.263	16.331	1978.731	1942.792
259.278	16.475	1978.072	1943.577
260.293	16.311	1975.510	1938.941
261.307	16.117	1973.011	1934.015
262.322	16.050	1971.645	1931.681
263.336	15.953	1969.877	1928.591
264.351	15.898	1968.392	1926.283
265.366	16.121	1965.797	1926.072
266.380	15.959	1966.696	1924.860
267.395	15.985	1965.566	1923.819
268.409	16.007	1963.624	1921.944
269.424	16.111	1962.185	1921.500
270.439	16.256	1960.357	1921.131
271.453	17.236	1963.214	1934.920
272.468	19.971	1969.579	1972.328
273.482	19.964	1965.655	1968.076
274.497	17.314	1955.914	1927.930
275.512	16.213	1951.778	1911.093
276.526	15.970	1949.965	1906.321
277.541	15.984	1948.188	1904.516
278.555	16.014	1945.680	1902.176
279.570	15.893	1944.641	1899.568
280.585	16.078	1942.756	1899.594
281.599	16.121	1941.785	1898.902
282.614	16.201	1941.223	1899.030
283.628	16.505	1940.799	1901.821
284.643	16.604	1940.339	1902.268
285.657	16.780	1938.986	1902.700
286.672	16.896	1937.483	1902.300
287.687	16.849	1936.071	1900.157
288.701	16.711	1934.151	1896.488
289.716	16.836	1932.066	1895.625
290.730	16.862	1931.330	1894.968
291.745	16.928	1929.803	1893.991
292.760	16.785	1928.954	1891.326
293.774	16.698	1928.319	1889.500
294.789	16.552	1927.101	1886.438
295.803	16.430	1924.135	1881.947
296.818	16.506	1922.112	1880.594
297.833	16.351	1921.876	1878.399
298.847	16.351	1920.429	1876.767
299.862	16.378	1918.589	1875.045
300.876	17.159	1920.747	1885.645
301.891	20.051	1926.923	1923.813
302.906	20.483	1923.437	1924.914
303.920	17.452	1915.085	1882.673
304.935	16.552	1911.732	1869.154
305.949	16.397	1909.253	1864.793
306.964	16.405	1908.011	1863.436
307.979	16.536	1906.572	1863.267
308.993	16.711	1906.216	1864.625
310.008	16.951	1903.989	1864.881
311.022	16.917	1902.153	1862.480
312.037	16.720	1900.382	1858.349
313.052	16.760	1898.392	1856.625
314.066	16.937	1896.771	1856.762
315.081	16.689	1897.521	1854.553
316.095	16.794	1895.689	1853.685
317.110	16.568	1893.553	1848.902
318.125	16.410	1891.828	1845.257
319.139	16.375	1891.375	1844.213
320.154	16.581	1889.341	1844.264
321.168	16.498	1887.768	1841.601
322.183	16.322	1885.614	1837.353
323.197	16.316	1884.274	1835.765
324.212	16.048	1882.101	1830.498
325.227	15.874	1880.120	1826.458
326.241	16.017	1878.528	1826.252
327.256	15.963	1877.588	1824.525
328.270	16.036	1876.635	1824.182
329.285	16.005	1876.365	1823.359
330.300	17.167	1879.811	1839.145
331.314	20.371	1886.338	1880.238
332.329	20.177	1880.732	1872.322
333.343	17.140	1872.157	1830.706
334.358	16.135	1868.562	1816.093
335.373	15.977	1866.750	1812.415
336.387	15.946	1864.735	1809.906
337.402	15.984	1863.062	1808.475
338.416	16.173	1862.498	1809.750
339.431	16.255	1860.921	1808.884
340.446	16.263	1859.244	1807.125
341.460	16.407	1858.573	1807.804
342.475	16.586	1857.399	1808.368
343.489	16.725	1856.719	1808.986
344.504	16.615	1855.459	1806.352
345.519	16.721	1853.818	1805.677
346.533	16.773	1853.578	1805.788
347.548	16.879	1851.370	1804.552
348.562	16.693	1850.191	1801.196
349.577	16.844	1849.223	1801.653
350.592	17.052	1847.602	1802.078
351.606	16.994	1847.308	1800.956
352.621	17.021	1845.183	1798.954
353.635	16.667	1844.113	1793.929
354.650	16.568	1841.413	1790.032
355.665	16.534	1839.583	1787.683
356.679	16.502	1837.621	1785.215
357.694	16.477	1836.194	1783.361
358.708	16.247	1836.082	1780.597
359.723	17.606	1840.393	1799.000
360.738	20.584	1844.473	1834.396
361.752	19.718	1839.219	1819.796
362.767	17.158	1832.258	1785.667
363.781	16.562	1828.828	1775.822
364.796	16.448	1826.963	1772.600
365.810	16.353	1826.247	1770.686
366.825	16.327	1825.457	1769.434
367.840	16.667	1825.032	1772.392
368.854	16.791	1823.162	1771.669
369.869	16.584	1821.025	1767.206
370.883	16.398	1819.625	1763.686
371.898	16.324	1818.037	1761.158
372.913	16.350	1816.887	1760.106
373.927	16.485	1815.676	1760.140
374.942	16.535	1815.228	1760.012
375.956	16.517	1813.825	1758.251
376.971	16.389	1812.282	1755.213
377.986	16.365	1809.853	1752.399
379.000	16.367	1808.143	1750.556
380.015	16.376	1806.623	1748.962
381.029	16.464	1803.994	1747.127
382.044	16.142	1802.988	1742.601
383.059	16.161	1801.342	1741.000
384.073	16.020	1800.170	1738.189
385.088	16.191	1798.994	1738.625
386.102	16.312	1797.004	1737.741
387.117	16.243	1795.551	1735.418
388.132	16.153	1796.467	1735.160
389.146	17.171	1800.653	1749.542
390.161	20.233	1805.801	1786.080
391.175	19.990	1798.569	1776.201
392.190	17.254	1788.727	1738.187
393.205	16.385	1786.256	1726.652
394.219	16.213	1784.958	1723.426
395.234	16.294	1783.443	1722.590
396.248	16.253	1782.049	1720.615
397.263	16.237	1779.372	1717.654
398.278	16.356	1778.054	1717.400
399.292	16.231	1777.478	1715.356
400.307	16.266	1777.160	1715.202
401.321	16.292	1776.060	1714.199
402.336	16.404	1774.243	1713.382
403.350	16.560	1772.210	1712.808
404.365	16.640	1771.353	1712.588
405.380	16.812	1770.959	1713.747
406.394	16.934	1770.742	1714.576
407.409	16.855	1768.842	1711.728
408.423	16.904	1767.541	1710.760
409.438	16.932	1765.788	1709.136
410.453	16.822	1764.826	1706.890
411.467	16.861	1764.603	1706.864
412.482	16.591	1763.253	1702.621
413.496	16.553	1760.788	1699.662
414.511	16.553	1758.436	1697.185
415.526	16.455	1756.512	1694.141
416.540	16.269	1755.524	1691.112
417.555	16.479	1753.822	1691.375
418.569	16.620	1754.388	1693.144
419.584	16.500	1754.921	1692.241
420.599	16.501	1754.075	1691.231
421.613	16.427	1752.444	1688.721
422.628	16.401	1751.117	1686.973
423.642	16.312	1749.009	1683.854
424.657	16.382	1747.582	1682.973
425.672	16.581	1745.978	1683.224
426.686	16.507	1744.657	1681.004
427.701	16.545	1743.292	1679.872
428.715	16.687	1742.059	1679.896
429.730	16.793	1740.721	1679.458
430.745	16.705	1740.486	1678.158
431.759	16.821	1739.215	1677.883
432.774	17.168	1739.945	1681.843
433.788	17.733	1738.934	1686.284
434.803	17.878	1739.507	1688.081
435.818	17.892	1738.542	1687.075
436.832	17.573	1738.429	1683.596
437.847	16.775	1731.265	1668.562
438.861	9.271	1710.998	1575.157
439.876	1.552	1696.733	1486.215
440.890	0.284	1693.641	1470.892
441.905	0.222	1692.455	1469.078
442.920	0.122	1692.342	1467.828
443.934	0.058	1690.571	1465.486
444.949	0.004	1688.936	1463.370
445.963	0.147	1687.715	1463.537
446.978	0.140	1686.818	1462.514
447.993	0.189	1685.333	1461.523
449.007	0.209	1683.112	1459.621
450.022	0.290	1680.853	1458.274
451.036	0.123	1680.617	1456.275
452.051	1.132	1684.016	1468.871
453.066	8.505	1700.594	1555.465
454.080	16.081	1712.034	1640.082
455.095	17.562	1714.081	1656.335
456.109	17.772	1714.198	1658.304
457.124	17.960	1712.963	1658.739
458.139	17.885	1712.801	1657.651
459.153	18.075	1711.285	1657.845
460.168	18.127	1709.508	1656.431
461.182	18.028	1707.707	1653.522
462.197	18.040	1706.270	1652.048
463.212	17.888	1704.778	1648.931
464.226	17.855	1703.754	1647.424
465.241	17.958	1702.618	1647.123
466.255	18.096	1701.683	1647.360
467.270	18.127	1699.631	1645.476
468.285	17.892	1699.454	1642.838
469.299	17.919	1696.361	1639.905
470.314	17.923	1695.661	1639.081
471.328	17.889	1695.108	1638.018
472.343	18.072	1693.360	1637.891
473.358	18.103	1692.173	1636.853
474.372	18.031	1691.350	1635.162
475.387	18.034	1689.570	1633.282
476.401	17.935	1688.101	1630.709
477.416	17.853	1687.163	1628.823
478.430	17.836	1686.487	1627.809
479.445	17.748	1685.117	1625.451
480.460	17.770	1683.296	1623.710
481.474	17.822	1682.430	1623.174
482.489	17.995	1681.490	1623.730
483.503	18.084	1679.497	1622.464
484.518	18.230	1677.697	1621.919
485.533	18.160	1676.233	1619.647
486.547	18.092	1675.570	1618.166
487.562	18.133	1674.808	1617.619
488.576	18.024	1673.396	1615.026
489.591	18.197	1672.174	1615.303
490.606	18.156	1670.717	1613.314
491.620	18.180	1668.719	1611.417
492.635	18.288	1667.669	1611.225
493.649	18.280	1666.482	1609.818
494.664	17.949	1665.108	1605.167
495.679	17.796	1663.866	1602.335
496.693	17.826	1662.753	1601.351
497.708	18.106	1661.438	1602.530
498.722	18.198	1660.556	1602.360
499.737	18.172	1658.918	1600.342
500.752	18.129	1657.080	1597.971
501.766	18.026	1655.572	1595.357
502.781	18.054	1654.015	1593.928
503.795	18.098	1652.236	1592.443
504.810	18.196	1651.245	1592.208
505.825	18.221	1651.246	1592.256
506.839	18.218	1650.227	1591.055
507.854	18.128	1649.023	1588.859
508.868	18.148	1647.694	1587.576
509.883	18.280	1646.693	1587.656
510.898	18.286	1645.284	1586.162
511.912	18.257	1643.140	1583.632
512.927	18.049	1641.939	1580.353
513.941	18.174	1640.289	1579.732
514.956	18.199	1638.481	1578.035
515.971	18.067	1637.554	1575.733
516.985	17.944	1637.624	1574.471
518.000	18.172	1636.290	1575.108
519.014	18.278	1635.670	1575.306
520.029	18.289	1634.569	1574.157
521.043	18.296	1632.655	1572.195
522.058	18.379	1631.352	1571.513
523.073	18.296	1630.832	1570.058
524.087	18.540	1629.976	1571.294
525.102	18.414	1628.290	1568.327
526.116	18.132	1626.906	1564.209
527.131	18.262	1625.322	1563.697
528.146	18.477	1625.052	1565.225
529.160	18.455	1623.868	1563.688
530.175	18.560	1622.936	1563.570
531.189	18.424	1621.961	1561.202
532.204	18.355	1620.751	1559.213
533.219	18.157	1619.454	1555.968
534.233	18.188	1618.159	1554.822
535.248	18.364	1617.478	1555.589
536.262	18.662	1616.430	1557.109
537.277	18.464	1615.121	1553.859
538.292	18.372	1613.101	1550.898
539.306	18.246	1611.434	1547.959
540.321	18.394	1609.567	1547.327
541.335	18.400	1608.335	1546.007
542.350	18.301	1607.264	1543.896
543.365	18.459	1606.078	1544.006
544.379	18.489	1605.317	1543.363
545.394	18.512	1603.725	1541.852
546.408	18.416	1601.750	1538.899
547.423	18.182	1600.559	1535.465
548.438	18.193	1598.980	1533.861
549.452	18.214	1599.000	1533.885
550.467	18.329	1597.936	1533.721
551.481	18.456	1596.830	1533.620
552.496	18.522	1595.441	1532.693
553.511	18.510	1595.557	1532.513
554.525	18.621	1593.361	1531.219
555.540	18.519	1593.815	1530.555
556.554	18.720	1592.280	1530.696
557.569	18.596	1590.194	1527.404
558.583	18.494	1588.317	1524.501
559.598	18.407	1587.688	1522.936
560.613	18.345	1586.602	1521.164
561.627	18.445	1585.547	1520.857
562.642	18.585	1583.662	1520.115
563.656	18.730	1582.794	1520.389
564.671	18.648	1581.620	1518.355
565.686	18.710	1580.563	1517.704
566.700	18.577	1578.428	1514.294
567.715	18.452	1577.241	1511.867
568.729	18.256	1576.058	1508.812
569.744	18.162	1573.986	1505.816
570.759	18.328	1572.753	1505.925
571.773	18.383	1572.410	1505.906
572.788	18.389	1571.460	1504.864
573.802	18.556	1569.571	1504.353
574.817	18.636	1568.672	1504.015
575.832	18.749	1567.703	1503.905
576.846	18.783	1566.337	1502.710
577.861	18.752	1564.832	1500.815
578.875	18.721	1564.291	1499.843
579.890	18.775	1563.403	1499.285
580.905	18.769	1562.647	1498.328
581.919	18.727	1562.219	1497.371
582.934	18.824	1561.521	1497.369
583.948	18.899	1559.806	1496.208
584.963	18.805	1558.477	1493.933
585.978	18.674	1556.995	1491.185
586.992	18.632	1556.482	1490.149
588.007	18.896	1556.137	1491.946
589.021	18.600	1554.226	1487.355
590.036	18.343	1552.541	1483.325
591.051	18.605	1550.762	1483.725
592.065	18.745	1549.996	1484.033
593.080	18.825	1548.430	1483.054
594.094	18.817	1546.536	1480.987
595.109	18.660	1544.164	1477.183
596.123	18.473	1543.381	1474.643
597.138	18.602	1542.735	1474.961
598.153	18.692	1542.293	1475.138
599.167	18.694	1540.687	1473.441
600.182	18.666	1539.901	1472.277
601.196	18.876	1539.146	1473.184
602.211	18.796	1537.604	1470.847
603.226	18.945	1536.611	1470.996
604.240	19.066	1535.526	1470.824
605.255	18.966	1534.143	1468.467
606.269	18.935	1532.957	1466.890
607.284	18.975	1532.088	1466.221
608.299	19.000	1530.818	1465.048
609.313	18.867	1529.332	1462.313
610.328	18.770	1528.445	1460.458
611.342	18.898	1526.476	1459.499
612.357	18.981	1526.024	1459.601
613.372	18.982	1525.336	1458.776
614.386	18.957	1523.675	1456.800
615.401	18.960	1523.837	1456.801
616.415	18.951	1523.306	1456.042
617.430	18.957	1521.856	1454.535
618.445	18.992	1520.820	1453.672
619.459	19.002	1519.221	1452.054
620.474	18.650	1518.164	1447.879
621.488	18.484	1515.955	1444.200
622.503	18.379	1514.607	1441.847
623.518	18.578	1514.868	1443.608
624.532	18.808	1513.843	1444.407
625.547	18.972	1512.796	1444.619
626.561	19.099	1511.942	1444.702
627.576	19.164	1510.530	1443.723
628.591	18.939	1508.701	1439.910
629.605	18.600	1507.500	1435.741
630.620	18.575	1506.055	1433.979
631.634	18.375	1504.820	1430.953
632.649	18.578	1503.315	1431.056
633.663	18.573	1503.043	1430.589
634.678	18.903	1502.554	1432.712
635.693	19.170	1500.845	1433.144
636.707	19.133	1499.310	1431.198
637.722	19.231	1498.470	1431.048
638.736	19.285	1497.572	1430.465
639.751	19.279	1496.236	1428.973
640.766	19.294	1495.098	1427.840
641.780	19.303	1493.794	1426.496
642.795	19.144	1493.014	1424.258
643.809	19.281	1491.933	1424.194
644.824	19.267	1491.083	1423.097
645.839	19.302	1489.640	1421.841
646.853	19.274	1489.001	1420.827
647.868	19.126	1487.948	1418.427
648.882	19.223	1486.128	1417.323
649.897	19.141	1484.877	1415.280
650.912	19.183	1483.134	1413.796
651.926	19.121	1482.235	1412.263
652.941	18.836	1481.108	1408.666
653.955	18.828	1478.701	1406.144
654.970	18.515	1477.872	1402.614
655.985	18.686	1476.015	1402.088
656.999	18.684	1475.623	1401.530
658.014	18.855	1475.005	1402.179
659.028	19.015	1473.356	1401.753
660.043	19.050	1473.231	1401.756
661.058	19.017	1471.826	1399.979
662.072	19.141	1470.879	1399.926
663.087	19.159	1470.100	1399.169
664.101	19.049	1468.802	1396.868
665.116	19.066	1468.175	1396.243
666.131	19.275	1466.868	1396.534
667.145	19.252	1465.642	1395.008
668.160	19.354	1464.433	1394.521
669.174	19.494	1462.921	1394.055
670.189	19.411	1461.859	1392.201
671.204	19.237	1461.981	1390.736
672.218	19.167	1460.783	1388.866
673.233	19.451	1459.207	1389.499
674.247	19.540	1458.192	1389.087
675.262	19.451	1456.717	1386.798
676.276	19.383	1456.008	1385.402
677.291	19.451	1454.895	1384.731
678.306	19.352	1453.609	1382.540
679.320	19.381	1451.663	1380.756
680.335	19.393	1452.243	1381.242
681.349	19.487	1451.848	1381.458
682.364	19.447	1449.781	1379.008
683.379	19.383	1448.719	1377.312
684.393	19.232	1447.427	1374.708
685.408	19.398	1446.604	1375.092
686.422	19.364	1446.129	1374.207
687.437	19.291	1445.882	1373.223
688.452	19.389	1444.835	1372.851
689.466	19.449	1442.205	1370.660
690.481	19.310	1440.956	1368.200
691.495	19.022	1440.408	1365.222
692.510	18.768	1438.450	1361.180
693.525	18.541	1436.266	1357.146
694.539	18.702	1436.033	1358.041
695.554	19.132	1435.869	1361.142
696.568	19.330	1435.774	1362.460
697.583	19.544	1434.799	1363.074
698.598	19.458	1434.275	1361.729
699.612	19.496	1433.056	1360.711
700.627	19.537	1431.524	1359.415
701.641	19.499	1429.738	1357.259
702.656	19.619	1428.768	1357.123
703.671	19.552	1429.329	1356.961
704.685	19.581	1428.068	1355.830
705.700	19.539	1426.658	1354.004
706.714	19.433	1424.877	1351.312
707.729	19.442	1422.748	1349.203
708.744	19.258	1422.010	1346.894
709.758	19.242	1421.191	1345.832
710.773	19.102	1419.766	1343.225
711.787	19.053	1418.036	1341.045
712.802	19.101	1417.205	1340.472
713.816	19.261	1416.311	1340.717
714.831	19.419	1415.533	1341.058
715.846	19.553	1414.270	1340.748
716.860	19.599	1412.652	1339.408
717.875	19.665	1411.990	1339.139
718.889	19.449	1411.266	1336.608
719.904	19.641	1410.213	1336.941
720.919	19.723	1409.171	1336.436
721.933	19.783	1408.780	1336.371
722.948	19.641	1408.103	1334.464
723.962	19.657	1406.236	1332.659
724.977	19.788	1405.106	1332.444
725.992	19.741	1403.988	1330.862
727.006	19.673	1402.756	1329.010
728.021	19.738	1401.642	1328.298
729.035	19.709	1400.463	1326.795
730.050	19.798	1399.733	1326.627
731.065	19.640	1398.407	1323.996
732.079	19.720	1397.360	1323.467
733.094	19.632	1396.993	1322.278
734.108	19.710	1394.427	1320.296
735.123	19.681	1393.433	1318.972
736.138	19.646	1392.721	1317.868
737.152	19.567	1391.870	1316.302
738.167	19.869	1390.704	1317.358
739.181	19.759	1390.088	1315.773
740.196	19.878	1389.015	1315.511
741.211	19.845	1387.816	1313.961
742.225	19.771	1387.205	1312.665
743.240	19.779	1385.621	1311.068
744.254	19.756	1383.953	1309.156
745.269	19.831	1383.362	1309.013
746.284	19.690	1382.825	1307.277
747.298	19.459	1382.472	1305.030
748.313	19.269	1380.516	1301.584
749.327	18.990	1379.124	1298.002
750.342	18.704	1377.314	1293.976
751.356	18.712	1376.112	1292.752
752.371	18.923	1375.377	1293.500
753.386	19.407	1375.316	1296.949
754.400	19.678	1374.744	1298.299
755.415	19.867	1373.715	1298.597
756.429	19.762	1372.781	1296.767
757.444	19.762	1370.821	1294.765
758.459	19.931	1370.017	1295.118
759.473	20.069	1368.754	1294.809
760.488	20.018	1368.023	1293.577
761.502	20.042	1367.247	1292.865
762.517	19.854	1366.366	1290.468
763.532	19.772	1364.519	1287.959
764.546	19.606	1363.405	1285.508
765.561	19.275	1362.925	1282.427
766.575	19.164	1360.934	1279.575
767.590	19.225	1359.041	1278.093
768.605	19.392	1358.756	1278.923
769.619	19.577	1357.679	1279.129
770.634	19.764	1356.957	1279.685
771.648	19.838	1356.557	1279.707
772.663	19.908	1356.025	1279.576
773.678	19.918	1355.104	1278.628
774.692	19.949	1354.268	1277.916
775.707	19.950	1353.921	1277.437
776.721	20.065	1352.480	1276.776
777.736	20.061	1352.108	1276.247
778.751	20.011	1350.544	1274.248
779.765	20.013	1349.982	1273.577
780.780	19.888	1349.177	1271.745
781.794	19.955	1347.451	1270.462
782.809	19.877	1346.500	1268.834
783.824	19.819	1345.522	1267.333
784.838	19.592	1343.231	1263.358
785.853	19.150	1342.048	1258.845
786.867	19.110	1342.349	1258.679
787.882	19.349	1341.329	1259.333
788.897	19.541	1340.976	1260.257
789.911	19.645	1340.529	1260.446
790.926	19.751	1339.189	1259.811
791.940	19.844	1337.930	1259.157
792.955	19.878	1336.225	1257.650
793.969	19.775	1335.481	1256.053
794.984	19.906	1334.957	1256.362
795.999	19.829	1334.185	1254.926
797.013	19.982	1331.649	1253.503
798.028	19.912	1330.506	1251.768
799.042	19.955	1330.142	1251.591
800.057	20.168	1329.230	1252.123
801.072	20.107	1327.788	1250.177
802.086	20.042	1326.380	1248.231
803.101	20.155	1325.400	1247.973
804.115	20.215	1324.707	1247.608
805.130	20.090	1323.196	1245.134
806.145	20.171	1322.266	1244.694
807.159	20.055	1320.645	1242.179
808.174	19.977	1318.836	1239.769
809.188	19.880	1317.544	1237.707
810.203	19.826	1316.468	1236.165
811.218	19.574	1314.879	1232.712
812.232	19.622	1312.589	1230.761
813.247	19.460	1311.990	1228.896
814.261	19.638	1312.527	1230.529
815.276	19.910	1311.546	1231.404
816.291	19.929	1311.109	1230.984
817.305	20.045	1310.492	1231.085
818.320	19.992	1309.348	1229.482
819.334	19.921	1308.254	1227.803
820.349	20.121	1306.616	1227.547
821.364	20.054	1304.473	1224.905
822.378	20.217	1303.926	1225.402
823.393	20.122	1302.102	1222.873
824.407	20.077	1301.071	1221.437
825.422	19.983	1301.199	1220.745
826.437	19.961	1299.706	1219.041
827.451	19.969	1297.208	1216.610
828.466	19.454	1295.909	1211.610
829.480	19.425	1293.492	1209.001
830.495	19.381	1292.345	1207.477
831.509	19.674	1292.247	1209.301
832.524	19.770	1291.806	1209.423
833.539	19.924	1290.970	1209.573
834.553	20.077	1289.817	1209.425
835.568	20.042	1288.967	1208.232
836.582	20.254	1287.098	1207.825
837.597	20.481	1285.155	1207.439
838.612	20.258	1284.074	1204.726
839.626	20.053	1282.810	1201.961
840.641	19.959	1281.904	1200.319
841.655	19.579	1281.934	1197.552
842.670	19.427	1280.107	1194.646
843.685	19.178	1278.874	1191.620
844.699	19.586	1277.894	1193.398
845.714	19.829	1277.119	1194.218
846.728	19.875	1276.877	1194.164
847.743	20.146	1275.344	1194.471
848.758	20.342	1274.501	1194.892
849.772	20.039	1273.409	1191.631
850.787	20.245	1271.907	1191.503
851.801	20.226	1270.955	1190.340
852.816	20.038	1269.828	1187.844
853.831	20.036	1267.899	1185.884
854.845	20.018	1265.826	1183.679
855.860	19.862	1264.758	1181.467
856.874	19.910	1263.204	1180.206
857.889	19.715	1261.784	1177.401
858.904	19.467	1259.578	1173.509
859.918	19.283	1257.625	1170.294
860.933	19.226	1256.751	1168.948
861.947	19.390	1256.641	1169.825
862.962	19.686	1255.607	1170.737
863.977	19.654	1254.957	1169.777
864.991	19.791	1255.008	1170.614
866.006	19.787	1254.173	1169.668
867.020	20.066	1253.153	1170.470
868.035	20.020	1252.535	1169.442
869.049	20.202	1251.345	1169.429
870.064	20.312	1249.859	1168.642
871.079	20.143	1249.349	1166.880
872.093	20.195	1249.164	1166.922
873.108	20.064	1247.864	1164.680
874.122	19.834	1246.063	1161.309
875.137	19.826	1244.727	1159.875
876.152	19.782	1243.750	1158.524
877.166	19.869	1242.366	1157.684
878.181	19.969	1241.713	1157.607
879.195	19.980	1241.834	1157.659
880.210	20.274	1240.378	1158.133
881.225	20.358	1239.393	1157.641
882.239	20.119	1239.108	1155.630
883.254	20.249	1237.836	1155.177
884.268	20.131	1237.341	1153.787
885.283	20.284	1235.604	1153.053
886.298	20.267	1234.183	1151.474
887.312	20.246	1233.190	1150.271
888.327	20.446	1232.344	1150.679
889.341	20.181	1231.402	1147.896
890.356	20.002	1230.353	1145.592
891.371	20.159	1229.878	1146.051
892.385	19.981	1229.030	1143.947
893.400	20.003	1228.052	1143.040
894.414	19.950	1226.026	1140.671
895.429	19.743	1224.841	1138.063
896.444	19.206	1222.569	1132.268
897.458	19.062	1221.075	1129.801
898.473	19.428	1220.135	1131.207
899.487	19.689	1220.543	1133.167
900.502	19.867	1219.954	1133.656
901.517	20.258	1218.304	1134.562
902.531	20.231	1217.971	1133.936
903.546	20.221	1217.680	1133.466
904.560	20.342	1216.494	1133.018
905.575	20.336	1216.128	1132.501
906.589	20.335	1215.105	1131.410
907.604	20.319	1214.377	1130.490
