DTS Sentinel unit serial number:	SN409020Multiplexer serial number:	ORYXHardware model number:	OX4-SRSoftware version number:	ORYX F/W v3.00 Oryx Data Collector v3.7.2.0data status	okinstallation	HaddamTimeLapsedifferential loss correction	single-endedforward channel	channel 3reverse channel	N/Adate	2011/06/21time	19:26:17forward acquisition time	30.00reverse acquisition time	0.00gamma	498.7831k internal	0.1797k external	0.1797temperature offset calibration	1.0074default loss term (dB/km)	0.3790temperature slope calibration	1.3530multiplexer offset coefficient	1.0000multiplexer slope coefficient	1.0000fibre end	0.00T internal ref (°C)	33.94T ext. ref 1 (°C)	26.34T ext. ref 2 (°C)	0.23length (m)	temperature (°C)	Stokes	anti-Stokes-747.200	-153.022	-0.230	-0.021
-746.185	-4.359	-0.357	0.319
-745.171	-88.393	-0.281	0.108
-744.156	178.013	0.315	0.596
-743.142	800.000	-0.050	0.235
-742.127	117.502	-0.081	0.130
-741.112	48.008	-0.410	-0.496
-740.098	-60.606	0.407	-0.223
-739.083	-200.000	-0.035	-0.573
-738.069	800.000	-0.038	0.201
-737.054	285.679	-0.178	0.417
-736.039	222.525	-0.091	-0.190
-735.025	-177.647	-0.357	-0.011
-734.010	-54.828	0.354	-0.206
-732.996	133.386	-0.405	0.680
-731.981	800.000	-0.170	-0.693
-730.966	800.000	0.053	0.218
-729.952	-74.051	0.553	0.258
-728.937	-132.967	-0.256	0.042
-727.923	-200.000	-0.082	-0.705
-726.908	-200.000	-0.049	-0.484
-725.894	-200.000	-0.026	0.510
-724.879	-110.575	0.471	0.125
-723.864	-200.000	0.020	-0.397
-722.850	-29.394	0.313	-0.231
-721.835	88.847	-0.412	-0.594
-720.821	234.849	0.156	-0.335
-719.806	-5.516	-0.353	-0.313
-718.791	21.605	0.425	-0.447
-717.777	-48.834	0.712	-0.440
-716.762	125.930	0.151	-0.248
-715.748	-42.119	-0.160	0.105
-714.733	25.167	0.139	0.150
-713.718	63.740	-0.269	-0.350
-712.704	107.948	-0.225	0.348
-711.689	-75.617	0.244	0.112
-710.675	-116.283	0.208	0.049
-709.660	-118.612	0.456	-0.103
-708.645	-90.271	-0.364	-0.136
-707.631	800.000	0.006	0.027
-706.616	-8.554	-0.226	0.196
-705.602	261.482	-0.236	-0.530
-704.587	165.088	0.047	0.086
-703.572	4.023	0.231	0.218
-702.558	4.826	-0.281	-0.267
-701.543	308.876	0.122	-0.295
-700.529	-96.993	-0.162	-0.055
-699.514	800.000	0.120	0.516
-698.499	562.110	-0.024	0.076
-697.485	-40.540	0.196	-0.131
-696.470	-200.000	0.028	-0.375
-695.456	239.100	0.075	-0.161
-694.441	-69.189	0.466	0.230
-693.426	28.696	0.439	-0.481
-692.412	410.327	-0.165	-0.454
-691.397	43.654	-0.436	-0.515
-690.383	-16.843	-0.476	-0.388
-689.368	800.000	0.088	-0.349
-688.354	-38.739	0.269	-0.183
-687.339	-63.386	-0.591	0.313
-686.324	-200.000	0.031	0.577
-685.310	384.155	-0.117	0.313
-684.295	-183.250	-0.327	0.007
-683.281	-52.899	-0.560	-0.332
-682.266	-6.274	0.135	-0.119
-681.251	-164.442	0.351	-0.020
-680.237	800.000	-0.042	-0.153
-679.222	-200.000	0.016	-0.170
-678.208	-146.134	-0.214	0.024
-677.193	-40.535	-0.463	-0.310
-676.178	-4.902	0.238	0.212
-675.164	-111.740	0.213	0.055
-674.149	-200.000	0.009	0.386
-673.135	119.050	0.192	-0.307
-672.120	-38.869	0.095	0.064
-671.105	214.893	-0.091	-0.186
-670.091	-98.728	-0.256	-0.084
-669.076	-33.664	-0.115	-0.082
-668.062	-141.776	-0.181	-0.023
-667.047	-58.982	0.265	0.147
-666.032	201.910	0.043	-0.086
-665.018	-89.453	-0.755	0.285
-664.003	-32.107	0.138	0.100
-662.989	-75.597	0.217	-0.099
-661.974	33.023	0.522	0.584
-660.959	24.808	0.403	0.431
-659.945	-103.241	-0.173	-0.053
-658.930	-200.000	-0.347	0.001
-657.916	9.961	-0.189	0.185
-656.901	-24.285	0.112	0.086
-655.886	800.000	0.141	-0.607
-654.872	41.171	-0.345	-0.402
-653.857	-51.979	0.068	-0.041
-652.843	-19.394	0.212	0.169
-651.828	-23.148	0.101	0.078
-650.814	312.582	-0.110	0.267
-649.799	65.939	-0.040	-0.053
-648.784	-130.267	0.247	-0.043
-647.770	-68.885	-0.423	-0.210
-646.755	-160.175	-0.257	-0.018
-645.741	-165.814	-0.082	0.004
-644.726	-87.520	-0.265	-0.103
-643.711	-195.828	-0.259	0.002
-642.697	-20.560	-0.069	0.054
-641.682	800.000	0.045	-0.168
-640.668	23.370	0.186	0.197
-639.653	88.215	-0.368	0.528
-638.638	234.815	-0.119	-0.254
-637.624	8.594	0.043	0.042
-636.609	-95.079	-0.412	0.143
-635.595	490.237	0.053	0.158
-634.580	-59.562	0.378	0.208
-633.565	212.793	-0.085	0.173
-632.551	-63.683	-0.271	-0.143
-631.536	114.986	-0.030	-0.047
-630.522	-85.619	0.383	-0.153
-629.507	-31.494	0.182	-0.132
-628.492	104.838	-0.090	-0.136
-627.478	151.064	-0.085	-0.149
-626.463	-144.491	0.368	-0.043
-625.449	-91.114	0.457	0.168
-624.434	216.322	-0.256	0.526
-623.419	161.852	0.251	0.453
-622.405	-12.859	0.457	0.383
-621.390	575.571	0.082	0.259
-620.376	-44.878	-0.028	0.018
-619.361	27.700	-0.154	0.167
-618.346	-162.409	-0.508	0.032
-617.332	-124.185	-0.076	-0.015
-616.317	24.364	0.256	-0.272
-615.303	189.470	0.096	-0.186
-614.288	94.370	0.197	-0.288
-613.273	-62.875	-0.134	0.071
-612.259	600.990	0.093	0.300
-611.244	-12.181	0.139	0.117
-610.230	-10.050	-0.155	0.132
-609.215	385.795	0.115	0.307
-608.201	18.425	-0.200	0.206
-607.186	-61.521	-0.047	0.025
-606.171	-39.570	-0.352	0.237
-605.157	35.081	-0.207	-0.233
-604.142	-164.721	-0.437	-0.025
-603.128	-200.000	0.004	0.072
-602.113	-121.961	0.416	-0.087
-601.098	800.000	-0.065	0.339
-600.084	-70.714	0.560	-0.271
-599.069	93.416	0.061	-0.088
-598.055	-10.818	0.123	-0.105
-597.040	46.675	-0.243	-0.291
-596.025	128.416	-0.530	0.871
-595.011	-31.765	0.314	0.226
-593.996	-200.000	0.013	0.254
-592.982	273.004	0.088	0.202
-591.967	-96.343	-0.255	0.086
-590.952	-37.178	-0.126	0.087
-589.938	-2.280	-0.163	-0.147
-588.923	-70.154	-0.273	-0.133
-587.909	-13.275	-0.222	-0.185
-586.894	474.675	-0.109	0.317
-585.879	-200.000	0.043	0.252
-584.865	-117.393	-0.233	0.054
-583.850	-200.000	-0.039	0.564
-582.836	246.489	-0.206	-0.449
-581.821	90.168	-0.166	0.240
-580.806	151.410	-0.289	0.508
-579.792	800.000	-0.073	-0.277
-578.777	-102.972	0.302	0.091
-577.763	-63.277	-0.083	0.044
-576.748	-22.485	-0.238	-0.185
-575.733	800.000	0.091	0.333
-574.719	-24.039	0.456	-0.350
-573.704	368.317	0.040	0.105
-572.690	-146.708	0.154	0.017
-571.675	-149.196	0.336	0.034
-570.661	683.658	-0.107	-0.362
-569.646	128.796	0.132	-0.217
-568.631	-141.878	-0.347	0.044
-567.617	-64.422	-0.048	0.025
-566.602	-107.923	-0.302	-0.084
-565.588	-164.550	-0.574	0.033
-564.573	-86.449	0.238	0.093
-563.558	295.843	0.139	-0.328
-562.544	-200.000	0.020	-0.622
-561.529	660.099	0.058	0.193
-560.515	153.098	-0.059	-0.104
-559.500	-117.662	-0.235	0.054
-558.485	-200.000	0.017	-0.614
-557.471	-50.818	0.330	0.199
-556.456	162.976	-0.095	-0.173
-555.442	117.318	0.111	-0.175
-554.427	-57.759	-0.361	-0.202
-553.412	-35.756	0.324	0.225
-552.398	-63.118	-0.520	0.275
-551.383	-200.000	-0.001	0.017
-550.369	800.000	-0.097	-0.443
-549.354	160.887	-0.066	0.118
-548.339	-21.002	0.219	-0.172
-547.325	-57.732	0.249	0.139
-546.310	-154.902	0.262	-0.022
-545.296	-119.031	-0.147	0.033
-544.281	-154.348	0.716	-0.061
-543.266	-125.007	0.379	-0.074
-542.252	110.465	0.159	-0.246
-541.237	-133.473	-0.103	0.016
-540.223	377.746	0.124	0.328
-539.208	-200.000	-0.049	0.868
-538.193	-40.884	0.214	0.142
-537.179	-51.179	-0.320	-0.192
-536.164	-105.240	-0.246	-0.071
-535.150	-200.000	0.017	-0.270
-534.135	-85.830	0.492	-0.195
-533.121	-200.000	0.034	0.346
-532.106	-101.686	-0.194	0.060
-531.091	-200.000	0.024	-0.263
-530.077	4.342	-0.061	-0.057
-529.062	25.951	-0.175	0.187
-528.048	800.000	0.087	-0.344
-527.033	377.736	0.036	-0.096
-526.018	8.935	0.199	0.193
-525.004	157.090	0.143	0.255
-523.989	-51.489	-0.198	-0.118
-522.975	120.659	0.182	0.291
-521.960	-200.000	-0.055	-0.377
-520.945	1.515	-0.260	-0.240
-519.931	-44.066	0.265	-0.170
-518.916	-61.753	0.281	-0.151
-517.902	-186.735	-0.530	-0.009
-516.887	115.254	0.150	-0.236
-515.872	800.000	-0.043	0.163
-514.858	-200.000	0.080	-0.544
-513.843	-200.000	0.043	-0.445
-512.829	-112.163	0.455	0.116
-511.814	-115.583	0.271	0.065
-510.799	57.753	0.084	0.105
-509.785	-89.921	0.156	-0.058
-508.770	2.367	-0.306	-0.284
-507.756	396.624	-0.282	-0.758
-506.741	800.000	-0.034	-0.137
-505.726	26.441	0.208	0.223
-504.712	358.770	-0.060	0.155
-503.697	-64.723	0.430	0.223
-502.683	-10.053	0.332	-0.282
-501.668	272.043	0.126	-0.285
-500.653	-145.289	-0.305	0.035
-499.639	74.161	0.228	0.307
-498.624	96.938	-0.164	0.242
-497.610	-27.162	0.201	0.150
-496.595	765.597	-0.056	0.198
-495.581	-144.025	-0.218	-0.026
-494.566	-200.000	0.013	0.282
-493.551	247.362	0.114	0.247
-492.537	241.724	0.079	0.170
-491.522	-117.018	0.234	0.054
-490.508	-197.896	0.361	0.003
-489.493	-98.770	-0.185	0.060
-488.478	-195.741	0.264	0.002
-487.464	-200.000	-0.003	0.212
-486.449	291.966	-0.120	0.281
-485.435	-200.000	0.095	0.561
-484.420	-200.000	-0.042	0.468
-483.405	50.437	-0.206	0.249
-482.391	-25.741	0.069	0.052
-481.376	571.600	-0.078	-0.243
-480.362	57.909	0.165	-0.207
-479.347	-1.484	0.220	0.198
-478.332	371.316	-0.012	-0.032
-477.318	-80.200	-0.108	0.046
-476.303	139.344	-0.118	-0.199
-475.289	-200.000	-0.204	0.001
-474.274	-200.000	0.007	-0.211
-473.259	-16.102	-0.231	0.188
-472.245	-164.459	0.368	-0.021
-471.230	154.415	0.138	-0.244
-470.216	740.244	0.131	0.452
-469.201	31.259	0.631	0.694
-468.186	584.200	0.107	0.338
-467.172	-75.024	0.237	-0.108
-466.157	-159.270	0.306	-0.022
-465.143	9.797	0.360	0.349
-464.128	125.118	0.167	-0.271
-463.113	-19.815	-0.323	0.255
-462.099	42.468	0.119	0.139
-461.084	-71.475	0.270	-0.129
-460.070	8.340	-0.199	-0.191
-459.055	-102.430	0.320	0.098
-458.040	-74.472	0.212	0.098
-457.026	-127.953	-0.438	0.080
-456.011	-3.671	0.319	-0.283
-454.997	590.190	-0.033	0.105
-453.982	-92.452	0.334	-0.120
-452.968	380.010	0.130	0.344
-451.953	65.591	0.102	-0.133
-450.938	-200.000	-0.004	-0.254
-449.924	-98.484	0.109	0.035
-448.909	150.184	0.223	0.388
-447.895	30.234	-0.493	0.538
-446.880	-112.107	-0.141	0.036
-445.865	59.188	0.153	0.193
-444.851	-200.000	-0.023	-0.643
-443.836	10.052	-0.377	-0.366
-442.822	408.565	0.134	-0.363
-441.807	-51.292	-0.207	0.123
-440.792	-107.376	-0.262	0.073
-439.778	800.000	0.073	-0.355
-438.763	-12.113	0.207	-0.173
-437.749	800.000	0.055	0.246
-436.734	605.608	0.054	-0.173
-435.719	-85.337	-0.330	-0.131
-434.705	800.000	-0.062	0.318
-433.690	3.853	0.240	-0.224
-432.676	28.856	-0.140	0.152
-431.661	177.417	-0.109	0.203
-430.646	-32.018	0.153	-0.110
-429.632	59.702	0.102	0.128
-428.617	-67.755	-0.159	-0.079
-427.603	71.419	0.208	0.276
-426.588	-86.946	0.449	0.174
-425.573	-136.529	0.029	0.004
-424.559	43.339	-0.075	-0.088
-423.544	-200.000	-0.007	-0.386
-422.530	65.996	-0.223	-0.290
-421.515	-143.165	-0.362	-0.044
-420.500	-65.822	-0.786	-0.400
-419.486	-34.586	0.243	-0.170
-418.471	-75.741	-0.189	-0.085
-417.457	33.445	-0.303	-0.337
-416.442	-127.991	-0.238	0.043
-415.428	-20.692	0.293	-0.229
-414.413	91.595	0.145	-0.209
-413.398	-139.669	-0.753	0.101
-412.384	286.400	-0.162	-0.374
-411.369	-3.675	0.294	-0.261
-410.355	-12.093	-0.069	-0.058
-409.340	-58.203	0.406	-0.225
-408.325	661.848	0.110	-0.364
-407.311	-68.091	-0.489	-0.242
-406.296	-80.558	-0.399	-0.169
-405.282	-200.000	0.005	0.046
-404.267	-123.402	0.207	0.042
-403.252	-200.000	-0.054	-0.443
-402.238	-53.948	0.439	-0.255
-401.223	592.546	-0.038	0.122
-400.209	268.152	-0.170	-0.381
-399.194	84.055	-0.185	-0.258
-398.179	611.192	-0.076	0.243
-397.165	-97.800	0.702	0.230
-396.150	-13.619	-0.056	0.046
-395.136	-100.539	-0.057	0.018
-394.121	-200.000	-0.028	0.726
-393.106	800.000	-0.069	0.383
-392.092	-14.638	-0.333	0.273
-391.077	-76.348	-0.280	-0.125
-390.063	57.281	0.125	0.156
-389.048	118.699	-0.291	-0.459
-388.033	42.542	-0.253	-0.294
-387.019	-99.049	0.378	-0.121
-386.004	-200.000	-0.025	0.294
-384.990	-81.776	0.420	-0.175
-383.975	-60.275	0.252	-0.137
-382.960	291.529	0.091	0.213
-381.946	-162.338	-0.276	-0.017
-380.931	179.588	0.312	-0.584
-379.917	379.325	0.237	-0.622
-378.902	44.180	-0.325	0.381
-377.888	-23.348	-0.290	0.222
-376.873	-141.004	-0.251	-0.033
-375.858	-22.858	-0.160	0.123
-374.844	-24.207	0.123	0.093
-373.829	-35.419	0.307	-0.213
-372.815	24.357	0.185	0.195
-371.800	98.600	0.177	0.261
-370.785	703.779	0.087	-0.293
-369.771	110.979	-0.207	-0.319
-368.756	-81.340	-0.090	0.038
-367.742	-56.821	-0.081	-0.045
-366.727	-132.736	0.256	0.041
-365.712	-99.069	-0.367	-0.118
-364.698	38.301	0.097	0.110
-363.683	-31.670	-0.525	-0.375
-362.669	5.235	-0.196	-0.184
-361.654	-136.362	0.334	-0.049
-360.639	-117.402	0.360	0.083
-359.625	-25.395	-0.257	0.193
-358.610	-70.647	-0.319	-0.153
-357.596	-175.255	-0.152	-0.005
-356.581	-40.949	-0.357	-0.234
-355.566	-9.685	0.304	0.258
-354.552	-13.562	0.018	-0.015
-353.537	199.147	0.138	0.269
-352.523	-129.446	0.341	0.060
-351.508	-27.148	0.528	-0.392
-350.493	-34.255	0.197	-0.137
-349.479	-104.196	0.447	-0.131
-348.464	545.415	0.188	0.577
-347.450	31.651	-0.304	0.333
-346.435	-91.220	-0.346	0.126
-345.420	-81.800	-0.212	-0.088
-344.406	-96.784	-0.393	0.131
-343.391	620.883	-0.027	0.086
-342.377	-94.541	-0.311	-0.107
-341.362	-35.613	0.261	0.180
-340.348	109.038	0.273	0.417
-339.333	-1.455	-0.315	0.283
-338.318	37.257	0.274	-0.309
-337.304	-119.368	-0.226	0.050
-336.289	102.301	0.091	-0.135
-335.275	541.271	0.058	0.178
-334.260	-200.000	0.009	0.565
-333.245	-200.000	0.011	-0.208
-332.231	481.259	-0.044	0.127
-331.216	-200.000	0.094	-0.534
-330.202	-58.486	0.362	-0.199
-329.187	-64.920	0.131	-0.067
-328.172	-3.273	-0.207	-0.183
-327.158	37.429	-0.385	0.435
-326.143	-150.247	-0.262	-0.025
-325.129	800.000	0.132	-0.624
-324.114	-0.094	-0.184	-0.166
-323.099	-136.847	0.291	0.042
-322.085	-49.971	-0.200	0.120
-321.070	130.763	0.414	0.678
-320.056	800.000	-0.097	-0.404
-319.041	26.992	-0.342	-0.365
-318.026	-166.913	0.226	0.012
-317.012	-200.000	0.008	-0.144
-315.997	77.599	-0.052	0.070
-314.983	-91.180	-0.417	0.151
-313.968	228.136	-0.173	0.360
-312.953	-61.516	-0.627	-0.334
-311.939	-125.327	-0.101	0.020
-310.924	27.646	0.120	-0.128
-309.910	-200.000	0.018	-0.212
-308.895	58.695	0.174	-0.218
-307.880	-0.751	-0.375	-0.338
-306.866	-100.393	0.423	0.133
-305.851	-123.991	-0.171	-0.034
-304.837	8.843	0.156	0.149
-303.822	-200.000	0.006	0.358
-302.807	-39.915	-0.114	0.075
-301.793	754.968	0.082	-0.284
-300.778	-5.315	0.512	0.447
-299.764	-200.000	0.021	-0.172
-298.749	117.189	-0.046	-0.073
-297.735	15.085	0.121	0.121
-296.720	-21.948	0.490	-0.378
-295.705	-200.000	-0.072	-0.454
-294.691	88.983	0.156	-0.221
-293.676	-200.000	0.020	0.148
-292.662	133.285	0.238	0.392
-291.647	800.000	-0.139	0.623
-290.632	-59.711	-0.272	0.148
-289.618	-56.425	0.171	-0.096
-288.603	-53.525	0.328	-0.190
-287.589	-53.492	0.432	0.251
-286.574	-21.478	-0.188	0.146
-285.559	-27.642	0.409	-0.301
-284.545	37.750	0.319	-0.360
-283.530	182.419	-0.136	-0.255
-282.516	-39.991	-0.231	-0.153
-281.501	-91.778	-0.124	0.045
-280.486	-99.272	0.296	-0.095
-279.472	-200.000	0.013	0.133
-278.457	334.900	0.041	0.103
-277.443	73.975	0.238	0.318
-276.428	-139.696	-0.393	0.053
-275.413	631.119	0.098	0.316
-274.399	-129.866	-0.262	-0.045
-273.384	800.000	0.106	0.483
-272.370	-13.964	0.248	-0.203
-271.355	81.084	-0.256	-0.352
-270.340	-79.710	-0.062	-0.026
-269.326	-97.759	0.477	-0.156
-268.311	-12.781	0.390	0.322
-267.297	-32.012	0.143	0.101
-266.282	-92.892	0.223	-0.079
-265.267	-200.000	0.020	0.188
-264.253	-115.463	-0.142	0.034
-263.238	682.321	-0.202	-0.674
-262.224	110.534	-0.117	-0.179
-261.209	-42.815	0.233	-0.150
-260.195	438.355	0.147	0.410
-259.180	-111.274	-0.182	0.047
-258.165	-96.456	-0.285	0.095
-257.151	800.000	0.166	0.616
-256.136	-200.000	-0.000	-0.184
-255.122	-52.762	-0.398	0.232
-254.107	-70.345	-0.302	-0.145
-253.092	465.176	-0.036	0.104
-252.078	-122.609	-0.115	0.023
-251.063	220.140	-0.108	-0.219
-250.049	-200.000	0.013	0.266
-249.034	-17.247	0.269	-0.215
-248.019	800.000	0.030	0.166
-247.005	-200.000	-0.159	-0.000
-245.990	-180.636	0.424	-0.011
-244.976	32.629	-0.213	-0.234
-243.961	-127.685	-0.773	0.141
-242.946	-114.543	-0.421	-0.102
-241.932	-56.755	-0.064	-0.036
-240.917	-141.882	-0.076	-0.009
-239.903	84.054	-0.138	0.192
-238.888	-32.480	-0.326	-0.230
-237.873	1.279	0.148	-0.135
-236.859	639.688	-0.065	0.210
-235.844	299.090	-0.099	-0.231
-234.830	-31.217	-0.353	0.252
-233.815	-120.342	0.220	-0.047
-232.800	-162.030	-0.114	-0.007
-231.786	-90.295	-0.595	0.218
-230.771	79.413	-0.197	0.268
-229.757	-14.755	-0.274	0.223
-228.742	-132.575	0.081	0.013
-227.727	-161.722	-0.272	0.017
-226.713	-23.113	-0.181	0.138
-225.698	-160.518	0.316	0.021
-224.684	-200.000	0.018	0.191
-223.669	-49.712	-0.244	-0.147
-222.655	691.420	0.102	-0.343
-221.640	800.000	-0.141	0.744
-220.625	-68.769	-0.328	-0.160
-219.611	17.996	0.250	-0.253
-218.596	-156.326	0.329	0.026
-217.582	-105.592	0.271	0.077
-216.567	-60.160	0.232	0.125
-215.552	30.228	-0.134	0.145
-214.538	-76.547	0.385	0.171
-213.523	-152.050	0.259	0.024
-212.509	191.992	-0.141	-0.271
-211.494	39.427	-0.250	-0.284
-210.479	-200.000	0.016	-0.249
-209.465	-104.987	0.052	0.015
-208.450	-184.789	-0.236	0.005
-207.436	-74.420	0.124	-0.056
-206.421	-25.555	0.268	-0.200
-205.406	-64.957	0.155	0.079
-204.392	-144.578	0.384	-0.044
-203.377	-200.000	0.026	-0.213
-202.363	300.924	0.116	0.274
-201.348	-131.703	0.127	0.021
-200.333	800.000	-0.076	-0.279
-199.319	-200.000	0.042	0.301
-198.304	800.000	0.146	-0.609
-197.290	-135.682	0.272	-0.040
-196.275	-200.000	0.002	-0.372
-195.260	-69.234	-0.455	-0.221
-194.246	-114.643	-0.213	0.051
-193.231	-73.065	0.223	0.103
-192.217	35.832	0.077	0.085
-191.202	108.816	0.239	-0.362
-190.187	-200.000	0.001	0.174
-189.173	-77.317	0.313	-0.137
-188.158	-200.000	0.040	-0.464
-187.144	-200.000	0.043	-0.257
-186.129	-127.692	-0.206	-0.037
-185.114	-77.922	-0.022	0.010
-184.100	-143.960	-0.036	0.004
-183.085	91.647	-0.133	-0.190
-182.071	-174.751	-0.503	-0.018
-181.056	-200.000	-0.010	0.236
-180.042	109.888	0.184	-0.279
-179.027	-128.980	0.054	0.009
-178.012	39.414	0.092	-0.105
-176.998	-200.000	0.182	0.000
-175.983	-47.262	-0.046	0.028
-174.969	48.390	-0.140	0.166
-173.954	-157.029	0.472	-0.036
-172.939	2.194	0.063	0.058
-171.925	-94.285	-0.271	-0.093
-170.910	-112.388	-0.172	0.043
-169.896	-200.000	0.038	-0.255
-168.881	90.658	-0.158	0.225
-167.866	-125.231	-0.360	-0.069
-166.852	195.522	0.135	0.260
-165.837	-63.135	-0.083	-0.043
-164.823	576.281	0.175	0.543
-163.808	103.433	-0.099	0.148
-162.793	-200.000	-0.026	0.304
-161.779	-129.502	0.290	0.050
-160.764	199.646	0.165	-0.321
-159.750	800.000	-0.040	-0.194
-158.735	-23.288	-0.326	0.248
-157.720	80.493	-0.301	-0.411
-156.706	-119.399	0.600	0.131
-155.691	-100.345	-0.501	0.156
-154.677	-61.191	-0.133	-0.070
-153.662	65.098	0.090	-0.115
-152.647	-139.507	-0.393	0.053
-151.633	-200.000	-0.055	0.393
-150.618	483.951	0.131	0.379
-149.604	-132.617	-0.455	-0.073
-148.589	-63.170	0.253	0.131
-147.574	-102.108	-0.061	-0.018
-146.560	-78.746	0.190	-0.082
-145.545	344.140	0.100	-0.250
-144.531	41.230	-0.144	0.164
-143.516	-61.307	0.742	-0.394
-142.502	-89.753	0.576	-0.212
-141.487	-33.863	-0.244	0.170
-140.472	800.000	0.127	0.502
-139.458	84.819	0.118	-0.163
-138.443	481.559	-0.138	-0.398
-137.429	-59.460	-0.238	-0.129
-136.414	-200.000	-0.012	0.195
-135.399	65.419	-0.129	0.165
-134.385	-93.079	0.274	0.096
-133.370	-16.580	0.063	-0.050
-132.356	135.322	-0.143	-0.236
-131.341	61.617	0.220	-0.277
-130.326	-156.853	0.465	0.036
-129.312	-200.000	0.031	-0.193
-128.297	-168.069	0.169	-0.008
-127.283	-174.828	0.601	-0.021
-126.268	-93.178	0.624	0.218
-125.253	-129.179	-0.449	-0.078
-124.239	449.873	0.092	-0.257
-123.224	-132.548	-0.398	0.064
-122.210	-149.458	-0.268	0.027
-121.195	-65.959	-0.450	0.226
-120.180	-31.418	-0.446	-0.317
-119.166	-122.585	-0.231	-0.047
-118.151	-58.734	0.249	-0.136
-117.137	573.714	-0.132	0.409
-116.122	86.957	-0.340	0.475
-115.107	-200.000	-0.166	0.001
-114.093	-58.086	-0.068	-0.038
-113.078	188.432	0.115	0.218
-112.064	-121.626	0.416	-0.086
-111.049	-200.000	0.034	-0.325
-110.034	-200.000	0.013	0.264
-109.020	-89.728	-0.066	0.024
-108.005	800.000	0.056	0.289
-106.991	79.482	0.152	0.206
-105.976	-79.386	-0.337	-0.143
-104.962	800.000	-0.091	0.390
-103.947	79.570	-0.091	0.123
-102.932	-43.331	0.095	-0.061
-101.918	722.557	0.114	0.385
-100.903	92.005	0.087	-0.123
-99.889	-45.336	0.252	-0.157
-98.874	-2.584	-0.156	-0.138
-97.859	-154.354	-0.421	-0.035
-96.845	582.901	-0.052	-0.162
-95.830	-200.000	0.034	0.301
-94.816	-45.496	-0.162	-0.101
-93.801	800.000	0.028	0.136
-92.786	-155.680	-0.486	0.039
-91.772	-170.712	0.101	0.004
-90.757	-15.191	0.091	-0.073
-89.743	-78.568	-0.241	-0.104
-88.728	-162.561	0.372	-0.023
-87.713	-114.441	0.356	-0.086
-86.699	800.000	0.026	0.097
-85.684	800.000	0.072	0.314
-84.670	160.095	-0.163	0.287
-83.655	-149.920	-0.027	0.003
-82.640	343.516	-0.180	-0.446
-81.626	-140.906	0.260	0.033
-80.611	13.546	0.284	0.277
-79.597	-100.319	0.262	-0.082
-78.582	-146.963	0.562	0.060
-77.567	800.000	0.028	-0.151
-76.553	71.375	0.341	-0.447
-75.538	-56.907	0.125	0.069
-74.524	578.372	-0.142	0.440
-73.509	178.307	-0.118	-0.218
-72.494	701.876	-0.099	0.329
-71.480	-110.162	-0.528	0.138
-70.465	-73.374	-0.414	0.190
-69.451	376.109	-0.132	0.341
-68.436	-177.750	-0.339	0.010
-67.422	35.867	0.170	-0.189
-66.407	-200.000	0.014	-0.147
-65.392	-200.000	0.008	-0.142
-64.378	-200.000	0.009	-0.334
-63.363	-44.397	-0.441	-0.278
-62.349	73.009	-0.261	-0.344
-61.334	-29.171	-1.513	-1.091
-60.319	-94.987	1.417	0.480
-59.305	453.597	-2.273	-6.372
-58.290	13.831	3.299	3.231
-57.276	386.510	4.021	10.514
-56.261	-200.000	15.128	238.195
-55.246	438.862	1195.604	3304.438
-54.232	59.770	2836.379	3530.439
-53.217	69.045	2722.270	3528.703
-52.203	50.911	2450.595	2927.610
-51.188	43.543	2101.629	2422.306
-50.173	36.352	1976.032	2195.627
-49.159	34.805	1964.471	2165.092
-48.144	34.351	1960.537	2155.515
-47.130	34.344	1958.403	2152.998
-46.115	34.236	1956.634	2149.746
-45.100	34.312	1955.252	2149.004
-44.086	34.278	1953.542	2146.648
-43.071	34.285	1952.704	2145.730
-42.057	34.184	1951.658	2143.352
-41.042	34.301	1950.102	2142.878
-40.027	34.124	1948.643	2139.184
-39.013	34.159	1946.944	2137.630
-37.998	33.960	1946.755	2135.090
-36.984	34.004	1944.676	2133.226
-35.969	34.097	1942.931	2132.273
-34.954	34.095	1941.239	2130.308
-33.940	34.147	1940.033	2129.491
-32.925	34.190	1938.593	2128.308
-31.911	34.146	1937.057	2126.045
-30.896	34.127	1936.740	2125.399
-29.881	34.082	1935.223	2123.146
-28.867	33.986	1933.463	2120.051
-27.852	33.966	1932.389	2118.564
-26.838	33.937	1930.972	2116.607
-25.823	34.085	1929.100	2116.122
-24.809	33.920	1928.322	2113.338
-23.794	34.066	1927.061	2113.505
-22.779	33.929	1925.582	2110.273
-21.765	34.005	1923.845	2109.133
-20.750	33.895	1923.289	2107.209
-19.736	33.869	1922.656	2106.143
-18.721	33.899	1920.188	2103.694
-17.706	33.848	1918.856	2101.585
-16.692	33.894	1917.773	2100.820
-15.677	33.790	1916.923	2098.652
-14.663	33.841	1914.667	2096.670
-13.648	33.862	1912.674	2094.637
-12.633	33.769	1912.179	2092.976
-11.619	33.804	1911.235	2092.244
-10.604	33.781	1909.737	2090.267
-9.590	33.777	1909.352	2089.717
-8.575	33.806	1907.732	2088.189
-7.560	33.780	1906.590	2086.566
-6.546	33.772	1904.926	2084.571
-5.531	33.802	1904.278	2084.108
-4.517	33.767	1902.730	2081.950
-3.502	33.804	1901.522	2080.952
-2.487	33.756	1901.543	2080.367
-1.473	33.889	1897.634	2077.472
-0.458	34.052	1877.861	2057.511
0.556	29.819	2011.528	2141.935
1.571	27.547	2225.610	2340.324
2.586	28.876	2270.775	2405.022
3.600	28.787	2273.634	2406.582
4.615	28.854	2273.330	2406.857
5.629	28.645	2271.713	2402.111
6.644	28.826	2269.038	2401.371
7.659	28.952	2267.837	2401.469
8.673	29.065	2265.954	2400.672
9.688	28.386	2270.507	2396.284
10.702	25.349	2341.485	2429.658
11.717	22.064	2404.792	2449.092
12.731	11.438	2376.381	2271.913
13.746	1.747	2351.616	2113.289
14.761	0.316	2345.495	2087.618
15.775	0.090	2345.082	2083.854
16.790	0.100	2342.250	2081.229
17.804	-0.022	2341.613	2078.718
18.819	0.076	2340.268	2078.629
19.834	-0.001	2338.525	2075.771
20.848	0.075	2336.182	2074.490
21.863	0.061	2335.106	2073.089
22.877	0.014	2333.375	2070.659
23.892	0.007	2330.543	2067.802
24.907	0.070	2328.325	2066.455
25.921	0.046	2326.059	2063.869
26.936	0.084	2324.001	2062.322
27.950	0.030	2322.012	2059.567
28.965	-0.048	2321.194	2057.509
29.980	-0.002	2319.431	2056.345
30.994	0.204	2317.032	2056.787
32.009	6.073	2336.267	2154.689
33.023	19.170	2374.816	2372.460
34.038	24.981	2387.093	2465.074
35.053	25.449	2385.251	2469.351
36.067	25.144	2382.480	2461.969
37.082	25.095	2379.115	2457.522
38.096	25.005	2378.555	2455.421
39.111	25.237	2375.887	2455.556
40.126	24.800	2372.327	2445.586
41.140	24.799	2369.894	2442.773
42.155	24.695	2368.930	2440.060
43.169	24.443	2365.728	2433.019
44.184	24.399	2362.557	2428.854
45.199	24.215	2359.369	2422.774
46.213	24.102	2359.611	2421.183
47.228	24.038	2357.394	2417.745
48.242	24.048	2354.896	2415.031
49.257	24.090	2354.144	2414.552
50.271	24.310	2351.349	2414.392
51.286	24.320	2348.141	2410.942
52.301	23.992	2346.588	2404.608
53.315	24.235	2347.825	2408.885
54.330	25.828	2350.676	2433.161
55.344	26.774	2350.037	2445.053
56.359	27.037	2347.568	2445.744
57.374	26.906	2346.373	2442.430
58.388	26.899	2342.676	2438.201
59.403	26.702	2339.010	2431.434
60.417	26.456	2336.248	2424.957
61.432	26.619	2334.975	2425.547
62.447	26.597	2333.291	2423.202
63.461	26.799	2331.012	2423.262
64.476	26.799	2329.521	2421.426
65.490	26.834	2328.057	2420.080
66.505	26.262	2326.351	2410.354
67.520	25.955	2323.037	2402.511
68.534	26.026	2321.776	2401.874
69.549	25.755	2317.334	2393.379
70.563	25.497	2313.296	2385.478
71.578	25.361	2311.825	2381.865
72.593	25.583	2311.093	2383.780
73.607	25.395	2308.605	2378.429
74.622	25.412	2307.252	2376.972
75.636	25.846	2304.351	2379.464
76.651	25.649	2302.127	2374.268
77.666	25.703	2301.269	2373.815
78.680	25.462	2297.229	2366.168
79.695	25.008	2294.028	2356.589
80.709	24.471	2291.018	2346.128
81.724	24.157	2288.710	2339.340
82.739	24.732	2287.424	2345.320
83.753	25.538	2288.988	2357.276
84.768	25.520	2287.395	2355.122
85.782	25.515	2286.259	2353.603
86.797	25.517	2282.773	2349.749
87.812	25.071	2280.121	2340.892
88.826	25.241	2278.650	2341.330
89.841	25.427	2277.825	2342.644
90.855	25.590	2274.825	2341.412
91.870	25.573	2272.232	2338.233
92.884	25.376	2270.856	2333.961
93.899	25.162	2268.908	2328.888
94.914	24.984	2268.799	2326.183
95.928	25.343	2268.879	2330.669
96.943	25.682	2267.665	2333.555
97.957	25.449	2264.877	2327.375
98.972	25.254	2261.730	2321.333
99.987	25.263	2258.185	2317.532
101.001	25.120	2256.219	2313.377
102.016	25.411	2254.521	2315.128
103.030	25.174	2250.916	2308.085
104.045	24.834	2248.446	2300.894
105.060	25.034	2246.906	2301.620
106.074	25.394	2245.952	2305.009
107.089	25.191	2243.242	2299.336
108.103	24.855	2242.071	2293.536
109.118	25.114	2240.873	2295.364
110.133	25.110	2238.925	2293.053
111.147	25.458	2237.563	2295.854
112.162	25.462	2236.580	2294.612
113.176	25.378	2234.090	2290.714
114.191	25.005	2230.019	2281.493
115.206	24.829	2228.982	2277.897
116.220	25.362	2228.835	2284.299
117.235	25.333	2227.030	2281.808
118.249	25.305	2224.340	2278.412
119.264	25.164	2222.597	2274.555
120.279	25.049	2220.261	2270.436
121.293	25.260	2219.102	2271.667
122.308	25.468	2217.353	2272.246
123.322	25.312	2214.927	2267.509
124.337	24.618	2213.671	2257.133
125.352	25.144	2215.355	2265.267
126.366	26.114	2216.619	2278.606
127.381	26.208	2212.409	2275.199
128.395	26.160	2208.180	2269.962
129.410	25.709	2206.274	2262.035
130.424	25.701	2204.948	2260.304
131.439	25.961	2204.975	2263.343
132.454	25.749	2202.646	2258.010
133.468	25.818	2200.510	2256.419
134.483	25.681	2197.381	2251.218
135.497	25.439	2195.684	2246.175
136.512	25.713	2193.862	2247.484
137.527	25.851	2192.698	2247.754
138.541	25.686	2191.613	2244.295
139.556	25.829	2190.318	2244.493
140.570	25.776	2188.881	2242.086
141.585	25.330	2185.206	2232.489
142.600	25.002	2184.106	2226.993
143.614	25.068	2182.737	2226.151
144.629	25.330	2179.740	2226.097
145.643	24.963	2178.363	2219.861
146.658	24.840	2175.891	2215.538
147.673	24.647	2172.858	2209.794
148.687	24.535	2171.878	2207.133
149.702	24.500	2170.822	2205.364
150.716	25.003	2171.090	2211.617
151.731	25.515	2171.482	2218.103
152.746	25.474	2169.551	2215.361
153.760	25.241	2169.400	2212.048
154.775	25.468	2170.099	2215.311
155.789	25.728	2168.638	2216.773
156.804	25.588	2164.396	2210.443
157.819	25.015	2158.724	2197.324
158.833	24.704	2156.387	2190.855
159.848	24.882	2154.439	2190.806
160.862	24.972	2152.732	2189.911
161.877	25.361	2152.465	2194.158
162.892	25.422	2152.107	2194.278
163.906	25.403	2151.458	2193.118
164.921	25.353	2148.613	2189.347
165.935	25.153	2144.808	2182.751
166.950	24.807	2144.303	2177.744
167.964	24.990	2141.424	2176.798
168.979	25.022	2139.571	2175.040
169.994	25.131	2138.709	2175.239
171.008	25.264	2136.490	2174.338
172.023	25.070	2134.820	2170.019
173.037	25.403	2134.726	2173.721
174.052	25.259	2133.405	2170.362
175.067	25.123	2131.330	2166.341
176.081	25.174	2130.033	2165.381
177.096	25.452	2130.043	2168.504
178.110	25.737	2128.566	2170.195
179.125	25.694	2127.393	2168.216
180.140	25.660	2125.310	2165.427
181.154	25.645	2124.782	2164.441
182.169	25.757	2123.371	2164.103
183.183	25.954	2122.716	2165.554
184.198	26.318	2121.879	2168.831
185.213	26.302	2121.096	2167.582
186.227	26.206	2118.033	2163.031
187.242	25.687	2115.402	2153.847
188.256	25.491	2113.537	2149.335
189.271	25.818	2112.763	2152.218
190.286	25.488	2110.803	2146.001
191.300	25.228	2107.008	2138.768
192.315	25.482	2105.880	2140.409
193.329	25.673	2105.229	2141.782
194.344	25.524	2103.367	2137.847
195.359	25.237	2101.754	2132.530
196.373	25.574	2099.698	2134.209
197.388	25.503	2097.205	2130.566
198.402	25.375	2095.226	2126.777
199.417	25.561	2092.605	2126.080
200.432	25.375	2090.903	2121.882
201.446	25.189	2089.987	2118.497
202.461	25.325	2088.464	2118.315
203.475	25.171	2086.689	2114.436
204.490	25.095	2083.775	2110.328
205.504	25.143	2081.841	2108.685
206.519	25.090	2079.448	2105.384
207.534	25.154	2078.818	2105.240
208.548	25.338	2078.338	2106.680
209.563	25.152	2075.778	2101.636
210.577	25.439	2075.614	2104.606
211.592	25.500	2075.449	2104.904
212.607	25.697	2074.569	2106.074
213.621	25.793	2074.573	2106.959
214.636	25.883	2072.446	2105.603
215.650	26.060	2072.028	2106.997
216.665	26.220	2069.301	2105.853
217.680	25.574	2066.319	2095.000
218.694	25.295	2064.899	2090.048
219.709	25.149	2061.722	2084.870
220.723	25.091	2060.219	2082.430
221.738	25.534	2057.548	2084.640
222.753	25.774	2057.083	2086.717
223.767	25.633	2056.143	2083.875
224.782	25.445	2053.610	2078.876
225.796	25.334	2051.507	2075.199
226.811	25.352	2050.549	2074.196
227.826	25.267	2048.780	2071.167
228.840	24.992	2047.080	2066.019
229.855	25.261	2046.367	2068.166
230.869	25.387	2045.113	2068.106
231.884	25.670	2044.690	2070.707
232.899	25.776	2043.874	2070.859
233.913	25.798	2042.026	2068.995
234.928	25.771	2040.210	2066.590
235.942	25.205	2037.403	2056.987
236.957	25.252	2035.558	2055.418
237.972	25.462	2035.419	2057.444
238.986	25.310	2034.658	2054.680
240.001	25.144	2032.024	2049.865
241.015	25.165	2030.779	2048.603
242.030	25.798	2031.590	2056.444
243.045	26.168	2031.914	2060.773
244.059	26.429	2031.175	2062.767
245.074	26.604	2028.099	2061.399
246.088	25.953	2023.638	2049.192
247.103	25.846	2022.468	2046.532
248.117	26.412	2021.954	2052.230
249.132	26.183	2020.396	2047.794
250.147	25.852	2016.463	2039.798
251.161	25.401	2014.111	2032.041
252.176	25.517	2013.645	2032.645
253.190	25.435	2010.862	2028.668
254.205	25.414	2008.388	2025.695
255.220	25.218	2006.808	2021.640
256.234	24.721	2004.699	2013.641
257.249	24.752	2003.360	2012.404
258.263	24.929	2003.388	2014.196
259.278	25.030	2002.386	2014.092
260.293	25.111	2001.423	2013.790
261.307	25.178	1999.859	2012.731
262.322	25.440	1998.242	2013.815
263.336	24.936	1994.783	2004.426
264.351	25.015	1993.528	2003.805
265.366	25.376	1993.799	2007.905
266.380	25.531	1992.497	2008.085
267.395	25.446	1991.740	2006.136
268.409	25.702	1989.425	2006.433
269.424	25.491	1988.003	2002.393
270.439	25.247	1988.220	1999.637
271.453	26.015	1987.958	2007.727
272.468	26.261	1985.461	2007.719
273.482	25.950	1983.621	2002.148
274.497	25.610	1981.018	1995.486
275.512	25.654	1978.024	1992.728
276.526	25.454	1975.200	1987.419
277.541	25.190	1972.270	1981.302
278.555	25.057	1970.046	1977.350
279.570	25.054	1968.907	1975.947
280.585	25.021	1967.854	1974.285
281.599	25.080	1967.459	1974.307
282.614	25.318	1966.306	1975.544
283.628	25.421	1965.426	1975.559
284.643	25.486	1963.663	1974.267
285.657	25.085	1960.879	1966.813
286.672	24.934	1959.956	1963.982
287.687	24.745	1957.868	1959.576
288.701	24.680	1956.521	1957.281
289.716	24.505	1954.096	1952.697
290.730	23.882	1952.008	1943.537
291.745	24.822	1951.795	1953.409
292.760	25.090	1951.731	1956.051
293.774	24.949	1951.588	1954.128
294.789	25.417	1951.594	1959.026
295.803	25.563	1948.943	1957.729
296.818	25.571	1947.881	1956.518
297.833	25.981	1948.420	1961.311
298.847	25.745	1945.326	1955.388
299.862	25.300	1943.231	1948.194
300.876	25.537	1942.659	1949.970
301.891	26.113	1944.091	1957.450
302.906	26.269	1942.035	1956.844
303.920	25.729	1939.524	1948.213
304.935	25.670	1937.296	1945.097
305.949	25.650	1934.949	1942.293
306.964	25.629	1933.447	1940.330
307.979	25.156	1929.401	1930.916
308.993	24.169	1925.008	1915.630
310.008	23.131	1921.371	1900.573
311.022	22.816	1919.458	1895.057
312.037	23.052	1917.674	1895.613
313.052	22.815	1915.767	1890.942
314.066	22.521	1913.030	1884.855
315.081	22.722	1913.044	1886.805
316.095	22.899	1911.263	1886.723
317.110	22.482	1909.906	1880.686
318.125	22.273	1908.468	1876.805
319.139	22.345	1907.780	1876.668
320.154	22.732	1906.784	1879.617
321.168	22.862	1904.413	1878.440
322.183	24.026	1907.353	1893.572
323.197	25.207	1908.976	1907.587
324.212	25.466	1906.997	1908.150
325.227	25.200	1905.428	1903.510
326.241	25.346	1904.695	1904.112
327.256	25.666	1903.080	1905.674
328.270	25.124	1900.423	1897.026
329.285	25.103	1900.551	1896.703
330.300	25.330	1901.242	1899.577
331.314	25.770	1901.372	1904.160
332.329	25.940	1899.115	1903.469
333.343	25.497	1895.884	1895.312
334.358	25.184	1893.121	1889.010
335.373	25.255	1891.755	1888.171
336.387	25.698	1890.974	1891.846
337.402	25.798	1889.151	1890.855
338.416	25.802	1888.091	1889.609
339.431	25.715	1886.066	1886.437
340.446	25.554	1883.736	1882.184
341.460	25.147	1880.965	1874.923
342.475	24.373	1877.320	1862.936
343.489	23.298	1873.280	1847.440
344.504	22.681	1871.548	1839.054
345.519	22.767	1870.430	1838.630
346.533	22.603	1867.428	1833.750
347.548	22.601	1866.185	1832.280
348.562	22.720	1865.666	1832.794
349.577	22.767	1864.712	1832.134
350.592	23.074	1864.229	1834.644
351.606	23.111	1862.296	1832.904
352.621	22.637	1860.505	1825.992
353.635	22.636	1859.428	1824.704
354.650	23.330	1860.495	1832.748
355.665	24.756	1861.059	1847.912
356.679	25.013	1861.209	1850.509
357.694	25.448	1861.142	1854.731
358.708	25.771	1860.336	1857.058
359.723	25.866	1859.884	1857.362
360.738	26.159	1859.759	1860.050
361.752	26.395	1858.936	1861.455
362.767	26.603	1856.906	1861.343
363.781	26.388	1853.589	1855.574
364.796	25.754	1851.224	1846.451
365.810	25.672	1850.826	1844.991
366.825	25.458	1847.775	1839.533
367.840	23.916	1842.002	1817.737
368.854	22.677	1839.388	1802.220
369.869	22.805	1838.220	1802.170
370.883	23.170	1836.999	1804.500
371.898	23.273	1836.207	1804.567
372.913	22.996	1834.800	1800.127
373.927	22.746	1831.942	1794.547
374.942	22.752	1832.014	1794.466
375.956	23.505	1832.209	1802.138
376.971	24.005	1830.916	1805.750
377.986	24.286	1828.590	1806.107
379.000	24.234	1828.128	1804.900
380.015	24.155	1826.780	1802.551
381.029	24.789	1827.770	1809.763
382.044	25.381	1825.633	1813.446
383.059	25.288	1824.552	1811.211
384.073	25.394	1824.079	1811.594
385.088	25.517	1824.132	1812.677
386.102	25.533	1822.353	1810.859
387.117	25.154	1819.430	1803.903
388.132	25.081	1819.442	1802.962
389.146	25.447	1820.229	1807.229
390.161	25.950	1820.052	1811.916
391.175	25.927	1815.592	1807.024
392.190	25.227	1810.921	1795.126
393.205	25.190	1809.439	1793.071
394.219	25.014	1807.240	1788.910
395.234	25.026	1805.542	1787.140
396.248	25.148	1804.984	1787.589
397.263	24.919	1801.735	1781.870
398.278	24.935	1800.694	1780.786
399.292	25.043	1799.889	1780.854
400.307	24.919	1798.191	1777.726
401.321	24.658	1796.893	1773.628
402.336	25.053	1796.000	1776.474
403.350	25.053	1794.318	1774.597
404.365	24.778	1792.151	1769.502
405.380	24.157	1789.115	1760.130
406.394	22.786	1785.405	1742.675
407.409	22.573	1783.750	1738.736
408.423	22.596	1782.175	1737.217
409.438	22.651	1781.087	1736.493
410.453	22.527	1780.620	1734.601
411.467	22.812	1779.063	1735.698
412.482	23.031	1779.897	1738.471
413.496	24.733	1782.261	1757.401
414.511	25.660	1781.000	1765.085
415.526	25.500	1778.299	1760.622
416.540	25.123	1777.506	1755.915
417.555	25.363	1777.424	1757.989
418.569	25.717	1777.135	1760.975
419.584	25.646	1775.656	1758.597
420.599	25.683	1776.932	1760.018
421.613	26.266	1776.434	1765.036
422.628	25.831	1774.207	1758.351
423.642	25.233	1771.580	1749.675
424.657	24.963	1768.960	1744.237
425.672	25.307	1768.650	1747.088
426.686	25.105	1765.741	1742.035
427.701	24.388	1763.479	1732.602
428.715	24.387	1762.975	1731.885
429.730	25.040	1761.986	1737.075
430.745	25.494	1761.619	1740.922
431.759	25.571	1762.399	1742.233
432.774	26.438	1761.826	1749.892
433.788	25.361	1758.152	1735.584
434.803	23.921	1754.227	1717.531
435.818	23.678	1753.562	1714.317
436.832	23.594	1753.603	1713.333
437.847	22.953	1746.856	1700.341
438.861	14.416	1721.790	1593.997
439.876	3.041	1700.385	1465.475
440.890	0.375	1694.911	1435.106
441.905	0.177	1693.087	1431.491
442.920	0.121	1691.691	1429.611
443.934	0.061	1690.729	1428.054
444.949	0.050	1690.233	1427.359
445.963	0.057	1688.872	1426.103
446.978	-0.056	1688.598	1424.619
447.993	0.052	1687.172	1424.278
449.007	0.097	1684.010	1421.865
450.022	0.106	1682.463	1420.470
451.036	-0.000	1682.048	1418.946
452.051	1.514	1688.113	1438.300
453.066	12.545	1713.459	1565.739
454.080	22.829	1729.425	1678.964
455.095	24.685	1733.889	1700.864
456.109	26.460	1736.494	1720.195
457.124	27.124	1736.367	1726.207
458.139	26.932	1734.193	1722.007
459.153	26.708	1733.354	1718.833
460.168	26.725	1731.411	1716.864
461.182	27.026	1731.591	1719.705
462.197	27.831	1730.838	1726.407
463.212	27.923	1728.310	1724.548
464.226	27.740	1728.040	1722.337
465.241	28.038	1727.361	1724.280
466.255	28.499	1725.901	1726.980
467.270	28.386	1724.972	1724.782
468.285	28.200	1724.106	1721.950
469.299	28.448	1723.541	1723.521
470.314	28.694	1721.998	1724.089
471.328	28.733	1720.828	1723.080
472.343	28.604	1720.602	1721.434
473.358	28.877	1718.280	1721.471
474.372	29.016	1717.282	1721.572
475.387	29.077	1716.525	1721.184
476.401	28.954	1714.905	1718.201
477.416	28.611	1712.912	1712.777
478.430	28.712	1711.643	1712.255
479.445	28.762	1710.568	1711.443
480.460	28.542	1709.554	1708.162
481.474	28.670	1709.079	1708.682
482.489	28.959	1708.152	1710.252
483.503	28.956	1705.816	1707.677
484.518	28.811	1703.250	1703.556
485.533	28.891	1703.057	1703.907
486.547	28.927	1701.044	1702.019
487.562	28.610	1700.048	1697.874
488.576	28.841	1699.508	1699.278
489.591	29.184	1698.690	1701.439
490.606	29.040	1697.859	1699.070
491.620	29.185	1695.429	1697.779
492.635	29.184	1693.760	1695.896
493.649	28.832	1691.315	1689.991
494.664	28.499	1690.845	1686.240
495.679	28.345	1689.349	1683.125
496.693	28.416	1688.276	1682.511
497.708	28.718	1686.873	1683.692
498.722	28.994	1685.990	1685.155
499.737	29.089	1685.188	1685.020
500.752	29.075	1682.974	1682.482
501.766	28.921	1680.920	1678.813
502.781	29.052	1679.825	1678.719
503.795	29.087	1678.706	1677.719
504.810	28.958	1677.483	1675.118
505.825	28.914	1676.797	1673.828
506.839	28.678	1674.525	1669.198
507.854	28.599	1673.358	1667.116
508.868	28.703	1671.805	1666.322
509.883	28.299	1670.498	1661.132
510.898	28.255	1669.409	1659.455
511.912	27.781	1666.081	1651.637
512.927	27.138	1663.211	1642.755
513.941	26.953	1661.241	1638.932
514.956	27.032	1660.562	1638.776
515.971	27.387	1660.262	1641.506
516.985	27.292	1658.270	1638.478
518.000	27.209	1657.655	1636.922
519.014	27.294	1656.186	1636.048
520.029	27.332	1654.834	1634.863
521.043	27.323	1654.016	1633.774
522.058	27.493	1653.757	1634.853
523.073	27.783	1653.210	1636.737
524.087	28.090	1652.924	1639.024
525.102	28.219	1652.152	1639.225
526.116	28.319	1650.930	1638.709
527.131	28.427	1649.580	1638.150
528.146	28.819	1649.725	1641.615
529.160	28.969	1648.831	1641.878
530.175	29.164	1648.428	1643.027
531.189	29.327	1646.878	1642.742
532.204	29.376	1645.723	1641.837
533.219	29.058	1644.124	1637.195
534.233	28.986	1642.853	1635.092
535.248	28.961	1641.382	1633.211
536.262	28.914	1640.286	1631.503
537.277	29.157	1639.994	1633.191
538.292	29.277	1638.971	1633.041
539.306	29.303	1637.128	1631.241
540.321	28.953	1635.083	1625.898
541.335	28.658	1632.760	1620.773
542.350	29.141	1631.578	1623.686
543.365	29.374	1630.966	1624.955
544.379	29.556	1629.828	1625.235
545.394	29.509	1627.899	1622.699
546.408	28.953	1626.960	1616.662
547.423	28.925	1625.221	1614.493
548.438	29.014	1624.518	1614.384
549.452	29.196	1623.628	1614.908
550.467	29.159	1621.785	1612.558
551.481	29.070	1620.195	1610.000
552.496	29.090	1620.254	1610.044
553.511	29.444	1619.038	1611.751
554.525	29.411	1617.651	1609.888
555.540	29.297	1617.749	1608.792
556.554	29.267	1616.260	1606.855
557.569	29.064	1614.092	1602.729
558.583	28.714	1611.606	1597.010
559.598	28.677	1610.994	1595.895
560.613	28.783	1609.961	1595.601
561.627	28.710	1608.758	1593.580
562.642	28.704	1606.211	1590.815
563.656	28.577	1604.648	1587.976
564.671	28.157	1602.959	1582.463
565.686	28.043	1601.060	1579.406
566.700	27.674	1599.458	1574.438
567.715	27.616	1597.906	1572.221
568.729	27.616	1596.487	1570.629
569.744	27.749	1595.211	1570.343
570.759	27.834	1593.977	1569.674
571.773	27.736	1593.927	1568.584
572.788	27.671	1592.657	1566.589
573.802	27.736	1590.427	1564.766
574.817	27.689	1589.057	1562.831
575.832	28.044	1588.813	1565.456
576.846	28.583	1587.871	1568.975
577.861	28.923	1588.091	1571.924
578.875	28.891	1587.793	1571.169
579.890	29.293	1586.651	1573.299
580.905	29.322	1586.100	1572.819
581.919	29.483	1586.391	1574.294
582.934	29.603	1585.207	1573.958
583.948	29.458	1583.927	1571.261
584.963	29.366	1582.010	1568.382
585.978	29.034	1580.312	1563.677
586.992	28.969	1579.882	1562.512
588.007	29.297	1578.407	1563.663
589.021	28.728	1575.413	1555.662
590.036	27.752	1573.513	1545.296
591.051	28.322	1574.089	1550.533
592.065	29.110	1572.718	1555.691
593.080	29.372	1572.016	1557.032
594.094	29.533	1570.782	1556.988
595.109	29.211	1568.450	1551.766
596.123	29.435	1566.694	1551.742
597.138	29.629	1565.952	1552.456
598.153	29.413	1564.862	1549.369
599.167	29.182	1563.451	1545.833
600.182	29.179	1562.586	1544.773
601.196	29.293	1561.754	1544.727
602.211	29.333	1561.075	1544.206
603.226	29.314	1559.718	1542.520
604.240	29.561	1558.880	1543.582
605.255	29.658	1558.045	1543.382
606.269	29.519	1556.716	1540.716
607.284	29.329	1555.487	1537.722
608.299	29.288	1553.579	1535.308
609.313	29.036	1551.529	1530.994
610.328	28.965	1550.811	1529.502
611.342	29.086	1549.005	1528.549
612.357	29.163	1548.455	1528.469
613.372	29.083	1547.218	1526.398
614.386	28.903	1545.821	1523.339
615.401	28.766	1545.457	1521.656
616.415	28.730	1543.669	1519.414
617.430	28.480	1542.386	1515.892
618.445	28.413	1540.566	1513.365
619.459	28.254	1538.999	1510.325
620.474	27.987	1537.280	1506.251
621.488	27.982	1536.209	1504.980
622.503	28.134	1535.243	1505.104
623.518	28.013	1535.105	1503.788
624.532	28.038	1534.028	1502.765
625.547	28.058	1532.844	1501.585
626.561	28.210	1532.293	1502.124
627.576	28.478	1530.445	1502.343
628.591	28.380	1529.044	1499.979
629.605	28.303	1527.973	1498.115
630.620	28.298	1526.911	1496.855
631.634	28.378	1525.899	1496.340
632.649	28.509	1525.111	1496.461
633.663	28.625	1523.044	1495.204
634.678	28.367	1522.103	1491.987
635.693	28.359	1521.000	1490.661
636.707	28.365	1519.362	1488.927
637.722	28.672	1518.180	1490.099
638.736	28.991	1518.078	1492.423
639.751	29.248	1517.745	1494.007
640.766	29.293	1516.661	1493.130
641.780	29.200	1515.103	1490.662
642.795	29.386	1514.518	1491.421
643.809	29.487	1514.530	1492.070
644.824	29.679	1513.255	1492.198
645.839	29.704	1512.798	1491.769
646.853	29.756	1511.419	1490.651
647.868	29.639	1509.358	1487.498
648.882	29.404	1508.037	1484.112
649.897	29.434	1505.983	1482.162
650.912	29.204	1505.067	1479.225
651.926	29.372	1504.396	1479.740
652.941	29.124	1502.967	1476.163
653.955	28.892	1500.140	1471.343
654.970	28.049	1497.249	1461.562
655.985	27.891	1495.068	1457.987
656.999	27.801	1494.436	1456.478
658.014	28.218	1493.733	1458.960
659.028	28.676	1494.538	1463.242
660.043	29.183	1494.438	1467.026
661.058	29.311	1493.599	1467.050
662.072	29.366	1492.508	1466.247
663.087	29.255	1490.962	1463.667
664.101	29.168	1489.848	1461.700
665.116	29.400	1488.891	1462.435
666.131	29.486	1487.845	1461.915
667.145	29.558	1486.878	1461.363
668.160	29.511	1486.396	1460.340
669.174	29.488	1484.471	1458.094
670.189	29.601	1483.868	1458.221
671.204	29.556	1483.099	1456.938
672.218	29.508	1482.864	1456.151
673.233	29.818	1481.223	1456.819
674.247	29.903	1480.068	1456.181
675.262	29.887	1478.348	1454.189
676.276	29.666	1476.891	1450.836
677.291	29.562	1476.452	1449.409
678.306	29.628	1475.344	1448.670
679.320	29.503	1473.481	1445.684
680.335	29.223	1472.855	1442.695
681.349	29.459	1471.886	1443.430
682.364	29.523	1470.603	1442.499
683.379	29.357	1469.377	1439.819
684.393	29.074	1467.761	1435.845
685.408	29.061	1466.925	1434.755
686.422	29.133	1464.867	1433.136
687.437	29.034	1464.032	1431.372
688.452	28.659	1463.353	1427.607
689.466	28.655	1461.854	1425.944
690.481	28.568	1460.012	1423.295
691.495	28.493	1459.566	1422.105
692.510	28.627	1458.835	1422.267
693.525	28.617	1457.394	1420.612
694.539	28.667	1455.862	1419.341
695.554	28.604	1455.089	1417.928
696.568	28.547	1454.569	1416.805
697.583	28.586	1453.342	1415.746
698.598	28.877	1453.115	1417.609
699.612	28.961	1452.247	1417.247
700.627	29.274	1450.832	1418.118
701.641	29.327	1450.897	1418.419
702.656	29.515	1449.697	1418.532
703.671	29.695	1449.339	1419.398
704.685	29.871	1448.692	1419.949
705.700	29.795	1446.645	1417.190
706.714	29.490	1444.305	1412.381
707.729	29.356	1443.256	1410.160
708.744	29.415	1441.668	1408.894
709.758	29.161	1440.258	1405.398
710.773	28.480	1438.090	1397.895
711.787	28.187	1437.562	1394.969
712.802	28.892	1436.435	1399.109
713.816	29.134	1436.074	1400.434
714.831	29.468	1435.616	1402.372
715.846	29.426	1434.619	1400.914
716.860	29.461	1433.026	1399.454
717.875	29.383	1431.886	1397.577
718.889	29.273	1431.079	1395.789
719.904	29.314	1429.776	1394.662
720.919	29.432	1428.854	1394.493
721.933	29.374	1427.992	1393.045
722.948	29.279	1426.510	1390.712
723.962	29.214	1425.846	1389.407
724.977	29.482	1424.499	1389.954
725.992	29.710	1423.685	1390.715
727.006	29.726	1423.366	1390.360
728.021	29.621	1422.222	1388.286
729.035	29.866	1420.638	1388.418
730.050	29.659	1419.766	1385.839
731.065	29.667	1418.413	1384.416
732.079	29.678	1417.246	1383.192
733.094	29.628	1415.971	1381.406
734.108	29.692	1414.599	1380.383
735.123	29.735	1413.282	1379.259
736.138	29.572	1411.997	1376.617
737.152	29.460	1411.443	1375.072
738.167	29.597	1410.533	1375.042
739.181	29.719	1409.397	1374.682
740.196	29.502	1409.086	1372.597
741.211	29.522	1407.939	1371.461
742.225	29.431	1406.952	1369.660
743.240	29.271	1405.155	1366.554
744.254	29.129	1403.068	1363.300
745.269	29.091	1401.563	1361.394
746.284	28.831	1400.406	1358.177
747.298	28.723	1398.999	1355.845
748.313	28.614	1398.584	1354.474
749.327	28.735	1397.747	1354.403
750.342	28.902	1397.190	1354.934
751.356	28.919	1396.017	1353.760
752.371	28.769	1395.310	1351.805
753.386	28.902	1393.493	1350.864
754.400	29.073	1393.701	1352.169
755.415	29.637	1392.863	1355.356
756.429	29.789	1391.745	1355.221
757.444	29.837	1390.771	1354.464
758.459	29.776	1389.789	1352.897
759.473	29.556	1387.891	1349.273
760.488	29.327	1386.615	1346.187
761.502	29.273	1385.552	1344.604
762.517	29.430	1384.271	1344.346
763.532	29.409	1383.692	1343.470
764.546	29.326	1381.386	1340.460
765.561	28.564	1380.003	1333.398
766.575	27.837	1378.044	1326.036
767.590	27.859	1377.235	1325.265
768.605	28.594	1377.441	1330.662
769.619	28.903	1377.374	1332.690
770.634	29.348	1375.850	1334.296
771.648	29.327	1374.527	1332.701
772.663	29.169	1374.217	1331.088
773.678	29.422	1373.666	1332.236
774.692	29.581	1373.082	1332.664
775.707	29.822	1372.239	1333.426
776.721	29.781	1371.687	1332.436
777.736	29.663	1369.734	1329.524
778.751	29.587	1369.453	1328.545
779.765	29.644	1368.180	1327.563
780.780	29.542	1367.424	1325.932
781.794	29.710	1366.189	1325.792
782.809	29.215	1364.894	1320.806
783.824	28.680	1363.395	1315.346
784.838	28.752	1361.174	1313.567
785.853	28.681	1361.005	1312.732
786.867	28.786	1360.754	1313.086
787.882	28.818	1359.340	1311.797
788.897	28.690	1358.574	1309.982
789.911	28.606	1357.665	1308.350
790.926	28.748	1355.786	1307.397
791.940	28.965	1354.347	1307.404
792.955	29.134	1353.752	1307.876
793.969	29.158	1353.035	1307.199
794.984	29.258	1352.867	1307.596
795.999	29.545	1351.395	1308.059
797.013	29.727	1349.811	1307.666
798.028	29.673	1348.279	1305.639
799.042	29.604	1348.082	1304.801
800.057	29.598	1347.066	1303.621
801.072	29.626	1345.744	1302.382
802.086	29.626	1344.856	1301.367
803.101	29.596	1343.684	1299.870
804.115	29.539	1342.735	1298.390
805.130	29.437	1342.419	1297.207
806.145	29.268	1340.452	1293.963
807.159	29.196	1338.997	1291.895
808.174	29.311	1337.672	1291.269
809.188	29.570	1336.356	1291.663
810.203	29.096	1335.009	1286.878
811.218	28.814	1332.983	1282.793
812.232	28.414	1330.637	1277.579
813.247	28.039	1330.048	1274.234
814.261	28.650	1330.737	1279.028
815.276	29.148	1330.787	1282.409
816.291	29.041	1329.173	1279.947
817.305	29.189	1327.852	1279.560
818.320	29.342	1326.712	1279.371
819.334	29.366	1325.968	1278.670
820.349	29.520	1324.895	1278.556
821.364	29.540	1323.410	1277.109
822.378	29.602	1322.336	1276.348
823.393	29.411	1320.705	1273.293
824.407	29.415	1318.986	1271.517
825.422	29.365	1318.737	1270.775
826.437	29.180	1317.839	1268.477
827.451	28.832	1315.783	1263.941
828.466	28.649	1314.457	1261.250
829.480	28.846	1313.163	1261.219
830.495	28.941	1310.671	1259.329
831.509	28.780	1309.914	1257.346
832.524	28.858	1310.180	1257.988
833.539	29.212	1308.805	1258.947
834.553	29.455	1307.556	1259.260
835.568	29.421	1306.688	1258.045
836.582	29.251	1306.059	1256.121
837.597	29.576	1304.260	1256.463
838.612	29.397	1302.225	1253.129
839.626	29.137	1301.343	1250.359
840.641	28.927	1300.294	1247.769
841.655	28.857	1299.074	1245.972
842.670	28.341	1296.844	1240.169
843.685	27.550	1295.784	1233.627
844.699	28.254	1295.657	1238.147
845.714	28.718	1294.840	1240.371
846.728	28.843	1293.344	1239.635
847.743	28.795	1293.398	1239.215
848.758	29.068	1292.349	1239.911
849.772	29.212	1291.263	1239.691
850.787	29.331	1289.684	1238.833
851.801	29.213	1288.665	1236.910
852.816	29.207	1287.497	1235.599
853.831	29.114	1286.051	1233.442
854.845	29.011	1284.236	1230.859
855.860	28.778	1282.583	1227.558
856.874	28.597	1281.742	1225.394
857.889	28.711	1280.373	1224.705
858.904	28.896	1279.188	1224.661
859.918	28.882	1277.646	1222.946
860.933	28.809	1276.681	1221.387
861.947	28.871	1275.611	1220.632
862.962	28.643	1274.230	1217.642
863.977	28.497	1273.739	1216.059
864.991	28.676	1272.924	1216.323
866.006	28.803	1272.341	1216.467
867.020	28.968	1271.375	1216.493
868.035	29.097	1270.352	1216.229
869.049	29.194	1269.931	1216.324
870.064	29.561	1268.120	1216.875
871.079	29.351	1266.973	1214.240
872.093	29.118	1266.321	1211.925
873.108	28.901	1265.759	1209.811
874.122	28.721	1263.964	1206.761
875.137	28.280	1263.428	1203.191
876.152	28.250	1262.131	1201.612
877.166	28.253	1260.554	1199.991
878.181	28.452	1259.337	1199.999
879.195	28.717	1258.634	1200.925
880.210	28.943	1258.148	1201.803
881.225	29.203	1257.022	1202.291
882.239	29.130	1256.799	1201.452
883.254	29.217	1256.113	1201.221
884.268	29.287	1254.589	1200.077
885.283	29.062	1253.162	1197.099
886.298	29.185	1252.090	1196.734
887.312	29.074	1251.245	1195.059
888.327	29.222	1249.824	1194.527
889.341	29.213	1248.347	1192.915
890.356	28.999	1247.374	1190.452
891.371	28.837	1247.423	1189.296
892.385	28.873	1246.156	1188.184
893.400	28.897	1245.044	1187.138
894.414	28.696	1243.507	1184.223
895.429	28.708	1242.823	1183.507
896.444	28.801	1241.305	1182.525
897.458	28.692	1240.283	1180.707
898.473	28.743	1239.321	1179.978
899.487	28.722	1237.989	1178.431
900.502	28.659	1237.228	1177.158
901.517	28.715	1235.854	1176.072
902.531	28.813	1235.249	1175.984
903.546	28.973	1235.063	1176.697
904.560	29.006	1234.272	1176.013
905.575	29.043	1233.630	1175.498
906.589	28.966	1232.181	1173.488
907.604	28.869	1231.242	1171.828
