DTS Sentinel unit serial number:	SN409020Multiplexer serial number:	ORYXHardware model number:	OX4-SRSoftware version number:	ORYX F/W v3.00 Oryx Data Collector v3.7.2.0data status	okinstallation	HaddamTimeLapsedifferential loss correction	single-endedforward channel	channel 3reverse channel	N/Adate	2011/06/21time	15:21:17forward acquisition time	30.00reverse acquisition time	0.00gamma	498.7831k internal	0.1819k external	0.1819temperature offset calibration	1.0074default loss term (dB/km)	0.3790temperature slope calibration	1.3530multiplexer offset coefficient	1.0000multiplexer slope coefficient	1.0000fibre end	0.00T internal ref (°C)	38.09T ext. ref 1 (°C)	28.51T ext. ref 2 (°C)	0.26length (m)	temperature (°C)	Stokes	anti-Stokes-747.200	-28.148	-0.290	0.214
-746.185	49.099	0.303	0.364
-745.171	800.000	0.057	-0.269
-744.156	-12.268	0.311	0.260
-743.142	-35.550	-0.336	0.232
-742.127	89.534	-0.394	0.563
-741.112	-99.941	0.353	-0.112
-740.098	12.841	0.203	0.200
-739.083	191.608	-0.144	-0.279
-738.069	-40.214	0.207	0.137
-737.054	164.184	-0.281	-0.508
-736.039	800.000	-0.063	0.310
-735.025	16.519	0.293	0.296
-734.010	-121.782	0.332	-0.070
-732.996	138.896	0.204	-0.344
-731.981	-40.768	0.278	-0.183
-730.966	408.257	0.188	-0.512
-729.952	16.903	-0.219	-0.222
-728.937	-130.173	0.361	0.062
-727.923	-31.529	0.369	0.264
-726.908	-112.007	0.150	-0.038
-725.894	55.735	-0.287	-0.356
-724.879	-198.521	0.499	-0.004
-723.864	-109.316	-0.323	-0.087
-722.850	-57.630	-0.087	0.048
-721.835	306.610	0.166	-0.398
-720.821	-31.291	0.054	0.039
-719.806	771.529	0.142	-0.496
-718.791	-200.000	-0.004	0.202
-717.777	156.581	0.179	-0.316
-716.762	800.000	0.021	0.078
-715.748	112.208	0.171	-0.265
-714.733	-200.000	0.057	-0.492
-713.718	-107.203	-0.252	-0.071
-712.704	143.537	-0.163	0.278
-711.689	-84.171	-0.325	-0.131
-710.675	21.098	-0.139	0.144
-709.660	7.902	-0.157	-0.151
-708.645	-78.296	0.197	-0.086
-707.631	-119.426	0.363	-0.080
-706.616	-147.293	-0.256	0.027
-705.602	-45.649	-0.396	0.249
-704.587	44.238	0.409	-0.480
-703.572	119.300	0.070	-0.111
-702.558	800.000	-0.140	-0.674
-701.543	437.693	0.117	-0.326
-700.529	800.000	-0.106	-0.541
-699.514	-105.962	-0.245	-0.070
-698.499	-54.234	-0.161	-0.093
-697.485	-200.000	-0.016	-0.435
-696.470	-91.432	0.189	0.069
-695.456	267.254	0.133	-0.298
-694.441	-16.322	0.127	0.103
-693.426	-18.110	0.178	0.142
-692.412	594.022	-0.166	-0.526
-691.397	-102.032	0.320	0.098
-690.383	603.882	-0.035	0.110
-689.368	12.845	-0.090	0.089
-688.354	39.658	0.350	0.400
-687.339	800.000	0.070	-0.254
-686.324	-200.000	0.001	0.246
-685.310	-119.361	0.207	-0.046
-684.295	-66.395	-0.376	-0.190
-683.281	19.080	-0.180	0.185
-682.266	-131.309	-0.652	0.109
-681.251	-170.183	-0.357	-0.016
-680.237	-131.481	-0.139	0.023
-679.222	32.397	-0.037	-0.041
-678.208	-62.007	-0.226	0.120
-677.193	-200.000	-0.003	0.302
-676.178	133.045	0.154	0.254
-675.164	84.176	-0.255	-0.356
-674.149	-168.349	-0.281	0.014
-673.135	-72.630	0.254	-0.119
-672.120	-161.192	-0.341	-0.022
-671.105	800.000	0.100	0.388
-670.091	-17.911	-0.212	-0.169
-669.076	107.857	0.239	-0.364
-668.062	-123.148	-0.211	-0.043
-667.047	-71.310	0.097	-0.046
-666.032	-28.733	-0.096	0.070
-665.018	155.804	-0.194	-0.342
-664.003	-200.000	-0.006	0.081
-662.989	800.000	-0.014	0.062
-661.974	-11.297	0.172	0.144
-660.959	-118.128	-0.121	-0.027
-659.945	-49.863	-0.088	-0.053
-658.930	-54.735	-0.117	-0.067
-657.916	-150.943	-0.517	-0.049
-656.901	-20.506	-0.534	-0.418
-655.886	-28.150	-0.211	0.155
-654.872	-28.860	-0.050	-0.037
-653.857	123.854	0.043	0.069
-652.843	-200.000	0.045	-0.340
-651.828	-66.357	-0.169	-0.085
-650.814	297.115	0.025	0.059
-649.799	-112.789	0.411	-0.103
-648.784	-57.928	0.174	0.097
-647.770	692.389	-0.076	-0.255
-646.755	-200.000	0.023	-0.292
-645.741	14.023	-0.103	0.102
-644.726	114.378	0.154	-0.240
-643.711	-109.359	-0.050	-0.013
-642.697	53.294	-0.026	-0.032
-641.682	-108.953	-0.327	0.088
-640.668	-187.280	-0.276	-0.005
-639.653	800.000	-0.194	-0.693
-638.638	-77.810	-0.072	-0.031
-637.624	-126.543	-0.131	0.025
-636.609	448.323	0.094	0.265
-635.595	-118.096	-0.571	-0.129
-634.580	-154.244	-0.373	-0.032
-633.565	633.591	0.116	0.378
-632.551	-124.937	0.292	-0.057
-631.536	-132.292	0.374	0.061
-630.522	-70.971	-0.604	0.289
-629.507	-132.859	0.077	0.012
-628.492	749.211	-0.020	0.071
-627.478	-52.925	0.071	-0.042
-626.463	-191.331	-0.386	0.005
-625.449	-182.094	0.263	0.006
-624.434	-198.152	0.685	-0.005
-623.419	-115.520	-0.084	-0.020
-622.405	-64.024	0.302	-0.156
-621.390	-200.000	0.006	-0.039
-620.376	30.762	0.140	0.152
-619.361	-8.436	0.248	-0.212
-618.346	-56.087	-0.419	0.237
-617.332	-49.379	-0.167	-0.101
-616.317	-28.364	-0.268	0.196
-615.303	-200.000	0.014	0.242
-614.288	717.330	0.092	0.312
-613.273	-130.239	-0.708	0.121
-612.259	-0.002	-0.539	-0.488
-611.244	-92.890	0.023	-0.008
-610.230	-200.000	0.005	-0.278
-609.215	800.000	-0.034	0.170
-608.201	241.937	-0.047	-0.100
-607.186	-112.837	0.317	0.079
-606.171	-143.279	-0.328	0.040
-605.157	800.000	0.074	-0.300
-604.142	195.070	0.065	-0.127
-603.128	800.000	0.096	-0.369
-602.113	-20.864	-0.209	-0.163
-601.098	-123.850	-0.429	-0.085
-600.084	-200.000	-0.018	0.309
-599.069	283.792	0.145	-0.333
-598.055	-115.350	-0.277	-0.066
-597.040	368.450	0.099	0.257
-596.025	36.255	-0.233	0.262
-595.011	-89.002	0.201	-0.075
-593.996	-63.376	-0.477	0.249
-592.982	200.022	0.226	0.443
-591.967	-109.974	-0.358	0.095
-590.952	800.000	-0.101	0.449
-589.938	28.536	-0.202	0.217
-588.923	-54.804	-0.276	-0.158
-587.909	-26.235	-0.362	0.270
-586.894	263.546	0.121	0.267
-585.879	800.000	-0.074	-0.380
-584.865	-89.577	-0.208	-0.077
-583.850	-200.000	0.544	0.001
-582.836	43.761	-0.247	-0.287
-581.821	-133.439	0.363	-0.057
-580.806	-55.279	-0.353	-0.201
-579.792	293.927	-0.125	0.291
-578.777	344.451	-0.184	0.460
-577.763	-65.131	-0.321	-0.164
-576.748	-200.000	-0.033	-0.332
-575.733	51.787	-0.216	0.262
-574.719	405.642	0.041	0.109
-573.704	-3.792	0.268	-0.236
-572.690	-136.874	-0.808	0.117
-571.675	211.086	0.314	-0.630
-570.661	8.792	-0.086	0.082
-569.646	81.205	0.089	0.122
-568.631	800.000	0.054	0.196
-567.617	-139.108	0.123	0.017
-566.602	-124.352	0.229	0.045
-565.588	-64.138	0.504	-0.260
-564.573	-61.379	-0.287	-0.153
-563.558	-200.000	-0.050	-0.629
-562.544	-200.000	0.093	-0.609
-561.529	3.914	-0.145	0.134
-560.515	-200.000	0.024	0.147
-559.500	285.271	0.034	-0.078
-558.485	-151.727	-0.619	0.057
-557.471	-31.877	0.342	0.243
-556.456	-175.339	0.123	0.004
-555.442	153.102	0.324	-0.564
-554.427	-28.495	0.153	-0.111
-553.412	-52.834	-0.290	-0.169
-552.398	733.614	0.107	0.365
-551.383	-107.893	0.386	-0.106
-550.369	-22.381	0.203	-0.156
-549.354	441.642	0.200	0.558
-548.339	-69.570	0.288	0.139
-547.325	1.661	0.018	-0.016
-546.310	-88.844	-0.213	-0.080
-545.296	21.266	-0.366	-0.377
-544.281	7.023	-0.234	0.221
-543.266	488.678	0.198	-0.577
-542.252	148.184	0.179	-0.308
-541.237	-28.491	-0.248	-0.181
-540.223	64.641	0.379	0.485
-539.208	-133.108	-0.412	0.066
-538.193	153.870	-0.038	-0.067
-537.179	-58.893	0.380	-0.208
-536.164	-43.611	-0.045	0.029
-535.150	-200.000	-0.049	-0.386
-534.135	61.052	-0.235	-0.296
-533.121	-130.018	0.295	-0.051
-532.106	800.000	0.033	-0.142
-531.091	224.589	-0.375	-0.772
-530.077	-158.591	0.372	0.027
-529.062	117.455	0.189	-0.295
-528.048	-25.638	0.153	0.114
-527.033	-101.671	-0.083	-0.025
-526.018	176.517	0.119	-0.220
-525.004	-34.100	0.293	0.204
-523.989	-86.187	0.401	-0.156
-522.975	-62.614	0.108	0.057
-521.960	61.038	0.565	-0.712
-520.945	-200.000	-0.018	-0.212
-519.931	-15.035	0.210	-0.170
-518.916	18.628	-0.022	-0.023
-517.902	800.000	0.140	-0.728
-516.887	-200.000	0.000	-0.334
-515.872	800.000	-0.059	-0.300
-514.858	-200.000	-0.032	0.348
-513.843	25.593	-0.341	0.360
-512.829	0.846	-0.489	0.444
-511.814	-40.521	-0.514	0.338
-510.799	-127.550	-0.216	0.039
-509.785	-85.033	0.602	0.238
-508.770	-3.119	0.122	-0.107
-507.756	-145.683	-0.707	0.079
-506.741	-146.773	-0.180	-0.019
-505.726	22.843	-0.364	0.378
-504.712	79.487	-0.201	0.274
-503.697	311.001	0.120	-0.287
-502.683	240.851	-0.149	0.316
-501.668	-39.371	0.191	-0.127
-500.653	-122.565	-0.342	0.070
-499.639	101.957	-0.273	0.404
-498.624	7.555	-0.130	0.123
-497.610	68.493	0.107	-0.139
-496.595	-200.000	-0.016	0.271
-495.581	132.496	0.091	0.149
-494.566	190.177	0.223	0.426
-493.551	-200.000	-0.007	0.082
-492.537	800.000	-0.055	-0.308
-491.522	536.057	-0.127	0.385
-490.508	131.298	0.071	0.116
-489.493	179.721	-0.118	0.220
-488.478	300.639	-0.126	0.296
-487.464	502.483	0.027	-0.080
-486.449	-2.368	0.240	0.213
-485.435	81.280	0.177	0.243
-484.420	-194.791	0.210	-0.002
-483.405	-62.707	-0.467	-0.244
-482.391	-34.930	-0.078	0.054
-481.376	-151.296	0.442	-0.041
-480.362	78.227	0.176	0.239
-479.347	38.023	0.095	0.107
-478.332	-91.281	0.375	-0.135
-477.318	800.000	0.105	-0.438
-476.303	-32.866	0.382	-0.268
-475.289	-94.534	0.644	0.221
-474.274	800.000	0.079	0.364
-473.259	213.100	-0.152	0.304
-472.245	-121.367	-0.368	0.077
-471.230	-158.801	-0.100	-0.007
-470.216	104.969	-0.199	0.297
-469.201	176.188	-0.046	0.086
-468.186	593.436	0.092	-0.288
-467.172	-53.237	0.250	0.145
-466.157	800.000	0.059	0.213
-465.143	-137.601	0.210	-0.030
-464.128	-81.224	0.214	-0.089
-463.113	-37.291	0.331	0.223
-462.099	94.437	-0.223	-0.321
-461.084	-26.830	-0.386	0.285
-460.070	-189.228	-0.120	0.002
-459.055	250.308	-0.224	0.483
-458.040	-114.273	-0.261	-0.063
-457.026	-134.293	-0.652	0.100
-456.011	-200.000	0.006	-0.346
-454.997	355.578	0.109	0.275
-453.982	-200.000	0.007	-0.338
-452.968	-122.526	-0.209	0.043
-451.953	73.935	0.242	0.322
-450.938	-96.192	0.383	-0.128
-449.924	-71.970	-0.155	-0.073
-448.909	-37.206	0.168	0.114
-447.895	-165.998	0.216	0.011
-446.880	-30.740	-0.360	0.257
-445.865	800.000	-0.094	0.345
-444.851	2.137	0.327	-0.298
-443.836	561.491	-0.088	-0.270
-442.822	78.862	-0.311	0.421
-441.807	90.273	0.063	0.089
-440.792	-112.119	0.375	-0.095
-439.778	-124.667	0.329	-0.064
-438.763	-178.722	0.694	0.020
-437.749	800.000	-0.136	0.535
-436.734	-128.770	-0.486	0.086
-435.719	191.276	-0.093	0.178
-434.705	-96.919	-0.052	-0.017
-433.690	364.613	-0.185	0.473
-432.676	390.753	0.275	0.724
-431.661	-200.000	0.061	0.398
-430.646	20.734	-0.112	-0.114
-429.632	-120.711	-0.375	-0.079
-428.617	-200.000	-0.060	-0.361
-427.603	-200.000	0.013	-0.168
-426.588	-200.000	-0.007	-0.074
-425.573	66.988	0.332	0.427
-424.559	-60.056	-0.227	-0.122
-423.544	-39.580	-0.076	0.050
-422.530	108.733	-0.099	0.150
-421.515	-200.000	0.020	0.686
-420.500	-120.219	-0.592	-0.127
-419.486	78.475	-0.206	-0.278
-418.471	-200.000	0.060	-0.438
-417.457	69.867	0.068	-0.088
-416.442	66.806	0.067	-0.086
-415.428	-94.770	-0.436	0.148
-414.413	-200.000	-0.021	0.204
-413.398	-200.000	0.024	-0.135
-412.384	25.951	-0.201	-0.212
-411.369	142.397	0.186	-0.313
-410.355	-42.279	0.171	0.110
-409.340	-180.291	0.392	0.010
-408.325	-72.713	-0.211	-0.098
-407.311	-117.426	-0.432	-0.098
-406.296	800.000	-0.031	-0.148
-405.282	-149.693	-0.347	0.034
-404.267	-145.674	0.209	0.023
-403.252	233.486	-0.201	-0.420
-402.238	-101.344	0.068	-0.021
-401.223	-200.000	-0.058	-0.536
-400.209	-200.000	-0.007	0.426
-399.194	11.047	0.282	-0.272
-398.179	194.565	-0.052	0.100
-397.165	-118.075	0.566	0.126
-396.150	-134.399	0.441	-0.068
-395.136	276.416	0.180	-0.405
-394.121	104.699	0.192	0.286
-393.106	-118.141	0.077	0.017
-392.092	-96.381	-0.195	-0.065
-391.077	17.711	0.276	-0.277
-390.063	99.303	0.244	0.356
-389.048	-103.586	0.564	0.166
-388.033	-182.271	0.283	0.007
-387.019	-90.895	0.237	0.085
-386.004	101.479	0.063	-0.092
-384.990	-15.064	0.212	-0.171
-383.975	-170.685	0.128	-0.006
-382.960	-144.167	-0.274	-0.032
-381.946	-200.000	0.027	-0.257
-380.931	34.855	0.273	-0.302
-379.917	-75.867	-0.114	0.051
-378.902	-86.233	0.023	0.009
-377.888	-200.000	-0.335	-0.001
-376.873	-92.512	-0.395	0.139
-375.858	23.806	0.470	-0.488
-374.844	562.350	-0.098	0.299
-373.829	17.614	0.117	0.118
-372.815	102.303	0.240	0.355
-371.800	-67.774	-0.425	-0.209
-370.785	-142.913	0.216	-0.026
-369.771	477.085	0.048	0.138
-368.756	-102.971	-0.336	-0.100
-367.742	426.215	0.076	-0.207
-366.727	-200.000	-0.050	-0.418
-365.712	60.198	-0.167	-0.208
-364.698	305.019	0.087	-0.203
-363.683	13.526	0.275	0.269
-362.669	436.223	0.028	-0.077
-361.654	-113.403	0.424	-0.104
-360.639	-200.000	-0.159	0.000
-359.625	-42.631	-0.309	-0.198
-358.610	90.331	-0.369	0.520
-357.596	-56.033	0.145	-0.081
-356.581	-200.000	-0.050	-0.406
-355.566	7.684	0.257	-0.242
-354.552	-110.833	0.164	-0.042
-353.537	-41.810	0.192	0.123
-352.523	800.000	0.182	0.672
-351.508	-200.000	0.045	0.412
-350.493	800.000	-0.112	0.527
-349.479	156.286	0.252	0.439
-348.464	-200.000	-0.012	-0.227
-347.450	-112.637	0.278	0.069
-346.435	800.000	0.053	-0.197
-345.420	-37.787	-0.298	0.199
-344.406	204.075	0.089	0.175
-343.391	-30.375	0.379	-0.270
-342.377	167.386	-0.045	0.080
-341.362	-82.886	0.416	-0.168
-340.348	471.848	-0.200	0.571
-339.333	-200.000	-0.013	0.345
-338.318	-133.941	-0.340	0.052
-337.304	800.000	0.050	-0.268
-336.289	-200.000	0.021	-0.440
-335.275	800.000	-0.103	-0.418
-334.260	-71.995	0.196	-0.091
-333.245	-102.221	-0.306	-0.092
-332.231	-96.910	-0.581	-0.191
-331.216	-85.752	-0.294	-0.114
-330.202	288.642	0.011	0.025
-329.187	148.821	0.030	0.052
-328.172	98.170	0.200	0.291
-327.158	112.949	0.094	-0.143
-326.143	-118.738	0.109	-0.024
-325.129	32.333	-0.119	-0.129
-324.114	-106.086	-0.332	0.093
-323.099	-55.181	-0.227	0.128
-322.085	-200.000	-0.023	-0.179
-321.070	159.565	-0.181	0.317
-320.056	-53.569	-0.526	-0.302
-319.041	-60.103	-0.260	-0.139
-318.026	-62.053	0.545	0.285
-317.012	800.000	-0.030	-0.144
-315.997	-83.236	-0.468	0.188
-314.983	207.669	0.155	0.306
-313.968	32.289	-0.077	-0.083
-312.953	-200.000	-0.043	-0.615
-311.939	-200.000	-0.008	-0.349
-310.924	-73.707	0.510	-0.233
-309.910	-200.000	0.004	-0.296
-308.895	-104.141	-0.513	-0.149
-307.880	88.330	-0.202	-0.282
-306.866	-99.662	-0.305	0.095
-305.851	-200.000	-0.041	0.241
-304.837	230.445	0.035	-0.071
-303.822	-200.000	-0.020	-0.528
-302.807	-193.879	-0.362	0.004
-301.793	-200.000	0.033	0.678
-300.778	-96.940	-0.089	0.029
-299.764	800.000	0.042	0.222
-298.749	-0.237	-0.229	-0.204
-297.735	-161.567	0.344	0.022
-296.720	145.591	0.331	-0.559
-295.705	800.000	-0.160	-0.593
-294.691	3.430	-0.192	0.176
-293.676	-10.568	-0.181	-0.151
-292.662	800.000	-0.007	0.025
-291.647	800.000	0.063	-0.290
-290.632	-200.000	0.051	-0.316
-289.618	37.916	-0.086	0.096
-288.603	69.596	-0.041	-0.054
-287.589	-200.000	0.021	0.602
-286.574	-21.170	-0.292	0.224
-285.559	-200.000	-0.034	-0.467
-284.545	-170.602	0.036	-0.002
-283.530	-200.000	-0.001	-0.025
-282.516	97.512	0.174	-0.251
-281.501	-94.593	-0.364	0.124
-280.486	67.275	0.336	0.430
-279.472	-200.000	0.003	0.174
-278.457	314.367	-0.043	-0.103
-277.443	-200.000	-0.021	0.549
-276.428	-103.509	0.250	0.073
-275.413	44.889	0.121	0.140
-274.399	231.638	0.111	0.230
-273.384	54.347	-0.298	0.360
-272.370	545.243	0.084	0.253
-271.355	-98.789	0.148	0.047
-270.340	-30.084	-0.140	-0.100
-269.326	47.602	0.193	0.226
-268.311	81.999	-0.091	-0.124
-267.297	-168.406	0.237	-0.011
-266.282	655.293	-0.109	-0.352
-265.267	-111.098	0.408	0.104
-264.253	-129.433	0.383	-0.066
-263.238	-142.075	-0.042	-0.005
-262.224	-105.164	0.257	0.073
-261.209	800.000	-0.082	-0.410
-260.195	-42.924	-0.294	0.187
-259.180	-20.346	0.057	0.044
-258.165	9.211	0.049	-0.047
-257.151	11.285	0.235	0.226
-256.136	149.307	0.132	-0.225
-255.122	-167.927	0.297	-0.014
-254.107	-175.634	-0.779	0.026
-253.092	-7.655	-0.263	0.222
-252.078	57.342	0.415	0.508
-251.063	-71.234	0.167	-0.078
-250.049	-149.809	0.165	0.016
-249.034	-200.000	-0.039	0.800
-248.019	-200.000	-0.086	0.498
-247.005	-99.206	-0.101	-0.032
-245.990	-88.138	0.269	0.101
-244.976	-200.000	0.033	-0.240
-243.961	-185.079	0.322	0.006
-242.946	-141.041	0.372	0.047
-241.932	-200.000	0.015	0.569
-240.917	56.891	0.216	-0.264
-239.903	-200.000	0.038	-0.256
-238.888	-89.924	0.189	0.069
-237.873	-200.000	-0.009	-0.119
-236.859	-144.925	0.476	-0.054
-235.844	-71.792	-0.313	0.146
-234.830	-165.017	0.124	-0.007
-233.815	-110.900	-0.247	-0.063
-232.800	-200.000	-0.005	-0.213
-231.786	-158.084	0.772	-0.056
-230.771	668.424	0.014	0.047
-229.757	70.058	-0.211	-0.273
-228.742	-119.569	-0.386	-0.083
-227.727	685.182	0.016	-0.053
-226.713	-200.000	-0.005	0.091
-225.698	11.135	0.239	-0.229
-224.684	-59.821	-0.227	0.121
-223.669	-200.000	0.007	0.293
-222.655	435.361	-0.116	0.317
-221.640	-78.762	-0.273	-0.116
-220.625	-107.401	-0.515	0.141
-219.611	-110.413	0.267	0.069
-218.596	20.231	0.139	-0.141
-217.582	120.901	-0.113	0.176
-216.567	608.956	0.153	0.481
-215.552	199.974	-0.073	0.141
-214.538	-200.000	0.037	0.216
-213.523	82.606	0.150	0.205
-212.509	395.848	0.231	-0.608
-211.494	-17.079	-0.512	-0.404
-210.479	-51.670	-0.301	0.176
-209.465	342.126	-0.144	0.354
-208.450	-200.000	0.006	-0.150
-207.436	185.600	-0.178	-0.331
-206.421	-65.055	0.452	-0.228
-205.406	-130.082	0.563	-0.095
-204.392	33.995	0.174	0.190
-203.377	800.000	-0.011	0.058
-202.363	-137.482	0.183	-0.026
-201.348	49.558	-0.273	0.322
-200.333	800.000	-0.095	0.411
-199.319	118.965	0.085	0.131
-198.304	108.417	0.177	0.265
-197.290	800.000	-0.081	-0.306
-196.275	71.931	0.183	-0.238
-195.260	132.453	0.259	-0.418
-194.246	713.862	-0.066	-0.220
-193.231	110.667	0.239	0.361
-192.217	17.908	0.096	0.095
-191.202	40.459	-0.227	-0.256
-190.187	-200.000	0.101	-0.586
-189.173	-109.286	-0.443	-0.117
-188.158	158.969	0.113	0.198
-187.144	-42.165	-0.153	0.097
-186.129	800.000	-0.156	-0.612
-185.114	133.955	0.241	-0.392
-184.100	-158.994	0.370	-0.026
-183.085	117.531	-0.093	-0.144
-182.071	-200.000	0.058	-0.355
-181.056	53.664	0.139	0.167
-180.042	353.162	0.068	0.169
-179.027	-177.336	-0.432	0.013
-178.012	681.546	0.066	0.217
-176.998	-116.859	-0.292	-0.066
-175.983	-124.158	0.177	-0.034
-174.969	-200.000	0.020	-0.175
-173.954	-200.000	-0.009	-0.097
-172.939	467.832	0.090	0.254
-171.925	-30.456	0.193	0.137
-170.910	-28.013	-0.032	0.023
-169.896	390.762	0.235	0.613
-168.881	-200.000	0.034	-0.477
-167.866	-118.935	-0.174	-0.038
-166.852	70.029	0.169	0.218
-165.837	-33.575	0.179	0.124
-164.823	800.000	0.173	0.610
-163.808	800.000	-0.119	-0.461
-162.793	-81.841	0.067	-0.027
-161.779	3.606	0.156	0.142
-160.764	-133.290	0.296	0.046
-159.750	310.901	0.061	-0.144
-158.735	102.004	0.061	-0.089
-157.720	212.492	0.081	-0.161
-156.706	-46.379	-0.318	-0.195
-155.691	40.839	-0.255	-0.287
-154.677	-181.998	-0.308	-0.007
-153.662	-79.411	0.111	0.047
-152.647	-36.887	0.168	0.113
-151.633	-116.944	-0.451	0.102
-150.618	-15.003	-0.199	0.159
-149.604	-94.782	-0.413	0.139
-148.589	-118.123	0.035	0.008
-147.574	-200.000	-0.034	-0.460
-146.560	-107.602	0.115	-0.031
-145.545	800.000	-0.035	0.184
-144.531	-103.314	0.242	-0.071
-143.516	428.341	0.037	0.101
-142.502	-200.000	0.007	-0.059
-141.487	-122.139	-0.331	0.067
-140.472	153.123	0.112	-0.192
-139.458	65.576	0.281	-0.356
-138.443	-26.072	0.063	0.046
-137.429	-97.103	-0.559	0.182
-136.414	-61.399	0.179	0.094
-135.399	30.281	-0.183	-0.195
-134.385	121.590	-0.252	-0.393
-133.370	-200.000	0.023	-0.154
-132.356	283.176	-0.080	0.181
-131.341	234.017	-0.165	0.340
-130.326	128.103	0.293	0.466
-129.312	4.553	0.392	0.359
-128.297	-32.074	-0.224	-0.156
-127.283	-78.883	0.520	-0.220
-126.268	91.631	0.173	-0.243
-125.253	-200.000	-0.043	0.367
-124.239	-17.217	0.098	0.077
-123.224	285.605	0.178	0.402
-122.210	-200.000	-0.046	0.273
-121.195	-106.474	0.228	-0.063
-120.180	-0.352	-0.397	0.352
-119.166	41.551	-0.188	0.213
-118.151	-200.000	0.049	0.286
-117.137	-21.309	-0.182	-0.139
-116.122	800.000	0.020	0.081
-115.107	-60.523	-0.506	0.267
-114.093	48.275	0.325	0.380
-113.078	566.997	-0.062	-0.188
-112.064	-114.916	0.352	0.083
-111.049	-69.259	0.309	0.148
-110.034	5.455	-0.282	-0.260
-109.020	-19.939	0.451	-0.347
-108.005	-87.938	0.312	-0.117
-106.991	-106.339	0.559	0.155
-105.976	-29.076	0.336	0.240
-104.962	-126.771	-0.464	-0.085
-103.947	-200.000	-0.058	0.326
-102.932	-200.000	0.011	-0.138
-101.918	-17.395	-0.273	-0.214
-100.903	38.579	-0.231	0.257
-99.889	-66.455	0.456	-0.225
-98.874	-72.256	-0.213	0.098
-97.859	-149.925	-0.513	0.049
-96.845	-86.852	0.278	0.105
-95.830	188.992	-0.025	0.047
-94.816	-30.616	-0.303	0.214
-93.801	40.782	-0.063	0.071
-92.786	278.733	0.039	0.088
-91.772	800.000	0.138	0.679
-90.757	-57.489	-0.048	-0.026
-89.743	-120.072	0.116	0.025
-88.728	-64.973	-0.236	-0.119
-87.713	-132.290	-0.434	0.069
-86.699	-200.000	0.030	0.345
-85.684	44.481	0.133	-0.152
-84.670	45.978	0.143	0.165
-83.655	34.991	-0.158	0.172
-82.640	464.139	-0.306	-0.858
-81.626	-10.881	-0.432	-0.356
-80.611	-92.460	-0.516	0.180
-79.597	-118.998	-0.581	0.126
-78.582	-83.715	-0.357	0.141
-77.567	330.399	-0.210	0.505
-76.553	-104.910	0.386	0.109
-75.538	-0.176	-0.073	0.064
-74.524	74.989	0.052	0.068
-73.509	-200.000	0.035	-0.335
-72.494	-131.130	-0.373	-0.061
-71.480	28.368	-0.223	-0.235
-70.465	-200.000	0.022	-0.311
-69.451	-200.000	0.030	0.241
-68.436	-200.000	-0.002	-0.074
-67.422	-200.000	-0.056	0.416
-66.407	-103.310	-0.387	0.113
-65.392	-117.148	-0.335	0.075
-64.378	323.646	0.056	0.134
-63.363	292.163	0.134	0.306
-62.349	-200.000	0.040	-0.409
-61.334	-60.274	-1.078	-0.570
-60.319	464.036	0.387	1.083
-59.305	281.169	-2.384	-5.334
-58.290	-39.428	3.349	2.181
-57.276	385.667	4.032	10.405
-56.261	-200.000	13.112	198.594
-55.246	487.441	1134.005	3238.338
-54.232	66.757	2783.355	3529.986
-53.217	73.189	2707.778	3528.864
-52.203	57.885	2435.000	2968.861
-51.188	47.921	2079.687	2419.707
-50.173	40.978	1945.381	2186.956
-49.159	38.924	1934.894	2152.468
-48.144	38.672	1930.772	2145.032
-47.130	38.593	1928.152	2141.162
-46.115	38.494	1926.695	2138.380
-45.100	38.463	1925.150	2136.240
-44.086	38.367	1924.518	2134.398
-43.071	38.461	1922.227	2132.798
-42.057	38.407	1920.481	2130.189
-41.042	38.414	1919.385	2128.961
-40.027	38.370	1917.888	2126.739
-39.013	38.462	1916.515	2126.133
-37.998	38.345	1915.264	2123.391
-36.984	38.393	1913.848	2122.252
-35.969	38.106	1913.690	2118.863
-34.954	38.228	1911.999	2118.241
-33.940	38.250	1911.022	2117.314
-32.925	38.253	1908.465	2114.428
-31.911	38.362	1907.576	2114.541
-30.896	38.226	1906.811	2112.137
-29.881	38.199	1904.696	2109.411
-28.867	38.171	1904.315	2108.601
-27.852	38.213	1901.925	2106.326
-26.838	38.109	1901.101	2104.211
-25.823	38.177	1899.465	2103.055
-24.809	38.076	1898.705	2101.029
-23.794	38.056	1897.859	2099.793
-22.779	38.109	1896.222	2098.473
-21.765	38.203	1893.792	2096.719
-20.750	38.146	1893.225	2095.386
-19.736	37.927	1893.316	2093.048
-18.721	38.016	1891.153	2091.533
-17.706	37.867	1890.246	2088.843
-16.692	37.967	1888.003	2087.354
-15.677	38.105	1887.429	2088.115
-14.663	37.914	1886.082	2084.495
-13.648	38.095	1884.324	2084.409
-12.633	37.864	1883.699	2081.160
-11.619	37.972	1882.322	2080.715
-10.604	37.916	1880.963	2078.528
-9.590	37.882	1880.050	2077.076
-8.575	38.070	1878.278	2077.045
-7.560	38.036	1877.348	2075.570
-6.546	37.838	1876.444	2072.371
-5.531	37.866	1875.379	2071.415
-4.517	37.850	1874.484	2070.172
-3.502	37.843	1873.524	2068.951
-2.487	37.948	1872.565	2068.935
-1.473	37.972	1869.036	2065.206
-0.458	37.574	1847.339	2036.963
0.556	32.420	1973.254	2105.301
1.571	30.514	2186.613	2308.880
2.586	32.177	2234.369	2380.222
3.600	32.263	2237.376	2384.239
4.615	32.420	2238.426	2387.084
5.629	32.237	2235.307	2381.134
6.644	32.359	2232.210	2379.106
7.659	32.438	2231.752	2379.336
8.673	32.817	2231.612	2383.711
9.688	32.188	2234.239	2378.231
10.702	28.453	2300.488	2399.432
11.717	24.750	2364.155	2415.373
12.731	12.791	2333.817	2222.856
13.746	2.147	2303.828	2050.935
14.761	0.499	2299.154	2024.319
15.775	0.390	2297.599	2021.234
16.790	0.303	2294.925	2017.473
17.804	0.267	2294.171	2016.091
18.819	0.311	2292.838	2015.259
19.834	0.282	2291.143	2013.149
20.848	0.210	2290.665	2011.520
21.863	0.241	2288.919	2010.162
22.877	0.285	2286.699	2008.551
23.892	0.150	2284.518	2004.598
24.907	0.289	2281.971	2003.975
25.921	0.211	2280.892	2001.748
26.936	0.227	2277.918	1999.109
27.950	0.232	2275.630	1996.924
28.965	0.263	2273.079	1994.870
29.980	0.225	2272.319	1993.450
30.994	0.333	2270.947	1993.443
32.009	6.614	2291.278	2095.104
33.023	21.316	2334.968	2333.552
34.038	28.206	2348.998	2439.968
35.053	29.236	2349.189	2453.671
36.067	29.391	2346.470	2452.608
37.082	29.221	2344.125	2447.595
38.096	29.144	2342.378	2444.450
39.111	29.482	2341.397	2447.643
40.126	29.940	2340.469	2452.480
41.140	30.429	2339.094	2457.244
42.155	30.006	2337.098	2449.232
43.169	29.837	2335.648	2445.177
44.184	30.054	2333.162	2445.158
45.199	29.949	2331.073	2441.285
46.213	30.045	2329.574	2440.701
47.228	29.950	2328.426	2437.942
48.242	29.871	2326.035	2434.102
49.257	29.978	2324.661	2433.787
50.271	30.392	2322.639	2436.846
51.286	30.342	2319.879	2433.006
52.301	29.907	2318.215	2425.242
53.315	29.839	2319.337	2425.227
54.330	30.959	2320.933	2441.365
55.344	31.427	2318.348	2444.497
56.359	31.689	2314.884	2443.986
57.374	31.430	2312.505	2437.800
58.388	31.170	2309.478	2430.902
59.403	31.243	2307.093	2429.058
60.417	31.519	2304.021	2429.141
61.432	31.831	2303.516	2432.386
62.447	31.569	2301.356	2426.396
63.461	31.425	2297.889	2420.583
64.476	31.181	2295.925	2415.055
65.490	31.706	2296.758	2422.459
66.505	31.878	2295.185	2422.742
67.520	30.854	2290.265	2403.982
68.534	29.000	2282.711	2371.777
69.549	28.385	2278.427	2359.077
70.563	28.364	2275.417	2355.418
71.578	28.516	2273.761	2355.384
72.593	28.843	2272.786	2358.305
73.607	29.331	2272.553	2364.073
74.622	29.157	2271.312	2360.256
75.636	28.963	2267.467	2353.487
76.651	28.894	2265.607	2350.391
77.666	28.893	2264.056	2348.485
78.680	28.867	2260.859	2344.545
79.695	28.961	2259.317	2343.878
80.709	28.889	2258.204	2341.516
81.724	28.779	2256.835	2338.408
82.739	28.924	2253.765	2336.802
83.753	29.055	2252.674	2337.069
84.768	28.985	2250.250	2333.381
85.782	28.802	2249.092	2329.562
86.797	28.745	2247.409	2326.816
87.812	28.746	2244.437	2323.477
88.826	28.559	2243.138	2319.480
89.841	28.788	2240.859	2319.747
90.855	28.961	2239.562	2320.316
91.870	28.661	2237.415	2314.021
92.884	28.536	2235.116	2309.780
93.899	28.748	2235.358	2312.444
94.914	28.903	2236.433	2315.242
95.928	29.791	2238.211	2328.039
96.943	30.162	2236.376	2330.542
97.957	29.465	2231.167	2316.046
98.972	28.720	2226.893	2301.949
99.987	28.308	2223.617	2293.108
101.001	28.348	2220.902	2290.535
102.016	28.514	2218.479	2289.844
103.030	28.559	2217.224	2288.839
104.045	29.029	2215.546	2292.719
105.060	29.167	2214.324	2292.903
106.074	29.097	2212.134	2289.490
107.089	28.837	2210.340	2284.115
108.103	28.758	2209.825	2282.314
109.118	29.085	2207.546	2283.777
110.133	29.013	2205.887	2280.889
111.147	28.691	2203.920	2274.566
112.162	28.576	2202.416	2271.315
113.176	28.872	2199.587	2271.800
114.191	28.987	2198.575	2271.912
115.206	28.854	2197.112	2268.476
116.220	28.944	2194.602	2266.728
117.235	28.639	2191.976	2259.976
118.249	28.699	2190.630	2259.059
119.264	28.845	2188.581	2258.476
120.279	28.884	2186.921	2256.978
121.293	28.751	2185.088	2253.175
122.308	28.656	2182.803	2249.372
123.322	28.427	2182.597	2246.075
124.337	28.408	2181.903	2244.860
125.352	29.850	2186.915	2267.529
126.366	30.889	2186.693	2279.812
127.381	29.522	2178.894	2254.638
128.395	28.783	2174.325	2240.589
129.410	28.855	2171.985	2238.790
130.424	28.746	2170.728	2235.886
131.439	28.751	2168.932	2233.834
132.454	28.693	2167.000	2230.870
133.468	28.848	2164.936	2230.369
134.483	29.130	2163.145	2231.690
135.497	28.999	2162.639	2229.313
136.512	29.295	2161.695	2231.666
137.527	29.207	2159.023	2227.583
138.541	28.715	2157.505	2219.766
139.556	28.531	2156.426	2216.162
140.570	28.585	2155.045	2215.126
141.585	28.642	2152.531	2212.967
142.600	28.778	2151.606	2213.396
143.614	28.823	2150.168	2212.200
144.629	29.016	2148.576	2212.634
145.643	28.940	2146.459	2209.272
146.658	28.827	2144.752	2205.888
147.673	28.499	2141.707	2198.536
148.687	28.653	2141.032	2199.432
149.702	28.802	2140.924	2200.857
150.716	28.828	2139.112	2199.038
151.731	28.936	2138.648	2199.597
152.746	29.231	2136.864	2201.043
153.760	29.084	2136.891	2199.041
154.775	29.663	2138.726	2207.620
155.789	30.046	2137.023	2210.200
156.804	29.085	2131.034	2192.235
157.819	28.399	2125.777	2178.381
158.833	28.405	2124.548	2176.927
159.848	28.818	2122.231	2179.222
160.862	29.101	2121.734	2181.813
161.877	29.321	2121.890	2184.335
162.892	29.559	2120.967	2185.953
163.906	29.784	2120.128	2187.509
164.921	29.751	2117.458	2184.095
165.935	29.693	2114.937	2180.549
166.950	29.488	2113.151	2176.016
167.964	29.150	2110.335	2168.854
168.979	28.837	2108.357	2162.862
169.994	28.988	2106.910	2162.910
171.008	28.960	2105.661	2161.033
172.023	28.825	2103.932	2157.402
173.037	29.021	2103.584	2159.104
174.052	29.180	2102.027	2159.118
175.067	28.925	2100.525	2154.321
176.081	28.681	2098.823	2149.437
177.096	28.792	2098.070	2149.721
178.110	28.653	2095.592	2145.296
179.125	28.597	2093.679	2142.418
180.140	28.844	2092.621	2143.980
181.154	28.848	2091.967	2143.096
182.169	28.996	2090.630	2143.199
183.183	29.164	2091.282	2145.577
184.198	30.566	2093.120	2163.629
185.213	30.464	2090.132	2159.092
186.227	29.435	2085.213	2141.743
187.242	28.894	2081.873	2131.758
188.256	28.663	2080.091	2126.985
189.271	28.767	2079.438	2127.272
190.286	28.913	2078.046	2127.301
191.300	28.692	2075.638	2122.004
192.315	28.659	2073.096	2118.774
193.329	29.149	2072.254	2123.335
194.344	29.295	2072.718	2125.249
195.359	29.464	2072.097	2126.315
196.373	29.713	2070.262	2127.068
197.388	29.563	2066.478	2121.189
198.402	29.209	2064.185	2114.499
199.417	29.163	2062.151	2111.628
200.432	29.343	2060.101	2111.348
201.446	29.116	2059.448	2107.821
202.461	28.994	2057.041	2103.695
203.475	28.919	2054.759	2100.258
204.490	28.722	2052.478	2095.415
205.504	28.729	2050.905	2093.636
206.519	28.705	2048.366	2090.517
207.534	28.837	2046.708	2090.079
208.548	28.994	2046.600	2091.513
209.563	28.641	2044.739	2085.332
210.577	28.588	2043.553	2083.276
211.592	29.112	2044.130	2089.593
212.607	29.178	2043.079	2089.020
213.621	28.898	2042.796	2085.289
214.636	28.941	2041.408	2084.104
215.650	28.839	2038.411	2079.645
216.665	28.767	2035.934	2076.050
217.680	29.191	2034.643	2079.296
218.694	29.237	2032.994	2077.875
219.709	29.035	2031.305	2073.622
220.723	29.181	2030.983	2074.690
221.738	29.446	2030.607	2077.057
222.753	29.520	2027.950	2074.931
223.767	29.222	2025.051	2068.351
224.782	28.894	2022.916	2062.227
225.796	28.968	2021.721	2061.596
226.811	29.322	2021.002	2064.598
227.826	29.356	2019.594	2063.302
228.840	29.368	2017.701	2061.247
229.855	29.158	2017.005	2057.936
230.869	28.972	2013.917	2052.449
231.884	28.793	2012.057	2048.311
232.899	28.742	2011.649	2047.069
233.913	29.038	2010.570	2049.046
234.928	29.207	2009.708	2049.808
235.942	29.083	2007.809	2046.246
236.957	28.896	2005.291	2041.344
237.972	28.840	2004.054	2039.215
238.986	28.825	2003.476	2038.221
240.001	28.622	2001.861	2034.065
241.015	28.655	2001.132	2033.455
242.030	29.131	2001.849	2039.243
243.045	30.696	2003.824	2058.431
244.059	31.186	2002.038	2061.783
245.074	29.823	1996.416	2040.651
246.088	29.000	1992.224	2027.007
247.103	28.940	1990.761	2024.617
248.117	28.902	1989.387	2022.555
249.132	28.882	1987.168	2019.837
250.147	28.828	1984.984	2016.777
251.161	28.850	1983.727	2015.507
252.176	28.957	1983.462	2016.169
253.190	28.791	1980.289	2010.875
254.205	28.956	1978.096	2010.223
255.220	29.183	1977.810	2012.189
256.234	29.066	1976.916	2009.755
257.249	28.655	1975.246	2003.304
258.263	28.749	1974.332	2003.165
259.278	29.035	1973.833	2005.560
260.293	29.063	1972.322	2004.092
261.307	28.915	1969.650	1999.511
262.322	29.015	1967.947	1998.643
263.336	28.652	1965.185	1991.633
264.351	28.365	1963.950	1987.019
265.366	28.505	1963.605	1987.958
266.380	28.716	1962.476	1988.874
267.395	28.364	1960.223	1982.524
268.409	28.345	1959.197	1981.044
269.424	28.664	1957.341	1982.391
270.439	28.733	1957.661	1983.229
271.453	29.271	1957.480	1988.648
272.468	30.256	1957.450	1999.047
273.482	30.004	1955.448	1994.039
274.497	29.066	1949.832	1977.950
275.512	28.657	1946.462	1969.880
276.526	28.651	1944.542	1967.636
277.541	28.644	1942.929	1965.695
278.555	28.578	1941.446	1963.250
279.570	28.286	1939.472	1957.877
280.585	28.330	1937.761	1956.389
281.599	28.506	1937.245	1957.529
282.614	28.761	1936.095	1958.867
283.628	29.297	1937.116	1965.406
284.643	29.620	1936.810	1968.323
285.657	29.434	1934.788	1964.040
286.672	29.326	1933.012	1960.843
287.687	29.182	1930.064	1956.086
288.701	28.795	1928.633	1950.277
289.716	28.750	1927.003	1947.910
290.730	29.152	1926.514	1951.467
291.745	29.218	1925.657	1951.069
292.760	29.243	1923.021	1948.431
293.774	28.840	1922.876	1943.762
294.789	29.067	1922.382	1945.444
295.803	29.237	1920.332	1944.940
296.818	28.955	1918.315	1939.676
297.833	29.046	1916.701	1938.780
298.847	29.089	1916.339	1938.633
299.862	29.097	1914.723	1936.857
300.876	29.252	1915.078	1938.622
301.891	30.585	1916.583	1954.004
302.906	30.815	1914.962	1954.543
303.920	29.612	1910.175	1936.751
304.935	29.183	1907.285	1929.077
305.949	29.137	1904.694	1925.749
306.964	29.352	1903.780	1926.847
307.979	29.151	1901.660	1922.358
308.993	28.623	1898.310	1913.218
310.008	28.690	1897.212	1912.585
311.022	29.048	1897.633	1916.526
312.037	29.181	1896.627	1916.675
313.052	29.077	1893.967	1912.664
314.066	28.957	1891.371	1908.565
315.081	29.023	1890.960	1908.608
316.095	29.023	1890.471	1907.885
317.110	28.995	1888.405	1905.278
318.125	28.866	1886.584	1901.876
319.139	28.745	1885.932	1899.732
320.154	28.872	1885.238	1900.130
321.168	28.808	1882.604	1896.576
322.183	28.792	1881.819	1895.400
323.197	29.156	1881.476	1898.598
324.212	29.216	1879.538	1897.037
325.227	28.877	1876.680	1890.415
326.241	28.733	1874.477	1886.485
327.256	28.741	1873.400	1885.258
328.270	28.658	1873.494	1884.274
329.285	28.731	1873.049	1884.349
330.300	29.112	1873.615	1888.626
331.314	29.743	1874.239	1895.536
332.329	30.163	1871.998	1897.363
333.343	29.285	1867.561	1883.619
334.358	28.983	1865.716	1878.435
335.373	29.067	1864.460	1877.811
336.387	29.124	1861.483	1875.174
337.402	28.894	1860.343	1871.447
338.416	28.844	1859.301	1869.666
339.431	28.973	1857.600	1869.044
340.446	29.357	1856.262	1871.390
341.460	29.361	1855.115	1870.053
342.475	29.499	1853.272	1869.370
343.489	29.122	1850.834	1862.857
344.504	28.724	1849.980	1857.728
345.519	28.981	1849.209	1859.341
346.533	29.089	1846.735	1857.729
347.548	29.087	1845.623	1856.366
348.562	29.003	1844.199	1853.866
349.577	29.222	1843.687	1855.343
350.592	29.349	1843.405	1856.120
351.606	29.437	1842.411	1855.791
352.621	29.370	1840.033	1852.496
353.635	29.027	1838.114	1846.881
354.650	28.653	1836.395	1841.165
355.665	28.542	1833.655	1837.078
356.679	28.579	1833.090	1836.667
357.694	28.707	1832.053	1836.695
358.708	28.951	1831.745	1838.619
359.723	29.402	1832.773	1843.959
360.738	30.121	1832.914	1851.109
361.752	30.048	1830.071	1847.281
362.767	29.366	1826.744	1836.874
363.781	29.032	1825.216	1831.775
364.796	29.128	1824.322	1831.619
365.810	29.177	1822.522	1830.084
366.825	28.975	1820.330	1825.652
367.840	28.843	1818.259	1822.044
368.854	28.759	1817.261	1819.988
369.869	28.593	1816.259	1817.106
370.883	28.698	1814.817	1816.499
371.898	28.788	1813.264	1815.620
372.913	28.999	1811.816	1816.049
373.927	28.860	1810.339	1812.972
374.942	28.915	1809.498	1812.452
375.956	29.003	1808.291	1811.902
376.971	28.696	1806.091	1806.439
377.986	29.002	1805.095	1808.258
379.000	29.181	1804.625	1809.332
380.015	29.102	1802.881	1806.589
381.029	28.843	1801.977	1802.910
382.044	28.959	1800.228	1802.093
383.059	29.072	1797.855	1800.606
384.073	28.770	1796.815	1796.389
385.088	28.652	1795.524	1793.720
386.102	28.921	1794.916	1795.541
387.117	29.012	1793.713	1795.016
388.132	29.056	1793.107	1794.620
389.146	29.127	1793.235	1795.233
390.161	29.856	1793.511	1802.439
391.175	29.941	1789.322	1798.840
392.190	29.066	1784.701	1785.450
393.205	28.649	1781.984	1778.456
394.219	28.658	1780.869	1777.226
395.234	28.790	1779.516	1776.941
396.248	28.727	1777.193	1773.801
397.263	28.578	1775.500	1770.451
398.278	28.537	1773.408	1767.754
399.292	28.347	1772.866	1765.163
400.307	28.909	1773.542	1771.065
401.321	29.080	1772.336	1771.304
402.336	29.096	1770.754	1769.672
403.350	28.995	1769.399	1767.129
404.365	29.301	1768.143	1768.617
405.380	29.392	1767.199	1768.329
406.394	29.222	1765.611	1764.894
407.409	28.915	1764.126	1760.244
408.423	28.906	1762.484	1758.309
409.438	28.908	1761.056	1756.691
410.453	28.903	1759.784	1755.169
411.467	28.956	1758.404	1754.086
412.482	28.693	1757.800	1750.758
413.496	28.942	1756.639	1751.779
414.511	29.024	1754.642	1750.359
415.526	28.828	1753.327	1746.960
416.540	28.990	1752.171	1747.152
417.555	28.935	1749.508	1743.758
418.569	28.859	1749.670	1742.993
419.584	28.965	1750.051	1744.172
420.599	29.103	1749.244	1744.475
421.613	28.723	1746.855	1738.265
422.628	28.761	1745.383	1736.953
423.642	29.152	1744.402	1739.483
424.657	28.949	1743.005	1735.961
425.672	28.542	1740.250	1729.150
426.686	28.711	1739.935	1730.226
427.701	28.850	1738.751	1730.163
428.715	28.942	1738.274	1730.347
429.730	29.344	1737.361	1733.028
430.745	29.565	1736.810	1734.365
431.759	29.509	1735.410	1732.226
432.774	28.944	1733.606	1724.893
433.788	27.769	1729.768	1709.813
434.803	26.921	1727.091	1698.987
435.818	26.845	1726.211	1697.199
436.832	26.849	1725.362	1696.195
437.847	26.154	1719.610	1683.825
438.861	17.005	1692.912	1572.646
439.876	3.869	1668.926	1428.823
440.890	0.646	1662.293	1393.132
441.905	0.443	1660.306	1389.424
442.920	0.360	1658.818	1387.244
443.934	0.318	1657.304	1385.421
444.949	0.319	1656.423	1384.527
445.963	0.264	1656.159	1383.633
446.978	0.252	1656.087	1383.297
447.993	0.341	1653.711	1381.965
449.007	0.338	1651.447	1379.883
450.022	0.308	1650.238	1378.433
451.036	0.304	1648.682	1376.929
452.051	1.564	1654.273	1393.041
453.066	12.742	1680.937	1519.447
454.080	24.779	1701.293	1649.961
455.095	28.402	1707.635	1689.565
456.109	31.120	1712.681	1719.575
457.124	32.291	1713.061	1730.592
458.139	31.415	1710.287	1719.484
459.153	30.701	1708.685	1711.066
460.168	30.495	1706.784	1707.060
461.182	30.766	1705.114	1707.686
462.197	30.931	1704.272	1708.155
463.212	30.918	1703.146	1706.709
464.226	31.116	1701.321	1706.491
465.241	31.291	1701.128	1707.703
466.255	31.412	1700.418	1707.899
467.270	31.697	1697.807	1707.684
468.285	31.431	1697.242	1704.477
469.299	31.451	1696.736	1703.947
470.314	31.640	1695.019	1703.744
471.328	31.821	1693.260	1703.423
472.343	31.713	1692.569	1701.545
473.358	31.720	1690.925	1699.745
474.372	31.475	1689.520	1695.901
475.387	31.805	1688.097	1697.277
476.401	31.820	1686.222	1695.323
477.416	31.371	1685.912	1690.722
478.430	31.765	1685.699	1693.888
479.445	31.727	1684.476	1692.113
480.460	31.658	1682.044	1688.840
481.474	31.567	1680.780	1686.544
482.489	31.837	1680.277	1688.285
483.503	31.884	1678.491	1686.715
484.518	31.716	1676.858	1683.350
485.533	32.045	1676.657	1685.922
486.547	32.185	1675.360	1685.674
487.562	32.344	1674.561	1686.102
488.576	32.526	1673.834	1686.812
489.591	32.712	1672.488	1686.920
490.606	32.653	1671.482	1685.177
491.620	32.649	1669.798	1683.237
492.635	32.622	1667.524	1680.509
493.649	32.227	1665.902	1675.133
494.664	31.437	1663.417	1665.361
495.679	31.085	1661.678	1660.272
496.693	31.332	1660.889	1661.494
497.708	31.835	1660.492	1665.396
498.722	32.175	1660.179	1667.909
499.737	32.388	1659.302	1668.736
500.752	32.253	1656.719	1664.737
501.766	32.066	1655.064	1661.209
502.781	32.146	1653.073	1659.722
503.795	32.149	1652.011	1658.481
504.810	32.034	1651.161	1656.410
505.825	32.239	1650.567	1657.437
506.839	32.057	1649.217	1654.265
507.854	31.869	1648.210	1651.396
508.868	31.900	1646.275	1649.535
509.883	31.441	1644.525	1643.526
510.898	31.235	1643.003	1639.987
511.912	31.203	1640.406	1636.921
512.927	30.764	1638.292	1630.752
513.941	30.746	1637.410	1629.516
514.956	31.483	1637.623	1636.015
515.971	32.409	1637.977	1644.313
516.985	32.023	1635.785	1638.529
518.000	31.378	1634.079	1630.975
519.014	31.139	1633.210	1627.816
520.029	31.016	1631.099	1624.439
521.043	31.033	1629.812	1623.111
522.058	30.929	1628.371	1620.574
523.073	31.204	1627.984	1622.392
524.087	31.514	1627.598	1624.527
525.102	31.739	1626.123	1624.818
526.116	31.777	1625.035	1623.864
527.131	31.827	1624.910	1623.981
528.146	32.257	1624.520	1627.145
529.160	32.465	1623.346	1627.581
530.175	32.545	1623.413	1628.150
531.189	32.637	1622.464	1627.797
532.204	32.775	1620.331	1626.662
533.219	32.462	1618.054	1621.474
534.233	31.926	1616.682	1615.263
535.248	31.755	1615.067	1611.977
536.262	32.119	1615.490	1615.350
537.277	32.656	1616.134	1620.450
538.292	33.144	1614.795	1623.120
539.306	33.075	1612.732	1620.263
540.321	32.972	1610.511	1616.953
541.335	32.427	1608.740	1610.295
542.350	32.879	1608.049	1613.294
543.365	33.283	1607.324	1615.838
544.379	33.440	1606.771	1616.439
545.394	33.441	1604.260	1613.730
546.408	32.575	1601.505	1603.355
547.423	31.944	1599.634	1595.898
548.438	31.898	1598.563	1594.241
549.452	32.134	1597.837	1595.343
550.467	32.238	1596.905	1595.112
551.481	32.257	1596.786	1594.965
552.496	32.461	1596.324	1596.052
553.511	32.740	1594.930	1596.839
554.525	32.957	1593.014	1596.574
555.540	32.720	1592.699	1594.055
556.554	32.867	1591.559	1593.971
557.569	32.711	1589.136	1590.026
558.583	32.408	1587.015	1585.152
559.598	32.255	1586.698	1583.349
560.613	32.260	1585.841	1582.350
561.627	32.239	1584.033	1580.174
562.642	32.048	1582.063	1576.412
563.656	31.820	1579.906	1572.148
564.671	31.526	1578.717	1568.299
565.686	31.271	1577.367	1564.624
566.700	31.163	1576.063	1562.238
567.715	31.089	1574.980	1560.358
568.729	31.506	1574.459	1563.153
569.744	32.284	1574.596	1569.632
570.759	32.629	1572.701	1570.455
571.773	32.140	1571.133	1564.602
572.788	31.824	1569.843	1560.488
573.802	31.514	1567.244	1555.128
574.817	31.380	1565.530	1552.121
575.832	31.385	1563.724	1550.185
576.846	32.006	1564.021	1555.473
577.861	32.370	1563.607	1557.901
578.875	32.451	1563.387	1558.176
579.890	32.656	1563.241	1559.547
580.905	32.744	1562.731	1559.585
581.919	32.791	1562.301	1559.356
582.934	33.011	1561.052	1559.750
583.948	32.851	1560.296	1557.478
584.963	32.929	1558.158	1555.811
585.978	32.603	1556.255	1551.020
586.992	32.377	1554.913	1547.635
588.007	32.815	1554.722	1550.874
589.021	32.622	1552.760	1547.142
590.036	31.797	1551.242	1538.642
591.051	32.392	1550.804	1542.923
592.065	33.109	1550.670	1548.516
593.080	33.291	1549.258	1548.415
594.094	33.467	1547.627	1548.046
595.109	32.956	1544.697	1540.741
596.123	32.368	1543.052	1534.101
597.138	32.683	1542.104	1535.551
598.153	32.763	1541.061	1534.984
599.167	32.497	1539.212	1530.782
600.182	32.579	1537.984	1530.050
601.196	32.746	1537.592	1530.841
602.211	32.883	1537.104	1531.288
603.226	32.580	1536.684	1528.212
604.240	32.771	1535.746	1528.657
605.255	32.942	1533.816	1527.943
606.269	32.900	1532.948	1526.557
607.284	32.870	1531.799	1524.982
608.299	32.804	1529.800	1522.274
609.313	32.697	1527.627	1519.061
610.328	32.732	1526.155	1517.700
611.342	32.619	1525.078	1515.534
612.357	32.510	1524.554	1513.951
613.372	32.530	1523.377	1512.760
614.386	32.318	1521.775	1509.284
615.401	32.265	1521.408	1508.310
616.415	32.081	1520.489	1505.732
617.430	31.728	1518.615	1500.858
618.445	31.494	1516.507	1496.712
619.459	31.390	1516.029	1495.226
620.474	31.321	1515.226	1493.697
621.488	31.898	1514.753	1497.686
622.503	32.754	1514.679	1504.302
623.518	32.256	1512.515	1497.988
624.532	31.591	1509.726	1489.722
625.547	31.519	1507.967	1487.234
626.561	31.358	1507.104	1484.919
627.576	31.409	1506.100	1484.160
628.591	31.734	1506.316	1486.784
629.605	32.339	1506.418	1491.532
630.620	32.877	1506.209	1495.436
631.634	33.592	1505.970	1500.711
632.649	33.562	1504.685	1499.013
633.663	33.034	1501.634	1491.602
634.678	32.101	1499.787	1482.196
635.693	31.792	1496.441	1476.265
636.707	31.588	1494.572	1472.626
637.722	31.458	1494.356	1471.208
638.736	31.992	1493.875	1474.783
639.751	32.408	1493.691	1477.708
640.766	32.401	1493.028	1476.823
641.780	32.477	1491.342	1475.577
642.795	32.503	1491.106	1475.367
643.809	32.699	1490.350	1475.986
644.824	32.989	1489.527	1477.273
645.839	33.105	1488.867	1477.354
646.853	33.101	1487.382	1475.674
647.868	32.803	1485.926	1471.718
648.882	32.704	1484.777	1469.630
649.897	32.554	1483.355	1466.869
650.912	32.433	1482.365	1464.767
651.926	32.984	1481.708	1468.247
652.941	33.273	1480.984	1469.611
653.955	32.709	1478.464	1462.539
654.970	32.023	1476.039	1454.629
655.985	31.860	1473.999	1451.177
656.999	31.568	1473.032	1447.775
658.014	31.716	1471.438	1447.182
659.028	32.309	1471.640	1451.818
660.043	33.158	1472.117	1458.698
661.058	33.177	1471.069	1457.633
662.072	33.087	1469.498	1455.209
663.087	32.875	1467.918	1451.826
664.101	32.458	1467.129	1447.651
665.116	32.642	1465.982	1447.764
666.131	32.681	1464.396	1446.327
667.145	32.721	1463.333	1445.414
668.160	32.766	1461.742	1444.014
669.174	32.700	1459.785	1441.405
670.189	32.793	1459.440	1441.602
671.204	32.826	1459.345	1441.587
672.218	32.798	1458.636	1440.503
673.233	33.007	1457.002	1440.319
674.247	32.875	1455.484	1437.633
675.262	32.413	1454.971	1433.418
676.276	32.524	1453.332	1432.479
677.291	32.518	1452.883	1431.821
678.306	32.826	1451.597	1432.732
679.320	32.822	1449.888	1430.849
680.335	32.154	1449.078	1424.787
681.349	32.204	1448.680	1424.603
682.364	32.372	1447.445	1424.498
683.379	32.242	1445.563	1421.487
684.393	32.086	1443.956	1418.553
685.408	31.958	1442.665	1416.140
686.422	31.876	1441.644	1414.350
687.437	31.547	1440.658	1410.719
688.452	31.308	1438.722	1406.845
689.466	31.292	1436.803	1404.677
690.481	31.311	1435.603	1403.484
691.495	31.746	1436.335	1407.316
692.510	32.734	1437.917	1416.162
693.525	33.665	1437.343	1422.446
694.539	33.121	1435.204	1416.065
695.554	31.819	1432.702	1403.631
696.568	31.198	1431.007	1397.134
697.583	31.113	1429.622	1394.974
698.598	31.468	1429.303	1397.165
699.612	31.549	1428.307	1396.628
700.627	31.644	1427.157	1396.052
701.641	32.061	1427.286	1399.137
702.656	32.209	1425.638	1398.462
703.671	32.280	1425.060	1398.252
704.685	32.345	1424.524	1398.048
705.700	32.515	1423.118	1397.767
706.714	32.429	1421.234	1395.113
707.729	32.407	1420.144	1393.712
708.744	32.484	1419.638	1393.617
709.758	32.503	1418.114	1392.099
710.773	31.959	1416.273	1386.083
711.787	31.691	1414.821	1382.513
712.802	32.308	1414.793	1386.892
713.816	32.651	1413.951	1388.445
714.831	32.782	1412.709	1388.027
715.846	32.674	1411.500	1385.876
716.860	32.476	1410.587	1383.348
717.875	32.321	1409.091	1380.571
718.889	32.108	1408.007	1377.775
719.904	32.001	1406.901	1375.737
720.919	32.069	1405.236	1374.449
721.933	32.002	1403.997	1372.575
722.948	31.734	1403.767	1370.220
723.962	31.789	1402.464	1369.184
724.977	31.937	1401.304	1368.973
725.992	31.947	1400.860	1368.452
727.006	32.399	1398.782	1369.565
728.021	32.103	1397.584	1366.067
729.035	32.181	1396.442	1365.357
730.050	31.945	1396.452	1363.475
731.065	32.001	1395.104	1362.406
732.079	31.768	1393.579	1359.053
733.094	31.923	1392.519	1358.988
734.108	32.345	1391.174	1360.585
735.123	32.075	1389.543	1356.867
736.138	31.995	1388.647	1355.242
737.152	31.999	1387.575	1354.063
738.167	31.815	1386.456	1351.478
739.181	31.685	1385.702	1349.643
740.196	31.775	1384.714	1349.171
741.211	31.606	1384.192	1347.276
742.225	31.726	1383.120	1346.936
743.240	31.488	1380.936	1342.931
744.254	31.472	1379.197	1340.965
745.269	31.299	1377.666	1338.070
746.284	30.901	1377.201	1334.591
747.298	30.965	1376.558	1334.269
748.313	31.259	1376.458	1336.130
749.327	32.001	1377.596	1342.412
750.342	32.698	1378.286	1347.931
751.356	33.484	1377.309	1352.462
752.371	33.222	1374.697	1347.854
753.386	32.072	1371.067	1335.917
754.400	31.354	1370.313	1329.889
755.415	31.633	1369.603	1331.035
756.429	31.815	1368.509	1331.112
757.444	32.086	1367.019	1331.431
758.459	31.836	1365.996	1328.499
759.473	31.548	1364.261	1324.600
760.488	31.500	1362.986	1322.866
761.502	31.253	1362.287	1320.270
762.517	31.580	1361.207	1321.390
763.532	31.861	1360.823	1322.848
764.546	31.825	1359.141	1320.805
765.561	31.409	1357.172	1315.788
766.575	30.918	1356.465	1311.473
767.590	30.893	1355.698	1310.397
768.605	31.663	1355.327	1315.321
769.619	31.994	1355.093	1317.271
770.634	32.083	1353.375	1316.071
771.648	31.605	1351.291	1310.522
772.663	31.327	1350.288	1307.441
773.678	31.404	1350.052	1307.597
774.692	31.669	1349.901	1309.160
775.707	31.650	1348.865	1307.863
776.721	31.689	1347.608	1306.760
777.736	31.377	1346.255	1303.104
778.751	31.297	1345.975	1302.116
779.765	31.514	1344.285	1301.846
780.780	31.425	1343.689	1300.489
781.794	31.429	1342.721	1299.427
782.809	31.216	1340.906	1296.025
783.824	30.797	1339.686	1291.769
784.838	31.134	1339.575	1293.862
785.853	32.312	1339.563	1301.894
786.867	32.181	1338.230	1299.536
787.882	31.363	1337.191	1292.688
788.897	31.095	1335.855	1289.374
789.911	30.994	1334.635	1287.343
790.926	30.891	1332.795	1284.699
791.940	30.837	1331.170	1282.611
792.955	30.933	1330.246	1282.228
793.969	30.881	1329.266	1280.772
794.984	30.814	1328.729	1279.635
795.999	31.094	1327.513	1280.243
797.013	31.133	1326.303	1279.196
798.028	31.164	1324.830	1277.834
799.042	31.217	1323.875	1277.120
800.057	31.088	1322.610	1274.862
801.072	31.177	1321.556	1274.305
802.086	31.157	1320.426	1272.928
803.101	30.974	1319.301	1270.439
804.115	31.093	1319.259	1271.057
805.130	31.107	1317.988	1269.777
806.145	30.947	1316.682	1267.275
807.159	30.836	1315.884	1265.596
808.174	31.225	1314.842	1267.097
809.188	31.473	1313.735	1267.569
810.203	31.486	1312.095	1265.920
811.218	31.308	1310.800	1263.313
812.232	30.892	1309.092	1258.693
813.247	30.716	1307.772	1256.079
814.261	31.124	1308.288	1259.191
815.276	31.360	1307.857	1260.224
816.291	31.074	1306.379	1256.715
817.305	30.777	1304.638	1252.882
818.320	30.898	1302.956	1251.931
819.334	30.939	1302.317	1251.441
820.349	31.083	1301.195	1251.190
821.364	30.884	1299.331	1247.903
822.378	30.891	1298.287	1246.800
823.393	30.923	1296.725	1245.368
824.407	30.910	1295.432	1243.888
825.422	30.768	1295.357	1242.717
826.437	30.831	1294.077	1241.761
827.451	30.660	1292.873	1239.310
828.466	31.332	1293.228	1244.002
829.480	32.106	1291.974	1247.822
830.495	31.466	1288.899	1240.434
831.509	30.890	1287.172	1234.791
832.524	30.643	1286.371	1232.225
833.539	30.677	1285.524	1231.495
834.553	30.573	1284.431	1229.611
835.568	30.445	1283.644	1227.857
836.582	30.716	1281.914	1227.855
837.597	30.784	1280.830	1227.120
838.612	30.782	1279.474	1225.656
839.626	30.891	1278.262	1225.072
840.641	30.874	1277.625	1224.202
841.655	30.608	1277.530	1222.208
842.670	30.582	1275.767	1220.201
843.685	30.140	1274.374	1215.810
844.699	30.303	1273.659	1216.057
845.714	30.738	1272.255	1217.432
846.728	30.497	1271.482	1214.967
847.743	30.416	1270.677	1213.519
848.758	30.479	1269.315	1212.485
849.772	30.540	1268.125	1211.601
850.787	30.509	1266.967	1210.147
851.801	30.392	1266.224	1208.531
852.816	30.483	1264.547	1207.376
853.831	30.655	1263.114	1206.990
854.845	30.490	1261.510	1204.236
855.860	30.583	1259.522	1202.796
856.874	30.518	1259.155	1201.879
857.889	30.818	1258.850	1203.393
858.904	31.438	1258.385	1206.833
859.918	32.101	1258.124	1210.735
860.933	32.505	1257.616	1212.718
861.947	31.940	1255.797	1207.161
862.962	31.081	1253.259	1199.033
863.977	30.788	1252.209	1195.991
864.991	30.707	1250.392	1193.594
866.006	30.551	1249.558	1191.646
867.020	30.391	1248.274	1189.249
868.035	30.322	1247.560	1187.985
869.049	30.398	1246.404	1187.232
870.064	30.485	1245.423	1186.713
871.079	30.539	1244.967	1186.482
872.093	30.368	1244.778	1185.064
873.108	30.355	1243.273	1183.406
874.122	30.397	1241.575	1181.919
875.137	30.304	1241.284	1180.902
876.152	30.208	1240.310	1179.223
877.166	30.305	1237.795	1177.306
878.181	30.193	1236.374	1175.098
879.195	30.201	1236.205	1174.850
880.210	30.312	1235.717	1174.952
881.225	30.591	1234.188	1175.130
882.239	30.509	1233.367	1173.688
883.254	30.123	1232.998	1170.746
884.268	30.289	1232.267	1170.963
885.283	30.587	1230.042	1170.595
886.298	30.360	1228.397	1167.457
887.312	30.467	1227.666	1167.301
888.327	30.413	1227.140	1166.315
889.341	30.251	1226.273	1164.334
890.356	30.178	1225.400	1162.902
891.371	30.262	1225.407	1163.303
892.385	30.464	1224.362	1163.438
893.400	30.503	1223.560	1162.783
894.414	30.368	1222.363	1160.662
895.429	30.685	1222.438	1162.583
896.444	31.922	1222.192	1169.969
897.458	32.902	1221.716	1175.513
898.473	32.249	1220.114	1169.750
899.487	31.406	1217.416	1161.760
900.502	30.621	1215.691	1155.075
901.517	30.191	1214.446	1151.074
902.531	30.267	1213.210	1150.238
903.546	30.239	1212.381	1149.137
904.560	30.202	1211.735	1148.157
905.575	30.231	1211.161	1147.657
906.589	30.107	1210.089	1145.734
907.604	30.042	1209.356	1144.499
