DTS Sentinel unit serial number:	SN409020Multiplexer serial number:	ORYXHardware model number:	OX4-SRSoftware version number:	ORYX F/W v3.00 Oryx Data Collector v3.7.2.0data status	okinstallation	HaddamTimeLapsedifferential loss correction	single-endedforward channel	channel 3reverse channel	N/Adate	2011/06/21time	21:11:17forward acquisition time	30.00reverse acquisition time	0.00gamma	498.7831k internal	0.1765k external	0.1765temperature offset calibration	1.0074default loss term (dB/km)	0.3790temperature slope calibration	1.3530multiplexer offset coefficient	1.0000multiplexer slope coefficient	1.0000fibre end	0.00T internal ref (°C)	27.25T ext. ref 1 (°C)	20.20T ext. ref 2 (°C)	0.02length (m)	temperature (°C)	Stokes	anti-Stokes-747.200	174.174	0.190	-0.362
-746.185	80.717	0.366	0.520
-745.171	800.000	-0.104	0.398
-744.156	221.772	-0.095	-0.203
-743.142	800.000	-0.070	-0.269
-742.127	180.305	-0.150	-0.291
-741.112	6.156	-0.145	-0.142
-740.098	142.761	0.172	0.302
-739.083	-82.153	-0.384	0.164
-738.069	-28.960	0.595	0.449
-737.054	188.398	-0.239	-0.472
-736.039	-89.841	-0.362	-0.139
-735.025	-68.618	-0.270	-0.137
-734.010	-200.000	0.013	0.151
-732.996	140.110	0.124	0.216
-731.981	41.549	-0.269	0.321
-730.966	141.921	-0.032	-0.056
-729.952	-126.173	-0.148	-0.029
-728.937	-119.734	-0.154	-0.035
-727.923	800.000	0.100	0.469
-726.908	136.881	0.140	0.242
-725.894	39.794	-0.099	0.117
-724.879	217.752	-0.015	0.032
-723.864	-103.727	-0.259	0.079
-722.850	-200.000	-0.023	-0.169
-721.835	800.000	0.177	-0.647
-720.821	-200.000	-0.078	-0.571
-719.806	-59.007	-0.243	-0.138
-718.791	222.475	0.081	0.173
-717.777	46.483	-0.200	0.244
-716.762	292.093	-0.198	-0.477
-715.748	153.891	-0.093	-0.167
-714.733	-16.235	0.144	-0.120
-713.718	-117.585	0.294	0.069
-712.704	-144.058	-0.662	0.081
-711.689	800.000	0.054	0.255
-710.675	-64.674	-0.454	0.241
-709.660	-95.426	-0.525	0.184
-708.645	800.000	-0.080	-0.345
-707.631	-82.395	-0.115	0.049
-706.616	-89.936	0.142	0.054
-705.602	-200.000	-0.014	-0.469
-704.587	-76.291	-0.357	0.165
-703.572	-117.855	0.103	0.024
-702.558	-79.520	-0.335	-0.148
-701.543	-152.227	0.485	0.046
-700.529	-200.000	-0.056	0.348
-699.514	8.523	-0.183	0.181
-698.499	-15.835	0.190	-0.159
-697.485	-154.256	0.474	0.041
-696.470	-138.141	0.170	-0.025
-695.456	-152.983	-0.401	0.037
-694.441	-92.336	0.134	-0.049
-693.426	-66.873	0.345	0.179
-692.412	-200.000	-0.014	0.271
-691.397	32.873	-0.295	-0.336
-690.383	-200.000	-0.009	0.474
-689.368	-200.000	0.003	0.139
-688.354	336.924	0.055	-0.141
-687.339	-75.833	0.085	-0.039
-686.324	60.234	0.172	0.223
-685.310	-200.000	0.040	0.601
-684.295	56.063	-0.281	-0.359
-683.281	132.389	-0.142	0.240
-682.266	-66.500	-0.176	-0.091
-681.251	800.000	-0.022	0.096
-680.237	-4.331	-0.174	0.158
-679.222	-83.599	-0.354	0.148
-678.208	-88.383	0.279	0.109
-677.193	90.966	0.303	0.447
-676.178	659.111	0.152	0.517
-675.164	-194.433	0.447	0.005
-674.149	-143.070	-0.350	0.044
-673.135	-149.174	-0.149	0.015
-672.120	154.978	-0.217	-0.392
-671.105	44.664	-0.359	-0.434
-670.091	6.954	0.360	0.352
-669.076	-146.791	0.384	-0.043
-668.062	173.413	0.105	0.200
-667.047	-143.465	-0.295	-0.037
-666.032	658.883	-0.048	0.162
-665.018	499.181	0.119	-0.362
-664.003	800.000	0.070	0.287
-662.989	-128.932	0.426	-0.078
-661.974	-116.118	0.235	-0.057
-660.959	104.544	0.065	-0.101
-659.945	-189.190	-0.363	0.006
-658.930	-60.405	0.344	0.192
-657.916	-53.065	0.373	0.224
-656.901	-141.437	-0.206	0.027
-655.886	-63.297	-0.207	-0.111
-654.872	800.000	0.048	-0.192
-653.857	56.196	-0.132	0.168
-652.843	-124.255	-0.154	0.031
-651.828	-97.713	-0.244	0.083
-650.814	17.974	-0.270	-0.283
-649.799	54.191	0.346	-0.438
-648.784	800.000	0.140	-0.778
-647.770	78.808	0.356	-0.500
-646.755	-26.700	-0.403	-0.309
-645.741	47.467	0.554	-0.678
-644.726	326.555	0.189	0.477
-643.711	-135.069	-0.201	-0.032
-642.697	-200.000	-0.243	0.001
-641.682	-90.024	0.281	0.107
-640.668	-200.000	0.001	0.004
-639.653	-78.606	0.142	-0.063
-638.638	-119.426	0.182	-0.041
-637.624	-200.000	-0.021	-0.154
-636.609	-200.000	-0.112	-0.697
-635.595	301.253	0.112	-0.272
-634.580	-200.000	0.020	-0.173
-633.565	-200.000	0.010	-0.226
-632.551	-89.681	0.530	-0.203
-631.536	-200.000	0.025	-0.456
-630.522	800.000	-0.080	-0.316
-629.507	-2.447	-0.177	-0.163
-628.492	-87.129	-0.386	-0.153
-627.478	460.448	-0.092	0.272
-626.463	50.938	-0.088	-0.110
-625.449	-18.712	-0.506	-0.413
-624.434	-200.000	0.067	-0.451
-623.419	-154.919	-0.364	-0.031
-622.405	-104.250	0.483	-0.146
-621.390	787.058	0.102	0.371
-620.376	26.316	-0.061	0.066
-619.361	270.018	0.149	-0.345
-618.346	231.002	-0.212	-0.456
-617.332	242.457	-0.199	-0.439
-616.317	-143.330	0.414	-0.051
-615.303	101.058	0.147	-0.224
-614.288	-42.844	0.125	-0.083
-613.273	800.000	0.053	-0.216
-612.259	299.234	-0.121	-0.294
-611.244	-74.833	-0.248	0.116
-610.230	-131.189	-0.352	-0.061
-609.215	-71.507	-0.235	-0.115
-608.201	-66.441	0.126	0.065
-607.186	107.429	0.278	-0.434
-606.171	-17.537	-0.137	0.113
-605.157	-106.420	-0.268	0.078
-604.142	-62.775	0.111	-0.060
-603.128	-8.880	-0.387	-0.340
-602.113	-10.995	-0.280	0.242
-601.098	-200.000	-0.004	0.147
-600.084	128.179	-0.035	-0.059
-599.069	223.398	-0.119	0.252
-598.055	20.653	-0.189	0.201
-597.040	-69.349	0.415	0.208
-596.025	-200.000	-0.016	-0.290
-595.011	189.993	-0.171	0.337
-593.996	800.000	0.076	-0.292
-592.982	-152.492	0.917	-0.085
-591.967	800.000	-0.043	0.179
-590.952	52.900	0.182	-0.228
-589.938	-156.435	-0.335	-0.027
-588.923	-55.519	0.574	-0.336
-587.909	-200.000	-0.471	-0.001
-586.894	242.783	0.126	0.276
-585.879	-179.339	0.208	0.006
-584.865	-23.175	0.474	0.373
-583.850	800.000	0.067	0.307
-582.836	-200.000	0.035	0.209
-581.821	-35.150	-0.107	0.076
-580.806	800.000	-0.017	0.077
-579.792	307.199	-0.247	0.604
-578.777	361.495	-0.114	0.302
-577.763	-126.141	0.070	-0.014
-576.748	65.800	-0.193	0.257
-575.733	170.681	0.104	0.196
-574.719	194.612	-0.123	-0.244
-573.704	-44.620	0.140	0.091
-572.690	-200.000	0.002	0.066
-571.675	363.382	-0.147	-0.389
-570.661	800.000	-0.046	-0.195
-569.646	-141.339	-0.188	-0.025
-568.631	-81.061	0.239	-0.103
-567.617	255.072	-0.191	0.429
-566.602	-200.000	0.019	0.316
-565.588	270.915	-0.086	-0.200
-564.573	-200.000	0.002	0.071
-563.558	715.324	0.048	0.166
-562.544	3.245	-0.250	0.237
-561.529	-124.938	-0.036	-0.007
-560.515	-74.367	0.055	-0.026
-559.500	800.000	0.116	0.537
-558.485	-136.303	-0.536	-0.081
-557.471	56.967	0.076	-0.097
-556.456	-140.145	-0.557	0.076
-555.442	646.843	-0.106	0.355
-554.427	800.000	-0.009	-0.036
-553.412	-135.126	0.135	-0.021
-552.398	-54.207	0.229	0.136
-551.383	552.504	-0.031	-0.098
-550.369	-200.000	-0.007	0.362
-549.354	-75.054	0.288	-0.134
-548.339	-46.309	-0.426	0.273
-547.325	800.000	-0.110	0.411
-546.310	107.368	-0.236	-0.368
-545.296	-43.379	0.503	-0.331
-544.281	-119.531	0.069	0.015
-543.266	800.000	-0.104	-0.454
-542.252	-200.000	-0.066	-0.467
-541.237	0.577	-0.174	-0.162
-540.223	-200.000	0.013	0.277
-539.208	80.611	-0.375	0.529
-538.193	-57.358	0.309	-0.177
-537.179	800.000	0.072	-0.350
-536.164	63.456	0.220	-0.288
-535.150	-128.585	-0.447	-0.082
-534.135	-28.468	-0.145	-0.109
-533.121	-124.963	-0.358	-0.071
-532.106	-109.627	-0.401	0.110
-531.091	-17.560	-0.413	0.339
-530.077	339.664	0.178	0.455
-529.062	-124.314	0.171	-0.035
-528.048	-200.000	-0.007	0.568
-527.033	100.303	-0.167	0.254
-526.018	-200.000	0.146	0.000
-525.004	-73.896	0.440	0.208
-523.989	149.862	0.350	0.621
-522.975	-200.000	-0.009	0.258
-521.960	190.956	-0.182	-0.359
-520.945	328.546	-0.135	0.340
-519.931	-166.403	-0.200	-0.011
-518.916	139.545	0.191	0.329
-517.902	-155.266	0.552	-0.046
-516.887	-177.397	-0.105	-0.003
-515.872	-200.000	0.018	0.175
-514.858	-101.895	0.103	-0.032
-513.843	-113.035	-0.205	0.052
-512.829	-36.800	-0.372	-0.260
-511.814	74.773	-0.178	0.246
-510.799	-46.814	0.414	0.264
-509.785	-3.074	-0.392	0.357
-508.770	-3.335	0.072	-0.066
-507.756	14.485	0.235	-0.240
-506.741	-81.084	0.485	-0.208
-505.726	81.055	-0.157	0.222
-504.712	-200.000	-0.021	0.527
-503.697	-172.394	-0.160	0.007
-502.683	-61.104	0.714	-0.392
-501.668	800.000	-0.085	-0.369
-500.653	-36.875	0.138	0.096
-499.639	251.220	0.137	0.305
-498.624	-121.690	-0.597	0.128
-497.610	-200.000	-0.007	0.436
-496.595	-136.231	-0.255	-0.039
-495.581	64.088	0.158	0.208
-494.566	-200.000	-0.004	-0.308
-493.551	14.859	0.296	-0.302
-492.537	-66.005	-0.261	0.135
-491.522	-114.691	-0.400	-0.099
-490.508	-200.000	0.061	0.536
-489.493	721.395	0.140	0.490
-488.478	-84.357	0.465	-0.191
-487.464	800.000	-0.115	-0.561
-486.449	-66.004	-0.317	-0.164
-485.435	34.434	-0.369	0.420
-484.420	152.650	-0.259	0.462
-483.405	-53.362	-0.357	0.213
-482.391	800.000	0.128	0.525
-481.376	800.000	-0.099	0.455
-480.362	-75.947	-0.115	-0.053
-479.347	-114.496	-0.460	-0.114
-478.332	250.763	0.183	-0.406
-477.318	-58.638	-0.488	-0.275
-476.303	-128.183	-0.204	0.038
-475.289	-37.381	0.232	0.161
-474.274	-132.381	-0.175	0.029
-473.259	-8.001	-0.139	-0.122
-472.245	-200.000	0.020	-0.178
-471.230	-113.207	-0.242	-0.062
-470.216	28.379	-0.221	-0.243
-469.201	-200.000	-0.030	-0.291
-468.186	-101.519	0.131	0.041
-467.172	-52.959	0.255	0.153
-466.157	-13.153	0.299	-0.253
-465.143	-56.612	-0.376	0.217
-464.128	800.000	0.046	0.179
-463.113	-105.669	0.285	0.083
-462.099	-197.468	-0.477	0.004
-461.084	-148.864	-0.161	0.017
-460.070	173.353	-0.156	0.294
-459.055	-200.000	-0.040	0.296
-458.040	-106.808	0.131	0.038
-457.026	-97.967	0.266	0.089
-456.011	-48.491	-0.098	-0.061
-454.997	-17.135	0.206	0.169
-453.982	17.170	0.573	0.591
-452.968	-38.445	0.078	0.054
-451.953	800.000	0.083	0.325
-450.938	-114.465	-0.249	-0.062
-449.924	62.551	-0.081	0.106
-448.909	32.396	0.009	-0.010
-447.895	-15.677	-0.177	-0.147
-446.880	199.361	-0.094	-0.189
-445.865	34.152	0.149	-0.169
-444.851	9.553	-0.125	0.123
-443.836	-200.000	0.006	0.167
-442.822	134.876	-0.152	-0.258
-441.807	-200.000	0.029	-0.410
-440.792	396.266	-0.121	-0.331
-439.778	404.011	0.181	-0.497
-438.763	-83.334	0.528	-0.220
-437.749	-134.349	0.325	-0.051
-436.734	127.853	0.098	0.162
-435.719	-95.606	-0.075	0.026
-434.705	-94.220	-0.393	0.139
-433.690	381.111	0.132	-0.355
-432.676	-71.346	0.156	-0.076
-431.661	-200.000	0.049	-0.327
-430.646	46.191	-0.332	-0.400
-429.632	-96.844	0.072	0.025
-428.617	341.396	-0.207	-0.529
-427.603	-9.769	-0.384	-0.333
-426.588	-32.359	0.204	0.148
-425.573	-70.462	0.437	-0.214
-424.559	-49.017	0.188	-0.117
-423.544	-49.901	0.497	0.306
-422.530	0.958	-0.312	0.291
-421.515	-50.459	0.641	0.392
-420.500	126.185	0.110	0.181
-419.486	202.587	0.092	-0.186
-418.471	23.417	0.205	-0.220
-417.457	89.593	0.196	-0.285
-416.442	232.415	0.065	-0.140
-415.428	14.601	0.323	-0.328
-414.413	-19.138	-0.169	0.136
-413.398	143.823	0.040	-0.069
-412.384	-111.788	0.189	-0.049
-411.369	4.833	-0.473	-0.452
-410.355	-59.042	-0.442	0.247
-409.340	-63.223	0.060	-0.032
-408.325	-110.236	-0.251	0.068
-407.311	-30.003	-0.414	0.306
-406.296	-65.835	-0.430	-0.223
-405.282	-123.824	0.461	0.094
-404.267	-200.000	-0.010	0.448
-403.252	-44.084	-0.251	0.163
-402.238	29.698	-0.116	-0.128
-401.223	-4.569	-0.273	-0.245
-400.209	148.143	-0.331	0.582
-399.194	-116.646	-0.626	0.149
-398.179	344.020	-0.169	0.432
-397.165	-97.269	0.410	0.138
-396.150	-200.000	0.052	-0.309
-395.136	101.724	0.157	0.238
-394.121	-200.000	0.054	0.373
-393.106	42.314	-0.248	0.294
-392.092	-187.401	-0.302	-0.005
-391.077	-111.178	0.182	0.048
-390.063	-20.992	0.172	-0.136
-389.048	580.659	0.047	-0.149
-388.033	11.703	0.121	-0.121
-387.019	-118.908	-0.457	0.103
-386.004	23.085	0.248	-0.265
-384.990	-200.000	0.009	-0.223
-383.975	800.000	-0.028	0.153
-382.960	710.224	0.075	-0.259
-381.946	58.329	0.236	-0.301
-380.931	-69.199	-0.407	0.202
-379.917	48.589	0.177	0.215
-378.902	-100.684	-0.115	-0.037
-377.888	149.257	0.354	0.624
-376.873	-200.000	0.042	-0.485
-375.858	218.463	0.098	0.205
-374.844	-60.532	-0.211	0.116
-373.829	-36.530	-0.209	-0.146
-372.815	164.613	0.103	-0.190
-371.800	33.179	0.120	-0.135
-370.785	96.021	-0.156	0.231
-369.771	-23.690	-0.167	0.130
-368.756	-200.000	0.002	0.239
-367.742	54.089	-0.035	-0.044
-366.727	-200.000	-0.033	0.573
-365.712	-106.512	-0.048	-0.014
-364.698	-200.000	-0.017	0.154
-363.683	-200.000	0.037	-0.280
-362.669	-120.824	-0.389	-0.085
-361.654	-117.009	-0.229	0.054
-360.639	-150.871	-0.229	0.022
-359.625	-88.082	0.565	-0.219
-358.610	-31.212	0.295	0.216
-357.596	134.068	0.138	0.233
-356.581	667.340	0.113	-0.381
-355.566	566.473	0.193	-0.613
-354.552	-48.572	-0.243	0.151
-353.537	149.626	0.317	0.560
-352.523	-105.996	-0.172	-0.050
-351.508	-200.000	-0.022	0.151
-350.493	1.149	0.226	-0.210
-349.479	-161.697	-0.438	0.029
-348.464	-200.000	-0.006	-0.467
-347.450	49.839	-0.358	0.439
-346.435	114.410	0.206	0.327
-345.420	-54.539	-0.077	-0.045
-344.406	-62.633	-0.310	-0.166
-343.391	-136.768	0.339	-0.050
-342.377	323.643	0.074	-0.183
-341.362	-111.503	0.096	0.025
-340.348	203.899	0.160	0.323
-339.333	-82.770	0.350	0.146
-338.318	-58.343	0.246	-0.139
-337.304	139.322	0.008	0.014
-336.289	135.377	-0.077	0.130
-335.275	-200.000	0.073	-0.545
-334.260	72.051	0.234	0.316
-333.245	-0.374	0.061	-0.056
-332.231	-85.589	0.178	-0.071
-331.216	204.404	0.013	0.027
-330.202	92.124	-0.303	-0.443
-329.187	19.712	-0.213	-0.222
-328.172	-124.029	-0.237	-0.048
-327.158	49.370	0.221	0.269
-326.143	153.108	-0.054	0.097
-325.129	-192.127	0.320	0.004
-324.114	-110.867	-0.269	-0.071
-323.099	57.428	0.343	0.434
-322.085	221.916	0.141	0.295
-321.070	-143.393	-0.218	0.027
-320.056	207.643	-0.209	0.424
-319.041	-142.885	0.521	-0.065
-318.026	-110.534	-0.185	-0.049
-317.012	-123.188	0.145	0.030
-315.997	800.000	0.072	-0.281
-314.983	-72.048	-0.654	-0.314
-313.968	-153.833	-0.474	-0.042
-312.953	-14.332	-0.265	0.221
-311.939	-53.057	-0.198	0.117
-310.924	-103.700	-0.312	0.094
-309.910	253.800	0.146	0.324
-308.895	170.518	-0.042	-0.077
-307.880	-118.323	0.194	-0.044
-306.866	28.413	0.346	-0.379
-305.851	-75.195	-0.657	-0.303
-304.837	455.154	0.128	-0.369
-303.822	138.163	0.256	-0.436
-302.807	47.294	0.111	0.135
-301.793	240.181	0.090	-0.195
-300.778	-3.640	-0.402	0.361
-299.764	-94.217	-0.299	-0.105
-298.749	-122.561	-0.468	0.098
-297.735	800.000	0.123	-0.590
-296.720	-119.256	0.240	0.054
-295.705	-159.256	0.450	-0.032
-294.691	-53.107	0.308	-0.183
-293.676	-200.000	-0.015	-0.331
-292.662	-4.031	-0.488	0.438
-291.647	-36.692	0.187	0.130
-290.632	-54.181	0.104	0.061
-289.618	-188.374	0.185	0.003
-288.603	344.417	-0.070	-0.178
-287.589	-159.547	0.406	0.029
-286.574	-152.829	0.487	0.044
-285.559	-26.890	0.325	-0.245
-284.545	-106.154	-0.165	0.048
-283.530	161.643	-0.173	0.315
-282.516	-200.000	0.002	-0.386
-281.501	274.482	0.096	0.221
-280.486	-132.573	0.653	0.107
-279.472	-200.000	-0.011	-0.140
-278.457	-38.915	0.168	0.114
-277.443	-108.079	-0.112	0.031
-276.428	133.822	-0.039	-0.065
-275.413	-88.200	-0.360	-0.139
-274.399	-104.950	-0.208	-0.061
-273.384	-71.863	-0.324	0.156
-272.370	91.326	-0.078	0.113
-271.355	-103.093	0.409	-0.124
-270.340	732.904	-0.077	0.269
-269.326	536.632	-0.089	-0.273
-268.311	800.000	0.143	-0.560
-267.297	42.864	-0.251	-0.296
-266.282	-200.000	-0.068	-0.395
-265.267	403.899	-0.035	0.096
-264.253	800.000	-0.029	-0.107
-263.238	-200.000	-0.042	0.274
-262.224	533.605	0.026	0.081
-261.209	800.000	0.084	0.395
-260.195	-138.858	-0.459	-0.064
-259.180	12.766	0.138	0.138
-258.165	133.910	-0.089	0.150
-257.151	82.503	0.112	0.158
-256.136	715.038	-0.200	-0.690
-255.122	-153.131	0.199	0.018
-254.107	14.932	0.218	0.220
-253.092	-35.865	-0.318	-0.222
-252.078	-200.000	0.057	-0.451
-251.063	468.775	0.061	0.177
-250.049	-143.623	0.223	0.027
-249.034	-99.004	-0.349	-0.114
-248.019	-146.379	-0.268	0.030
-247.005	-43.571	0.200	-0.130
-245.990	-200.000	-0.034	-0.484
-244.976	-64.712	-0.118	0.062
-243.961	275.196	-0.129	0.296
-242.946	800.000	0.162	-0.679
-241.932	-169.986	0.376	0.017
-240.917	-200.000	0.060	-0.421
-239.903	-174.603	-0.536	0.019
-238.888	-152.399	0.136	0.013
-237.873	-115.669	0.535	0.129
-236.859	800.000	-0.132	0.524
-235.844	-200.000	-0.033	-0.494
-234.830	-18.227	0.312	0.252
-233.815	368.495	-0.058	0.153
-232.800	-29.282	-0.171	-0.126
-231.786	-132.670	0.425	-0.070
-230.771	-145.020	0.310	0.036
-229.757	-200.000	-0.035	-0.501
-228.742	-59.085	0.480	-0.267
-227.727	25.980	0.327	0.352
-226.713	800.000	-0.073	0.327
-225.698	-200.000	-0.021	-0.288
-224.684	279.123	0.193	-0.445
-223.669	151.141	0.108	0.190
-222.655	24.679	0.190	0.203
-221.640	-200.000	-0.039	-0.226
-220.625	-24.311	-0.345	0.265
-219.611	237.005	0.042	0.090
-218.596	-69.207	0.036	0.018
-217.582	130.914	0.183	-0.303
-216.567	-1.443	0.282	-0.256
-215.552	-95.354	-0.393	0.136
-214.538	505.458	-0.086	-0.258
-213.523	-200.000	0.005	-0.078
-212.509	800.000	0.009	-0.042
-211.494	-200.000	-0.031	0.194
-210.479	73.457	-0.053	-0.072
-209.465	225.220	0.115	-0.241
-208.450	94.134	0.143	0.209
-207.436	-62.348	-0.282	-0.151
-206.421	-93.024	-0.141	-0.051
-205.406	55.482	-0.297	-0.371
-204.392	16.197	-0.149	-0.151
-203.377	-140.111	0.245	-0.033
-202.363	-162.791	0.536	0.033
-201.348	800.000	0.100	0.369
-200.333	59.660	0.286	0.365
-199.319	-200.000	0.038	0.315
-198.304	47.371	0.135	0.162
-197.290	47.318	0.230	0.276
-196.275	-200.000	-0.052	0.740
-195.260	-16.016	0.250	0.205
-194.246	800.000	0.055	0.200
-193.231	-70.126	0.188	0.092
-192.217	169.842	0.114	0.210
-191.202	4.964	0.092	0.087
-190.187	-138.588	-0.236	0.033
-189.173	-97.814	0.125	-0.042
-188.158	38.775	-0.270	0.311
-187.144	-157.042	0.279	0.022
-186.129	-200.000	0.263	-0.001
-185.114	103.210	-0.120	0.182
-184.100	-200.000	-0.116	0.702
-183.085	-87.140	-0.240	-0.094
-182.071	117.639	0.123	-0.196
-181.056	-61.297	-0.486	-0.263
-180.042	-145.106	-0.031	-0.004
-179.027	2.973	-0.411	0.384
-178.012	-131.550	0.076	0.013
-176.998	-118.987	0.518	0.116
-175.983	106.041	-0.591	0.903
-174.969	24.028	0.196	0.208
-173.954	127.361	0.189	0.309
-172.939	-29.141	0.295	0.218
-171.925	-141.332	-0.359	0.046
-170.910	-23.775	-0.264	-0.203
-169.896	-200.000	0.011	-0.080
-168.881	45.254	-0.038	-0.046
-167.866	84.801	0.126	-0.178
-166.852	19.575	0.119	0.123
-165.837	-117.250	0.065	-0.015
-164.823	-50.628	-0.297	0.180
-163.808	-83.329	-0.337	0.139
-162.793	-200.000	-0.024	0.136
-161.779	-160.651	0.492	0.033
-160.764	110.592	0.232	0.360
-159.750	648.343	0.025	-0.084
-158.735	-112.991	0.223	0.056
-157.720	172.757	0.158	-0.293
-156.706	588.850	0.097	-0.310
-155.691	-200.000	0.018	-0.115
-154.677	-150.981	-0.073	0.007
-153.662	-154.286	0.189	-0.016
-152.647	110.587	-0.214	-0.332
-151.633	123.869	0.048	-0.078
-150.618	2.311	0.521	0.485
-149.604	2.342	0.067	-0.062
-148.589	-104.601	-0.232	-0.069
-147.574	126.606	-0.133	-0.218
-146.560	21.968	0.112	-0.118
-145.545	-200.000	0.003	-0.177
-144.531	-170.172	0.347	-0.016
-143.516	-13.524	0.126	-0.105
-142.502	-32.943	0.481	0.343
-141.487	-17.409	-0.147	0.119
-140.472	-200.000	-0.022	0.214
-139.458	253.035	-0.073	0.161
-138.443	-144.051	-0.269	0.032
-137.429	-200.000	0.002	-0.073
-136.414	346.278	0.148	0.377
-135.399	-81.502	0.537	0.226
-134.385	-154.837	-0.256	-0.021
-133.370	602.626	-0.084	-0.271
-132.356	800.000	-0.043	0.172
-131.341	5.368	0.314	0.298
-130.326	89.278	-0.354	0.508
-129.312	-61.450	-0.350	0.189
-128.297	800.000	-0.095	0.397
-127.283	-53.587	-0.071	-0.042
-126.268	-200.000	0.011	0.155
-125.253	-135.684	0.518	-0.078
-124.239	311.059	-0.018	-0.042
-123.224	666.718	-0.078	0.261
-122.210	-103.802	0.152	0.046
-121.195	-151.471	0.414	-0.039
-120.180	57.942	-0.109	0.137
-119.166	312.412	0.086	-0.209
-118.151	169.077	0.129	0.237
-117.137	800.000	0.074	-0.295
-116.122	127.674	-0.135	0.221
-115.107	40.353	-0.183	0.212
-114.093	800.000	-0.130	0.512
-113.078	-200.000	-0.006	-0.170
-112.064	-81.968	-0.359	-0.150
-111.049	235.152	0.160	0.340
-110.034	321.810	0.044	-0.109
-109.020	-200.000	0.045	0.481
-108.005	119.509	0.044	0.070
-106.991	125.795	-0.023	0.038
-105.976	63.382	-0.402	0.519
-104.962	-4.214	0.240	-0.214
-103.947	-200.000	-0.000	0.031
-102.932	-57.514	0.039	0.022
-101.918	-115.062	-0.385	0.093
-100.903	108.838	-0.302	0.464
-99.889	-64.992	-0.207	0.107
-98.874	339.895	-0.106	-0.268
-97.859	-28.288	0.219	-0.162
-96.845	2.164	0.130	0.121
-95.830	-49.406	0.220	-0.134
-94.816	-44.721	0.212	0.135
-93.801	-200.000	0.036	-0.237
-92.786	-33.248	-0.321	0.228
-91.772	-68.365	0.212	-0.105
-90.757	-73.600	-0.214	0.100
-89.743	-78.032	-0.493	-0.217
-88.728	-0.897	-0.061	0.055
-87.713	-29.761	-0.195	-0.143
-86.699	47.561	-0.051	0.061
-85.684	-34.632	0.331	-0.232
-84.670	800.000	-0.051	-0.213
-83.655	26.325	0.263	-0.283
-82.640	339.818	0.087	-0.218
-81.626	-200.000	0.003	0.028
-80.611	-54.809	-0.240	-0.139
-79.597	-126.760	0.274	-0.051
-78.582	62.411	0.161	-0.207
-77.567	31.873	0.148	-0.163
-76.553	-66.347	0.217	0.110
-75.538	66.208	0.028	0.037
-74.524	-97.398	0.465	0.154
-73.509	-171.629	0.168	0.007
-72.494	-167.646	0.427	-0.021
-71.480	-166.752	0.244	-0.013
-70.465	-73.993	-0.378	-0.175
-69.451	147.758	-0.313	-0.544
-68.436	97.781	-0.225	-0.332
-67.422	-157.222	0.325	0.025
-66.407	-11.219	-0.254	0.215
-65.392	-145.681	0.351	0.040
-64.378	571.105	0.196	0.614
-63.363	317.375	-0.047	-0.114
-62.349	-8.611	-0.459	0.395
-61.334	41.602	-1.930	-2.243
-60.319	42.409	0.754	0.880
-59.305	311.232	-3.176	-7.669
-58.290	68.614	3.317	4.369
-57.276	610.712	3.220	10.383
-56.261	-200.000	18.596	288.713
-55.246	381.108	1262.260	3338.155
-54.232	55.530	2837.937	3526.770
-53.217	54.439	2687.006	3322.239
-52.203	37.391	2415.554	2747.021
-51.188	33.016	2075.327	2306.461
-50.173	29.166	1956.182	2129.318
-49.159	27.926	1944.924	2102.647
-48.144	27.600	1941.467	2095.061
-47.130	27.504	1939.507	2091.756
-46.115	27.545	1937.275	2089.738
-45.100	27.704	1935.449	2089.515
-44.086	27.483	1935.156	2086.572
-43.071	27.620	1932.648	2085.354
-42.057	27.474	1932.319	2083.242
-41.042	27.427	1930.734	2080.909
-40.027	27.492	1929.556	2080.300
-39.013	27.517	1927.255	2078.023
-37.998	27.468	1926.148	2076.185
-36.984	27.359	1925.013	2073.635
-35.969	27.410	1923.655	2072.677
-34.954	27.345	1922.204	2070.284
-33.940	27.335	1921.579	2069.411
-32.925	27.364	1920.652	2068.661
-31.911	27.363	1919.393	2067.215
-30.896	27.185	1917.743	2063.332
-29.881	27.338	1915.284	2062.344
-28.867	27.310	1913.962	2060.513
-27.852	27.455	1912.320	2060.315
-26.838	27.272	1911.431	2057.199
-25.823	27.297	1910.269	2056.153
-24.809	27.256	1909.530	2054.811
-23.794	27.235	1907.715	2052.529
-22.779	27.219	1906.407	2050.866
-21.765	27.315	1905.346	2050.728
-20.750	27.339	1904.073	2049.556
-19.736	27.115	1904.192	2047.054
-18.721	27.175	1902.256	2045.580
-17.706	27.183	1900.967	2044.204
-16.692	27.221	1899.496	2042.969
-15.677	27.203	1898.986	2042.137
-14.663	27.046	1897.312	2038.483
-13.648	27.175	1895.323	2037.721
-12.633	27.189	1894.206	2036.588
-11.619	27.167	1892.715	2034.666
-10.604	27.156	1891.562	2033.212
-9.590	27.159	1890.357	2031.870
-8.575	27.114	1889.794	2030.685
-7.560	27.175	1888.308	2029.690
-6.546	27.183	1886.792	2028.069
-5.531	27.083	1885.536	2025.516
-4.517	27.138	1884.510	2024.952
-3.502	27.154	1883.462	2023.928
-2.487	27.233	1882.149	2023.314
-1.473	27.325	1878.415	2020.245
-0.458	26.604	1859.503	1991.860
0.556	22.041	2001.842	2077.665
1.571	19.915	2207.269	2262.688
2.586	20.809	2248.165	2316.290
3.600	20.891	2250.656	2319.680
4.615	20.943	2249.442	2318.845
5.629	20.813	2247.082	2314.403
6.644	20.817	2245.278	2312.313
7.659	20.817	2243.956	2310.676
8.673	20.803	2242.387	2308.605
9.688	20.583	2250.582	2313.819
10.702	19.255	2328.503	2375.251
11.717	17.221	2392.563	2411.328
12.731	8.277	2370.448	2261.836
13.746	1.141	2351.901	2142.761
14.761	0.244	2348.287	2126.478
15.775	0.122	2345.482	2121.961
16.790	0.085	2344.586	2120.371
17.804	-0.004	2343.297	2117.687
18.819	0.011	2342.349	2116.792
19.834	0.020	2340.445	2114.948
20.848	0.118	2337.771	2113.662
21.863	0.048	2336.960	2111.688
22.877	0.037	2334.372	2108.938
23.892	0.078	2332.714	2107.762
24.907	0.041	2330.608	2105.092
25.921	-0.027	2329.359	2102.761
26.936	-0.066	2327.227	2100.030
27.950	0.125	2323.024	2098.665
28.965	0.029	2321.539	2095.721
29.980	0.102	2319.951	2095.072
30.994	0.133	2317.944	2093.442
32.009	3.982	2329.690	2157.808
33.023	13.794	2359.515	2323.869
34.038	18.025	2365.534	2389.116
35.053	17.983	2362.277	2384.950
36.067	17.753	2359.559	2378.699
37.082	17.647	2358.190	2375.547
38.096	17.825	2356.829	2376.381
39.111	18.183	2353.611	2377.859
40.126	18.394	2352.409	2379.300
41.140	18.447	2351.981	2379.322
42.155	18.475	2349.887	2377.314
43.169	18.565	2346.607	2374.965
44.184	18.261	2344.285	2368.100
45.199	18.134	2342.349	2364.093
46.213	18.338	2341.531	2365.822
47.228	18.466	2341.556	2367.335
48.242	18.418	2339.314	2364.119
49.257	18.552	2337.419	2363.780
50.271	18.713	2333.949	2362.219
51.286	18.298	2332.171	2354.403
52.301	18.082	2330.248	2349.197
53.315	19.208	2332.399	2366.635
54.330	22.464	2342.344	2421.525
55.344	24.655	2343.601	2452.796
56.359	24.710	2342.460	2452.063
57.374	24.960	2342.009	2454.740
58.388	25.157	2337.929	2452.884
59.403	24.714	2333.442	2441.794
60.417	24.327	2329.485	2432.064
61.432	24.534	2328.763	2433.861
62.447	24.624	2327.584	2433.565
63.461	24.694	2326.664	2433.265
64.476	24.874	2324.435	2433.109
65.490	24.771	2321.880	2428.733
66.505	23.746	2318.850	2411.291
67.520	21.317	2309.647	2368.394
68.534	18.728	2299.935	2322.987
69.549	18.090	2295.087	2309.141
70.563	17.949	2292.441	2304.292
71.578	17.986	2290.966	2303.044
72.593	18.162	2289.308	2303.479
73.607	18.329	2285.702	2301.827
74.622	18.266	2284.217	2299.209
75.636	18.085	2281.275	2293.539
76.651	18.070	2278.862	2290.625
77.666	17.885	2277.611	2286.610
78.680	17.841	2274.955	2283.077
79.695	17.720	2271.631	2277.839
80.709	17.513	2270.150	2273.309
81.724	17.441	2268.181	2270.103
82.739	17.520	2266.395	2269.103
83.753	17.535	2264.454	2267.077
84.768	17.431	2262.669	2263.630
85.782	17.376	2261.769	2261.728
86.797	17.267	2259.098	2257.326
87.812	17.378	2256.259	2255.708
88.826	17.505	2255.474	2256.335
89.841	17.597	2253.136	2254.958
90.855	17.494	2250.444	2250.628
91.870	17.531	2249.547	2249.954
92.884	17.527	2247.101	2247.184
93.899	17.707	2246.099	2248.293
94.914	18.550	2250.004	2263.119
95.928	21.457	2259.049	2310.606
96.943	22.536	2257.331	2322.877
97.957	19.611	2244.878	2271.188
98.972	17.701	2238.216	2238.988
99.987	17.476	2235.173	2232.704
101.001	17.587	2231.137	2229.865
102.016	17.483	2229.826	2226.918
103.030	17.409	2227.819	2223.686
104.045	17.426	2225.764	2221.587
105.060	17.489	2224.138	2220.529
106.074	17.495	2222.275	2218.478
107.089	17.648	2220.603	2218.547
108.103	17.537	2220.021	2216.249
109.118	17.726	2218.358	2216.789
110.133	17.798	2216.945	2216.050
111.147	17.573	2215.328	2211.228
112.162	17.673	2213.323	2210.271
113.176	17.773	2211.371	2209.364
114.191	17.981	2209.650	2210.084
115.206	17.957	2208.271	2208.123
116.220	17.947	2206.361	2205.816
117.235	17.927	2204.656	2203.596
118.249	18.106	2202.173	2203.167
119.264	17.986	2201.213	2200.394
120.279	18.008	2198.896	2198.090
121.293	17.972	2197.088	2195.553
122.308	17.902	2196.625	2193.923
123.322	17.871	2194.947	2191.589
124.337	18.354	2195.990	2198.605
125.352	21.482	2205.238	2248.073
126.366	22.286	2203.971	2256.875
127.381	19.318	2191.779	2206.003
128.395	17.919	2186.350	2182.316
129.410	17.878	2183.152	2178.333
130.424	17.711	2182.117	2174.897
131.439	17.783	2180.698	2174.154
132.454	17.904	2178.573	2173.317
133.468	18.147	2176.438	2174.036
134.483	18.198	2176.375	2174.361
135.497	18.243	2174.502	2172.808
136.512	18.171	2171.342	2168.470
137.527	18.092	2168.877	2164.741
138.541	17.689	2167.769	2158.254
139.556	17.839	2167.211	2159.352
140.570	17.658	2165.575	2155.153
141.585	17.598	2162.261	2150.837
142.600	17.575	2161.574	2149.613
143.614	17.460	2159.401	2145.730
144.629	17.323	2157.539	2141.890
145.643	17.334	2155.877	2140.127
146.658	17.279	2154.238	2137.539
147.673	17.347	2152.457	2136.386
148.687	17.294	2151.490	2134.494
149.702	17.419	2149.938	2134.278
150.716	17.471	2148.357	2133.107
151.731	17.583	2147.227	2133.136
152.746	17.648	2147.321	2133.799
153.760	18.482	2151.391	2148.098
154.775	21.650	2159.790	2196.216
155.789	22.716	2158.738	2208.308
156.804	19.899	2145.140	2158.869
157.819	17.734	2138.063	2124.403
158.833	17.321	2134.822	2115.757
159.848	17.411	2132.958	2114.789
160.862	17.632	2132.115	2116.457
161.877	17.770	2130.871	2116.695
162.892	17.852	2129.691	2116.289
163.906	17.834	2128.649	2114.767
164.921	17.865	2125.663	2111.943
165.935	17.723	2123.801	2108.065
166.950	17.834	2123.966	2109.360
167.964	17.937	2121.235	2107.673
168.979	17.774	2118.175	2102.363
169.994	17.635	2116.211	2098.446
171.008	17.548	2114.450	2095.363
172.023	17.545	2113.468	2094.110
173.037	17.544	2113.093	2093.471
174.052	17.842	2111.194	2095.018
175.067	17.731	2109.919	2092.132
176.081	17.602	2108.597	2088.981
177.096	17.795	2107.894	2090.417
178.110	17.999	2106.218	2091.008
179.125	17.966	2105.656	2089.797
180.140	17.923	2103.943	2087.317
181.154	17.932	2102.845	2086.092
182.169	18.080	2101.496	2086.318
183.183	18.984	2105.557	2101.205
184.198	22.458	2112.831	2150.936
185.213	23.218	2109.228	2156.323
186.227	19.732	2099.037	2103.103
187.242	18.278	2094.646	2080.689
188.256	18.051	2092.544	2075.587
189.271	17.908	2089.544	2070.614
190.286	17.833	2088.111	2068.039
191.300	17.835	2085.803	2065.530
192.315	17.949	2084.224	2065.103
193.329	18.117	2084.200	2066.878
194.344	18.302	2083.716	2068.394
195.359	18.457	2081.974	2068.297
196.373	18.046	2079.161	2060.270
197.388	17.844	2076.089	2054.538
198.402	17.743	2074.391	2051.388
199.417	17.656	2071.533	2047.266
200.432	17.703	2070.815	2046.883
201.446	17.658	2069.927	2045.217
202.461	17.651	2067.073	2042.068
203.475	17.519	2065.380	2038.566
204.490	17.494	2062.753	2035.418
205.504	17.559	2059.909	2033.158
206.519	17.584	2058.066	2031.389
207.534	17.613	2056.784	2030.228
208.548	17.585	2056.920	2029.787
209.563	17.802	2055.847	2031.082
210.577	17.958	2053.985	2030.863
211.592	17.943	2053.920	2030.378
212.607	19.281	2059.978	2052.153
213.621	22.926	2068.234	2103.836
214.636	22.573	2061.354	2092.385
215.650	19.049	2050.674	2039.385
216.665	17.954	2046.839	2022.303
217.680	17.922	2044.526	2019.384
218.694	17.742	2041.706	2014.224
219.709	17.500	2041.341	2010.756
220.723	17.589	2040.421	2010.664
221.738	17.837	2037.942	2010.921
222.753	18.096	2037.046	2012.856
223.767	17.984	2035.122	2009.392
224.782	17.970	2032.843	2006.731
225.796	17.826	2031.356	2003.325
226.811	17.781	2029.740	2000.960
227.826	17.826	2028.377	1999.906
228.840	17.777	2027.658	1998.379
229.855	17.784	2025.828	1996.426
230.869	17.753	2024.104	1994.120
231.884	17.717	2023.001	1992.373
232.899	17.794	2021.837	1991.897
233.913	17.966	2020.673	1992.523
234.928	17.917	2019.750	1990.806
235.942	17.828	2017.844	1987.646
236.957	17.927	2016.112	1986.852
237.972	17.930	2015.700	1986.244
238.986	17.885	2014.028	1983.840
240.001	17.828	2012.492	1981.419
241.015	17.933	2012.200	1982.119
242.030	18.922	2013.832	1995.033
243.045	21.912	2021.448	2037.286
244.059	22.555	2017.838	2040.899
245.074	19.377	2007.899	1993.730
246.088	18.245	2003.469	1975.961
247.103	18.421	2001.805	1976.129
248.117	18.364	2000.468	1973.904
249.132	18.151	1997.719	1968.492
250.147	18.018	1996.197	1965.217
251.161	18.142	1994.413	1964.662
252.176	18.201	1994.008	1964.704
253.190	18.452	1991.967	1965.353
254.205	18.629	1990.313	1965.524
255.220	18.616	1989.812	1964.644
256.234	18.311	1988.837	1959.944
257.249	18.133	1986.784	1955.634
258.263	17.772	1984.801	1949.307
259.278	17.758	1982.891	1947.032
260.293	17.714	1981.766	1945.194
261.307	17.751	1978.797	1942.467
262.322	17.571	1977.570	1938.972
263.336	17.544	1975.314	1936.225
264.351	17.394	1973.544	1932.538
265.366	17.295	1971.636	1929.315
266.380	17.343	1971.994	1929.981
267.395	17.491	1969.636	1929.123
268.409	17.559	1968.023	1928.085
269.424	17.601	1967.554	1927.876
270.439	17.639	1966.982	1927.516
271.453	18.889	1970.263	1944.725
272.468	22.256	1977.451	1989.946
273.482	22.616	1973.311	1989.628
274.497	19.317	1961.875	1940.593
275.512	17.832	1957.296	1919.056
276.526	17.511	1956.130	1914.063
277.541	17.642	1953.133	1912.380
278.555	17.507	1950.872	1908.408
279.570	17.418	1948.886	1905.236
280.585	17.546	1948.882	1906.442
281.599	17.550	1947.907	1905.310
282.614	17.850	1947.129	1907.688
283.628	18.255	1946.815	1911.709
284.643	18.420	1945.678	1912.216
285.657	18.437	1945.207	1911.714
286.672	18.714	1942.477	1911.902
287.687	18.469	1941.256	1907.731
288.701	18.399	1939.767	1905.249
289.716	18.228	1938.973	1902.340
290.730	18.433	1937.738	1903.186
291.745	18.540	1935.404	1901.858
292.760	18.307	1935.048	1898.686
293.774	18.230	1934.497	1897.057
294.789	18.261	1932.499	1895.213
295.803	18.098	1929.191	1889.929
296.818	18.110	1927.861	1888.533
297.833	18.132	1927.595	1888.300
298.847	18.070	1926.581	1886.381
299.862	18.039	1925.187	1884.452
300.876	18.931	1927.228	1896.116
301.891	22.309	1934.664	1940.733
302.906	22.969	1931.426	1944.554
303.920	19.541	1921.583	1896.628
304.935	18.296	1917.197	1878.343
305.949	18.240	1914.491	1874.850
306.964	18.166	1912.280	1871.643
307.979	18.155	1911.165	1870.210
308.993	18.443	1910.501	1872.497
310.008	18.668	1909.608	1873.868
311.022	18.622	1908.749	1872.299
312.037	18.336	1906.932	1867.158
313.052	18.358	1905.384	1865.662
314.066	18.454	1903.373	1864.515
315.081	18.501	1901.922	1863.389
316.095	18.366	1901.082	1860.862
317.110	17.962	1899.727	1854.908
318.125	17.890	1897.915	1852.135
319.139	17.984	1895.968	1851.037
320.154	18.044	1895.224	1850.743
321.168	18.078	1892.362	1848.094
322.183	17.920	1891.046	1844.865
323.197	17.741	1889.524	1841.222
324.212	17.622	1887.410	1837.657
325.227	17.507	1885.705	1834.521
326.241	17.390	1884.249	1831.629
327.256	17.460	1882.762	1830.721
328.270	17.475	1881.947	1829.863
329.285	17.614	1882.325	1831.516
330.300	18.832	1887.043	1849.069
331.314	22.384	1893.955	1894.113
332.329	22.431	1889.045	1889.487
333.343	19.032	1877.487	1841.199
334.358	17.596	1873.515	1821.658
335.373	17.473	1871.433	1818.095
336.387	17.476	1869.104	1815.649
337.402	17.379	1868.490	1813.801
338.416	17.575	1866.687	1813.921
339.431	17.725	1866.224	1814.862
340.446	17.709	1864.743	1813.031
341.460	17.996	1864.086	1815.241
342.475	18.365	1862.724	1817.642
343.489	18.478	1861.378	1817.316
344.504	18.312	1860.980	1814.943
345.519	18.342	1858.912	1813.024
346.533	18.428	1857.851	1812.681
347.548	18.501	1856.555	1811.980
348.562	19.043	1856.679	1817.642
349.577	20.215	1858.488	1831.642
350.592	19.765	1855.809	1824.017
351.606	18.950	1853.406	1812.794
352.621	18.762	1850.292	1807.551
353.635	18.249	1848.601	1800.258
354.650	18.206	1847.382	1798.401
355.665	18.127	1845.447	1795.463
356.679	18.139	1842.761	1792.765
357.694	18.066	1842.375	1791.409
358.708	17.868	1841.402	1788.164
359.723	19.275	1846.162	1807.409
360.738	22.773	1852.680	1850.515
361.752	22.428	1847.074	1841.062
362.767	19.297	1837.739	1798.749
363.781	18.267	1833.392	1783.498
364.796	17.985	1832.165	1779.138
365.810	17.859	1830.559	1776.047
366.825	18.005	1829.814	1776.632
367.840	18.101	1828.778	1776.416
368.854	18.139	1827.678	1775.542
369.869	17.978	1825.576	1771.608
370.883	18.119	1825.183	1772.478
371.898	18.372	1823.994	1773.745
372.913	18.512	1823.113	1774.139
373.927	18.612	1822.018	1773.900
374.942	18.358	1820.792	1769.855
375.956	18.360	1819.484	1768.388
376.971	18.312	1817.114	1765.372
377.986	18.115	1814.908	1760.979
379.000	18.105	1813.683	1759.479
380.015	18.168	1812.424	1758.702
381.029	18.041	1810.230	1755.045
382.044	17.832	1807.988	1750.512
383.059	17.834	1805.747	1748.156
384.073	17.720	1805.323	1746.356
385.088	17.682	1805.086	1745.527
386.102	17.736	1803.700	1744.532
387.117	17.636	1801.420	1741.092
388.132	17.759	1801.755	1742.471
389.146	18.811	1805.695	1756.890
390.161	22.375	1811.976	1799.486
391.175	22.357	1804.340	1791.507
392.190	19.034	1794.848	1747.989
393.205	18.137	1791.712	1735.576
394.219	17.985	1789.664	1731.843
395.234	17.852	1788.918	1729.559
396.248	17.874	1786.719	1727.450
397.263	17.781	1785.159	1724.786
398.278	17.878	1783.423	1723.884
399.292	17.832	1782.152	1721.983
400.307	17.773	1781.823	1720.867
401.321	18.007	1780.293	1721.545
402.336	18.036	1779.185	1720.562
403.350	18.056	1777.872	1719.294
404.365	18.146	1777.160	1719.307
405.380	18.328	1776.133	1719.946
406.394	18.536	1775.419	1721.150
407.409	18.456	1774.417	1719.160
408.423	18.649	1772.860	1719.394
409.438	18.708	1770.734	1717.722
410.453	18.391	1770.088	1713.696
411.467	18.523	1769.178	1713.942
412.482	18.416	1767.390	1710.930
413.496	18.082	1765.537	1705.579
414.511	18.015	1763.736	1702.968
415.526	17.930	1761.219	1699.481
416.540	17.841	1760.172	1697.375
417.555	17.856	1759.551	1696.725
418.569	18.183	1759.218	1699.465
419.584	18.121	1758.956	1698.388
420.599	18.114	1758.819	1697.983
421.613	17.998	1756.944	1694.811
422.628	18.017	1755.221	1693.139
423.642	17.885	1753.701	1690.161
424.657	17.891	1752.601	1688.950
425.672	18.207	1750.938	1690.286
426.686	18.310	1749.936	1690.142
427.701	18.249	1748.474	1687.921
428.715	18.363	1747.406	1687.816
429.730	18.572	1746.432	1688.746
430.745	18.439	1745.059	1685.901
431.759	18.438	1744.438	1685.083
432.774	18.677	1745.425	1688.201
433.788	19.174	1745.976	1693.442
434.803	19.479	1744.923	1695.239
435.818	19.574	1743.312	1694.402
436.832	19.531	1742.735	1693.212
437.847	18.655	1735.935	1677.799
438.861	10.552	1715.149	1578.540
439.876	1.905	1698.966	1479.388
440.890	0.337	1694.768	1460.289
441.905	0.161	1693.923	1457.674
442.920	0.251	1691.939	1456.674
443.934	0.174	1691.195	1455.102
444.949	0.164	1689.810	1453.647
445.963	0.021	1689.746	1452.031
446.978	0.018	1689.093	1451.262
447.993	0.074	1687.049	1449.880
449.007	0.229	1683.953	1448.542
450.022	0.188	1682.607	1446.811
451.036	0.211	1681.240	1445.684
452.051	1.024	1685.574	1457.098
453.066	9.258	1704.059	1553.144
454.080	17.673	1717.933	1647.685
455.095	20.119	1722.498	1675.667
456.109	21.322	1723.670	1688.295
457.124	21.652	1723.603	1691.233
458.139	21.845	1723.172	1692.482
459.153	22.036	1721.561	1692.546
460.168	22.008	1719.600	1690.146
461.182	21.703	1718.403	1685.811
462.197	21.615	1716.484	1682.878
463.212	21.589	1713.867	1679.858
464.226	21.581	1713.659	1679.380
465.241	21.828	1713.109	1681.016
466.255	22.108	1712.627	1683.040
467.270	22.160	1710.243	1680.997
468.285	21.795	1708.972	1676.036
469.299	21.606	1707.041	1672.129
470.314	21.737	1705.633	1671.805
471.328	21.878	1704.308	1671.664
472.343	21.765	1704.556	1670.624
473.358	22.066	1702.530	1671.320
474.372	22.082	1700.805	1669.570
475.387	21.829	1699.312	1665.490
476.401	21.685	1697.974	1662.605
477.416	21.544	1696.988	1660.099
478.430	21.850	1696.006	1661.857
479.445	21.657	1694.602	1658.441
480.460	21.304	1693.372	1653.689
481.474	21.688	1691.657	1655.463
482.489	22.007	1692.242	1658.860
483.503	22.411	1690.827	1661.115
484.518	22.354	1689.881	1659.447
485.533	22.292	1687.998	1656.805
486.547	22.171	1686.027	1653.536
487.562	22.643	1685.872	1657.640
488.576	22.567	1684.817	1655.685
489.591	22.398	1683.766	1652.860
490.606	22.278	1681.248	1649.060
491.620	22.239	1679.720	1647.004
492.635	22.583	1678.755	1649.094
493.649	22.884	1678.625	1651.601
494.664	22.183	1675.960	1642.201
495.679	21.533	1672.863	1632.873
496.693	21.716	1672.420	1633.958
497.708	22.079	1672.365	1637.107
498.722	22.639	1671.243	1641.060
499.737	22.645	1670.197	1639.894
500.752	22.430	1667.172	1634.722
501.766	22.280	1665.593	1631.573
502.781	22.216	1665.761	1630.947
503.795	22.333	1664.113	1630.230
504.810	22.291	1663.226	1628.777
505.825	22.612	1662.576	1630.925
506.839	22.641	1660.956	1629.417
507.854	22.632	1659.420	1627.626
508.868	22.735	1657.909	1626.905
509.883	22.572	1657.374	1624.676
510.898	22.790	1656.555	1625.694
511.912	22.422	1654.875	1620.447
512.927	22.223	1652.525	1616.114
513.941	22.209	1651.003	1614.310
514.956	22.156	1649.601	1612.253
515.971	22.269	1647.935	1611.470
516.985	22.431	1647.033	1611.891
518.000	22.482	1647.482	1612.600
519.014	22.837	1646.713	1614.926
520.029	22.924	1645.181	1614.022
521.043	22.847	1643.633	1611.606
522.058	22.483	1642.915	1607.374
523.073	22.830	1642.252	1609.716
524.087	23.166	1641.910	1612.262
525.102	23.136	1639.453	1609.378
526.116	22.558	1636.930	1601.431
527.131	22.459	1636.403	1599.819
528.146	23.006	1636.745	1604.957
529.160	23.024	1635.826	1604.032
530.175	23.218	1634.473	1604.281
531.189	23.309	1633.366	1603.833
532.204	23.378	1632.257	1603.176
533.219	22.762	1629.911	1595.083
534.233	22.454	1628.231	1590.452
535.248	22.740	1628.263	1592.889
536.262	23.379	1628.722	1598.942
537.277	23.284	1626.729	1595.940
538.292	23.118	1624.185	1591.752
539.306	22.913	1622.630	1588.183
540.321	23.030	1621.069	1587.517
541.335	22.723	1620.137	1583.653
542.350	22.989	1618.495	1584.255
543.365	23.331	1617.608	1586.272
544.379	23.498	1616.341	1586.345
545.394	23.424	1615.181	1584.347
546.408	22.970	1613.411	1578.350
547.423	22.419	1610.310	1570.183
548.438	22.301	1609.717	1568.367
549.452	22.779	1608.957	1571.718
550.467	22.939	1608.159	1572.181
551.481	23.012	1607.893	1572.383
552.496	23.221	1608.050	1574.213
553.511	23.582	1607.056	1576.283
554.525	23.428	1605.684	1573.373
555.540	23.699	1605.294	1575.219
556.554	23.841	1603.795	1574.819
557.569	23.515	1602.120	1570.085
558.583	23.416	1600.231	1567.172
559.598	23.192	1599.115	1563.899
560.613	23.258	1597.869	1563.079
561.627	23.424	1596.525	1563.052
562.642	23.578	1596.030	1563.741
563.656	23.945	1595.035	1565.827
564.671	23.779	1594.298	1563.451
565.686	23.768	1592.397	1561.301
566.700	23.528	1590.663	1557.299
567.715	23.282	1589.452	1553.759
568.729	23.020	1587.427	1549.284
569.744	22.897	1584.415	1545.078
570.759	22.904	1583.983	1544.531
571.773	23.036	1584.174	1545.690
572.788	23.386	1583.274	1547.700
573.802	23.519	1582.037	1547.473
574.817	23.701	1581.056	1547.924
575.832	23.917	1579.982	1548.579
576.846	23.865	1578.477	1546.459
577.861	23.808	1576.930	1544.262
578.875	23.753	1576.548	1543.229
579.890	24.095	1576.080	1545.563
580.905	24.012	1575.263	1543.853
581.919	24.116	1574.675	1544.005
582.934	24.416	1573.579	1545.353
583.948	24.359	1572.425	1543.543
584.963	24.111	1570.615	1539.422
585.978	23.808	1568.189	1534.230
586.992	23.919	1568.166	1534.993
588.007	24.139	1567.640	1536.196
589.021	23.540	1564.721	1527.969
590.036	22.764	1563.130	1519.520
591.051	23.377	1562.422	1523.953
592.065	23.911	1562.196	1528.162
593.080	24.076	1560.601	1527.840
594.094	24.174	1558.435	1526.379
595.109	23.638	1555.861	1519.072
596.123	23.093	1554.470	1512.850
597.138	23.637	1554.813	1517.678
598.153	23.921	1553.960	1519.102
599.167	23.992	1552.347	1517.946
600.182	23.795	1552.109	1515.847
601.196	24.071	1550.980	1516.925
602.211	24.033	1550.212	1515.665
603.226	24.244	1549.341	1516.438
604.240	24.469	1547.960	1516.832
605.255	24.541	1547.123	1516.440
606.269	24.478	1546.183	1514.797
607.284	24.291	1545.176	1512.039
608.299	24.351	1542.655	1509.900
609.313	24.237	1541.424	1507.544
610.328	24.020	1540.825	1504.932
611.342	24.396	1538.846	1506.011
612.357	24.619	1538.801	1507.685
613.372	24.677	1537.332	1506.553
614.386	24.376	1536.215	1502.727
615.401	24.608	1535.827	1504.133
616.415	24.555	1535.644	1503.324
617.430	24.554	1535.033	1502.538
618.445	24.724	1533.764	1502.552
619.459	24.534	1532.145	1499.185
620.474	24.001	1529.777	1492.194
621.488	23.528	1527.486	1485.800
622.503	23.100	1526.230	1480.804
623.518	23.922	1526.379	1487.686
624.532	24.487	1525.717	1491.605
625.547	24.583	1525.390	1491.911
626.561	24.820	1525.497	1493.831
627.576	25.021	1523.747	1493.618
628.591	24.477	1520.792	1485.992
629.605	24.106	1518.879	1480.849
630.620	23.860	1517.099	1476.878
631.634	23.356	1515.405	1470.848
632.649	23.776	1514.927	1473.716
633.663	24.280	1514.388	1477.210
634.678	24.659	1514.278	1480.080
635.693	25.043	1513.103	1481.952
636.707	25.082	1512.248	1481.261
637.722	25.417	1511.655	1483.283
638.736	25.358	1510.830	1481.806
639.751	25.406	1509.135	1480.366
640.766	25.162	1507.733	1476.790
641.780	25.134	1505.683	1474.379
642.795	24.945	1505.216	1472.179
643.809	25.018	1505.066	1472.462
644.824	25.183	1503.696	1472.305
645.839	25.018	1502.816	1469.907
646.853	25.132	1501.121	1469.013
647.868	25.095	1499.604	1467.045
648.882	24.743	1498.366	1462.768
649.897	24.930	1496.907	1462.705
650.912	24.830	1495.936	1460.756
651.926	24.859	1494.638	1459.550
652.941	24.487	1492.426	1454.173
653.955	24.007	1490.109	1447.814
654.970	23.609	1487.384	1441.747
655.985	23.512	1486.248	1439.685
656.999	23.666	1485.986	1440.510
658.014	23.992	1485.554	1442.579
659.028	24.392	1485.727	1445.833
660.043	24.626	1485.612	1447.452
661.058	24.833	1484.496	1447.873
662.072	24.922	1483.510	1447.467
663.087	24.975	1482.026	1446.271
664.101	24.729	1481.557	1443.651
665.116	24.990	1480.473	1444.533
666.131	25.041	1479.704	1444.023
667.145	24.982	1478.531	1442.232
668.160	25.383	1476.862	1443.667
669.174	25.538	1476.112	1444.012
670.189	25.485	1474.659	1441.992
671.204	25.242	1473.288	1438.519
672.218	25.187	1472.880	1437.504
673.233	25.524	1471.426	1438.627
674.247	25.696	1471.723	1440.133
675.262	25.795	1471.240	1440.279
676.276	25.780	1468.945	1437.737
677.291	25.465	1467.552	1433.682
678.306	25.203	1466.030	1429.919
679.320	25.163	1465.180	1428.602
680.335	25.236	1465.693	1429.513
681.349	25.621	1463.968	1430.741
682.364	25.510	1462.859	1428.598
683.379	25.630	1461.006	1427.573
684.393	25.474	1459.945	1425.127
685.408	25.484	1459.122	1424.230
686.422	25.348	1458.178	1422.054
687.437	25.516	1457.562	1422.624
688.452	25.594	1457.421	1422.931
689.466	25.671	1455.095	1421.105
690.481	25.493	1453.192	1417.662
691.495	24.993	1451.889	1412.258
692.510	24.326	1449.854	1404.836
693.525	23.858	1448.075	1399.237
694.539	24.292	1448.072	1402.501
695.554	25.069	1449.035	1409.407
696.568	25.540	1448.108	1412.059
697.583	25.758	1447.345	1412.867
698.598	25.631	1446.550	1410.920
699.612	25.819	1445.646	1411.348
700.627	25.903	1443.819	1410.058
701.641	25.833	1442.365	1407.920
702.656	25.926	1441.111	1407.255
703.671	26.078	1441.815	1408.967
704.685	26.127	1441.320	1408.705
705.700	25.910	1439.339	1404.900
706.714	25.690	1437.021	1400.744
707.729	25.448	1435.519	1397.218
708.744	25.262	1434.679	1394.784
709.758	25.220	1432.834	1392.494
710.773	24.839	1430.949	1387.529
711.787	24.485	1429.246	1382.951
712.802	24.821	1428.349	1384.533
713.816	25.215	1428.641	1387.721
714.831	25.501	1427.847	1389.001
715.846	25.877	1426.994	1390.920
716.860	25.948	1426.383	1390.710
717.875	25.760	1425.088	1387.823
718.889	25.627	1424.102	1385.672
719.904	25.938	1422.407	1386.259
720.919	25.960	1421.391	1385.272
721.933	26.026	1421.011	1385.245
722.948	26.038	1420.604	1384.775
723.962	26.066	1419.196	1383.454
724.977	26.205	1418.245	1383.429
725.992	26.211	1417.700	1382.778
727.006	26.251	1415.999	1381.263
728.021	26.129	1414.707	1378.904
729.035	26.282	1413.714	1378.943
730.050	26.127	1412.612	1376.513
731.065	25.900	1412.001	1374.018
732.079	26.294	1410.878	1375.770
733.094	26.189	1409.124	1373.099
734.108	26.026	1407.483	1370.084
735.123	26.126	1406.356	1369.586
736.138	26.060	1405.264	1367.863
737.152	25.997	1405.115	1367.069
738.167	26.338	1404.177	1368.590
739.181	26.478	1402.764	1368.115
740.196	26.429	1401.907	1366.742
741.211	26.453	1401.583	1366.446
742.225	26.227	1400.520	1363.532
743.240	26.225	1399.191	1362.059
744.254	26.112	1397.997	1359.877
745.269	26.131	1397.039	1358.929
746.284	26.140	1395.181	1357.024
747.298	25.917	1393.554	1353.593
748.313	25.502	1392.440	1349.220
749.327	24.973	1391.079	1343.753
750.342	24.484	1388.978	1337.881
751.356	24.141	1387.040	1333.271
752.371	24.455	1386.925	1335.367
753.386	25.419	1387.444	1342.953
754.400	26.195	1387.087	1348.269
755.415	26.278	1386.339	1348.007
756.429	26.620	1384.586	1348.702
757.444	26.218	1384.503	1345.448
758.459	26.571	1383.155	1346.614
759.473	26.592	1382.424	1345.902
760.488	26.561	1380.818	1343.948
761.502	26.549	1379.227	1342.148
762.517	26.554	1378.211	1341.035
763.532	26.349	1376.264	1337.454
764.546	26.032	1374.630	1333.356
765.561	25.269	1373.008	1325.955
766.575	24.482	1371.244	1318.252
767.590	24.496	1370.449	1317.436
768.605	25.141	1370.321	1321.940
769.619	25.718	1370.144	1325.877
770.634	26.015	1369.761	1327.552
771.648	26.330	1369.261	1329.236
772.663	26.620	1368.490	1330.468
773.678	26.716	1367.487	1330.046
774.692	26.684	1367.021	1329.191
775.707	26.678	1366.473	1328.457
776.721	26.698	1365.491	1327.493
777.736	26.582	1364.710	1325.718
778.751	26.669	1363.905	1325.419
779.765	26.669	1362.439	1323.834
780.780	26.749	1361.687	1323.532
781.794	26.649	1360.581	1321.565
782.809	26.349	1359.810	1318.463
783.824	26.217	1358.188	1315.766
784.838	25.879	1354.492	1309.561
785.853	25.018	1353.398	1302.054
786.867	25.302	1353.580	1304.152
787.882	25.574	1354.095	1306.475
788.897	25.909	1353.273	1307.973
789.911	26.169	1352.429	1308.896
790.926	26.218	1351.422	1308.121
791.940	26.347	1350.117	1307.636
792.955	26.541	1348.970	1307.776
793.969	26.452	1348.198	1306.231
794.984	26.449	1347.568	1305.443
795.999	26.710	1346.503	1306.140
797.013	27.003	1344.433	1306.097
798.028	26.825	1343.363	1303.619
799.042	26.814	1343.566	1303.579
800.057	26.782	1342.389	1302.046
801.072	26.767	1341.131	1300.562
802.086	26.719	1339.847	1298.820
803.101	26.913	1338.427	1298.681
804.115	26.919	1337.491	1297.658
805.130	26.830	1336.666	1296.069
806.145	26.752	1335.377	1294.102
807.159	26.610	1333.717	1291.322
808.174	26.535	1332.152	1289.116
809.188	26.507	1331.083	1287.727
810.203	26.200	1329.508	1283.849
811.218	25.767	1327.221	1278.404
812.232	25.273	1325.179	1272.763
813.247	24.986	1324.622	1270.030
814.261	25.558	1325.259	1274.566
815.276	26.330	1324.628	1279.299
816.291	26.527	1323.819	1279.764
817.305	26.541	1323.579	1279.480
818.320	26.694	1322.216	1279.093
819.334	26.711	1320.877	1277.765
820.349	26.915	1319.651	1277.870
821.364	26.891	1318.578	1276.514
822.378	27.002	1317.013	1275.628
823.393	26.836	1315.393	1272.736
824.407	26.739	1314.860	1271.384
825.422	26.718	1314.575	1270.808
826.437	26.698	1312.899	1268.896
827.451	26.514	1310.119	1264.764
828.466	25.609	1307.643	1255.873
829.480	25.372	1305.960	1252.443
830.495	25.656	1305.259	1253.612
831.509	26.221	1304.778	1256.953
832.524	26.558	1304.592	1258.981
833.539	26.677	1304.189	1259.270
834.553	26.919	1303.069	1259.726
835.568	26.909	1301.927	1258.406
836.582	26.899	1301.032	1257.319
837.597	26.982	1299.338	1256.105
838.612	26.907	1297.450	1253.614
839.626	26.639	1296.153	1250.349
840.641	26.338	1294.864	1246.869
841.655	26.094	1293.280	1243.502
842.670	25.431	1290.744	1236.332
843.685	24.709	1289.638	1230.135
844.699	25.599	1289.800	1236.296
845.714	26.183	1289.791	1240.174
846.728	26.352	1289.141	1240.565
847.743	26.495	1288.502	1240.786
848.758	26.758	1287.499	1241.480
849.772	26.793	1286.471	1240.586
850.787	26.906	1285.226	1240.011
851.801	26.979	1283.671	1238.862
852.816	26.976	1282.254	1237.328
853.831	26.879	1280.583	1234.902
854.845	26.680	1279.605	1232.453
855.860	26.498	1277.858	1229.377
856.874	26.401	1276.126	1226.905
857.889	26.021	1274.751	1222.845
858.904	25.750	1272.669	1218.855
859.918	25.299	1270.405	1213.479
860.933	25.133	1269.220	1211.073
861.947	25.453	1269.409	1213.280
862.962	25.913	1268.574	1215.456
863.977	25.956	1267.707	1214.775
864.991	26.400	1267.238	1217.183
866.006	26.586	1267.012	1218.081
867.020	26.693	1266.053	1217.734
868.035	26.747	1265.121	1217.058
869.049	27.104	1264.040	1218.277
870.064	27.070	1263.843	1217.716
871.079	26.943	1262.955	1215.859
872.093	26.703	1262.218	1213.387
873.108	26.708	1260.479	1211.605
874.122	26.392	1258.712	1207.641
875.137	25.830	1257.673	1202.723
876.152	25.787	1256.364	1201.044
877.166	25.883	1255.061	1200.297
878.181	26.170	1254.556	1201.592
879.195	26.528	1254.126	1203.429
880.210	26.707	1253.957	1204.320
881.225	26.781	1253.079	1203.825
882.239	26.837	1251.694	1202.723
883.254	26.921	1250.865	1202.340
884.268	27.059	1250.050	1202.334
885.283	27.039	1248.249	1200.320
886.298	26.947	1246.777	1198.154
887.312	26.937	1246.173	1197.366
888.327	26.758	1245.710	1195.590
889.341	26.757	1243.818	1193.626
890.356	26.689	1243.520	1192.747
891.371	26.671	1243.182	1192.158
892.385	26.622	1241.760	1190.327
893.400	26.453	1240.720	1188.070
894.414	26.452	1238.599	1185.891
895.429	26.081	1236.435	1181.240
896.444	25.168	1233.793	1172.577
897.458	24.549	1232.766	1167.397
898.473	25.029	1232.984	1170.614
899.487	25.721	1233.191	1175.216
900.502	26.216	1232.513	1177.674
901.517	26.545	1231.734	1178.937
902.531	26.606	1230.955	1178.454
903.546	26.674	1230.377	1178.206
904.560	26.725	1229.964	1178.002
905.575	26.700	1229.305	1177.066
906.589	26.861	1228.110	1176.831
907.604	26.557	1227.290	1173.922
