DTS Sentinel unit serial number:	SN409020Multiplexer serial number:	ORYXHardware model number:	OX4-SRSoftware version number:	ORYX F/W v3.00 Oryx Data Collector v3.7.2.0data status	okinstallation	HaddamTimeLapsedifferential loss correction	single-endedforward channel	channel 3reverse channel	N/Adate	2011/06/22time	11:11:01forward acquisition time	30.00reverse acquisition time	0.00gamma	498.7831k internal	0.1766k external	0.1766temperature offset calibration	1.0074default loss term (dB/km)	0.3790temperature slope calibration	1.3530multiplexer offset coefficient	1.0000multiplexer slope coefficient	1.0000fibre end	0.00T internal ref (°C)	29.34T ext. ref 1 (°C)	24.32T ext. ref 2 (°C)	-0.10length (m)	temperature (°C)	Stokes	anti-Stokes-747.200	-78.787	-0.595	-0.266
-746.185	348.719	-0.171	0.446
-745.171	-174.724	-0.509	-0.019
-744.156	9.807	0.321	0.320
-743.142	258.460	0.227	-0.518
-742.127	-200.000	0.000	0.175
-741.112	-75.470	-0.045	0.021
-740.098	373.160	0.187	0.502
-739.083	34.325	-0.410	0.471
-738.069	139.194	-0.179	0.311
-737.054	-26.740	-0.299	-0.230
-736.039	216.447	0.101	-0.213
-735.025	-119.328	0.518	-0.118
-734.010	-111.323	0.149	-0.040
-732.996	115.975	0.267	0.432
-731.981	-200.000	0.035	-0.310
-730.966	-7.910	0.239	0.212
-729.952	-82.885	-0.585	0.247
-728.937	-106.635	-0.475	0.138
-727.923	-86.220	0.117	-0.047
-726.908	0.719	-0.096	-0.091
-725.894	-101.766	-0.581	0.184
-724.879	51.914	-0.268	-0.336
-723.864	-200.000	-0.019	-0.206
-722.850	800.000	-0.123	-0.660
-721.835	-200.000	-0.027	-0.448
-720.821	-113.503	-0.543	0.139
-719.806	-97.053	-0.430	0.147
-718.791	-65.675	0.120	-0.063
-717.777	6.159	-0.072	0.070
-716.762	-94.431	-0.227	-0.081
-715.748	-71.013	0.308	0.152
-714.733	29.946	-0.406	-0.455
-713.718	-63.931	-0.081	0.044
-712.704	-151.377	-0.313	0.030
-711.689	63.902	-0.211	-0.280
-710.675	67.781	-0.301	0.406
-709.660	-78.070	-0.390	0.176
-708.645	800.000	-0.051	0.246
-707.631	-65.682	-0.419	-0.220
-706.616	-97.009	-0.296	-0.101
-705.602	-149.328	0.356	-0.037
-704.587	-116.699	0.215	-0.052
-703.572	189.313	-0.086	0.169
-702.558	-200.000	-0.001	0.178
-701.543	-141.812	0.331	-0.043
-700.529	-70.192	-0.359	0.179
-699.514	-94.106	-0.356	0.128
-698.499	-60.232	0.404	0.226
-697.485	541.468	0.134	-0.423
-696.470	-200.000	0.054	-0.334
-695.456	53.042	0.306	-0.386
-694.441	-95.408	-0.166	0.058
-693.426	123.365	-0.087	0.144
-692.412	221.947	0.147	-0.312
-691.397	-160.481	-0.654	-0.045
-690.383	-119.646	-0.242	-0.055
-689.368	319.358	-0.063	0.158
-688.354	-18.816	0.107	-0.088
-687.339	-126.560	-0.081	0.016
-686.324	-35.869	-0.576	0.409
-685.310	-128.882	-0.216	-0.039
-684.295	92.517	0.380	-0.563
-683.281	-122.487	-0.184	0.039
-682.266	570.892	-0.044	-0.141
-681.251	494.135	0.132	0.400
-680.237	-200.000	0.100	-0.662
-679.222	-143.936	-0.347	-0.042
-678.208	-118.126	0.060	-0.014
-677.193	-59.795	0.342	0.191
-676.178	-102.358	-0.357	0.112
-675.164	-72.828	0.387	-0.186
-674.149	800.000	-0.132	0.505
-673.135	-200.000	-0.008	0.368
-672.120	33.866	0.027	0.031
-671.105	-93.810	-0.083	0.030
-670.091	13.496	-0.187	0.190
-669.076	-62.336	0.494	-0.269
-668.062	-130.924	-0.287	0.050
-667.047	36.669	0.178	0.207
-666.032	-200.000	0.012	-0.162
-665.018	-54.169	0.105	-0.062
-664.003	-200.000	-0.007	-0.252
-662.989	-2.227	-0.155	-0.143
-661.974	-107.627	-0.386	0.110
-660.959	-43.123	-0.328	0.218
-659.945	-89.634	0.294	-0.113
-658.930	-113.185	0.238	0.061
-657.916	-149.338	0.132	0.014
-656.901	-29.043	-0.213	0.160
-655.886	-110.051	0.272	0.074
-654.872	-93.315	0.746	0.270
-653.857	12.182	0.261	-0.263
-652.843	234.821	-0.153	-0.331
-651.828	650.864	0.074	0.249
-650.814	98.212	-0.197	-0.298
-649.799	751.492	0.082	-0.292
-648.784	133.907	-0.134	0.228
-647.770	-188.012	-0.430	-0.007
-646.755	-128.511	-0.359	0.066
-645.741	-129.991	-0.209	-0.037
-644.726	-5.366	-0.020	0.018
-643.711	194.791	0.152	-0.303
-642.697	-113.127	0.053	-0.014
-641.682	-80.491	0.097	-0.042
-640.668	-77.939	0.179	0.081
-639.653	311.530	-0.037	-0.091
-638.638	94.911	-0.230	-0.344
-637.624	-153.573	0.623	-0.056
-636.609	5.047	0.072	0.070
-635.595	-67.626	-0.484	0.248
-634.580	-168.144	0.149	0.007
-633.565	-23.593	-0.181	-0.143
-632.551	134.780	-0.129	-0.220
-631.536	474.209	-0.154	0.459
-630.522	-171.110	0.397	0.017
-629.507	206.245	0.180	0.368
-628.492	-120.075	-0.128	-0.029
-627.478	-70.732	0.355	-0.175
-626.463	-200.000	0.023	0.310
-625.449	162.394	0.141	-0.259
-624.434	-15.407	-0.302	-0.253
-623.419	756.120	0.094	-0.335
-622.405	800.000	0.108	-0.468
-621.390	-91.556	0.382	0.142
-620.376	-97.112	0.648	-0.221
-619.361	-141.144	0.207	0.027
-618.346	778.455	0.103	0.372
-617.332	-200.000	0.004	-0.322
-616.317	156.524	-0.166	-0.301
-615.303	264.792	0.198	0.453
-614.288	20.887	-0.202	0.215
-613.273	265.393	-0.086	0.196
-612.259	-130.389	0.305	0.054
-611.244	-145.562	0.300	0.035
-610.230	-75.678	0.611	0.283
-609.215	-104.035	0.306	-0.093
-608.201	-150.229	-0.322	-0.032
-607.186	-57.163	0.276	0.159
-606.171	-8.623	-0.161	0.142
-605.157	72.498	0.078	-0.107
-604.142	-131.360	-0.313	0.054
-603.128	46.867	-0.285	0.347
-602.113	-33.859	-0.520	-0.374
-601.098	-103.263	-0.394	-0.121
-600.084	-133.183	0.381	0.062
-599.069	28.188	0.232	0.257
-598.055	106.742	0.014	-0.023
-597.040	-35.092	-0.204	0.145
-596.025	20.681	-0.243	-0.257
-595.011	-200.000	0.153	0.000
-593.996	388.060	0.241	-0.655
-592.982	66.626	0.126	-0.169
-591.967	726.607	-0.054	0.189
-590.952	41.552	-0.323	-0.383
-589.938	-138.103	-0.376	0.054
-588.923	-39.935	-0.327	0.223
-587.909	13.366	0.378	0.383
-586.894	64.359	-0.155	0.204
-585.879	-200.000	0.092	0.793
-584.865	-145.817	0.171	0.020
-583.850	-157.239	-0.283	0.022
-582.836	712.325	0.145	0.506
-581.821	473.454	-0.055	0.162
-580.806	49.973	0.132	-0.163
-579.792	-136.486	-0.323	-0.049
-578.777	11.592	-0.256	0.257
-577.763	365.547	0.143	0.380
-576.748	-112.673	-0.154	0.040
-575.733	99.098	-0.140	-0.212
-574.719	-128.583	0.065	0.012
-573.704	-106.907	0.271	0.078
-572.690	124.307	0.244	-0.402
-571.675	-200.000	-0.013	-0.305
-570.661	800.000	0.017	-0.080
-569.646	-200.000	-0.018	0.413
-568.631	-200.000	0.008	-0.533
-567.617	52.345	-0.066	0.082
-566.602	49.180	0.134	-0.164
-565.588	564.625	-0.063	0.201
-564.573	-200.000	-0.006	0.417
-563.558	-36.974	0.027	-0.019
-562.544	117.441	-0.229	-0.369
-561.529	-25.923	0.122	0.094
-560.515	-60.613	-0.126	0.070
-559.500	63.054	0.069	-0.090
-558.485	-71.007	0.141	-0.069
-557.471	162.803	0.300	-0.551
-556.456	98.874	-0.238	-0.360
-555.442	-131.840	-0.146	-0.025
-554.427	-200.000	0.039	-0.356
-553.412	-80.907	-0.085	-0.037
-552.398	252.195	-0.248	0.556
-551.383	-30.364	-0.131	-0.097
-550.369	51.096	0.315	-0.391
-549.354	-200.000	-0.008	-0.180
-548.339	14.928	-0.056	-0.057
-547.325	-83.256	-0.522	-0.218
-546.310	800.000	0.090	0.438
-545.296	-200.000	0.023	0.238
-544.281	6.715	-0.435	-0.423
-543.266	10.436	-0.467	-0.465
-542.252	-17.924	0.379	-0.310
-541.237	-113.406	-0.226	-0.058
-540.223	-200.000	-0.041	0.536
-539.208	-106.160	-0.207	0.060
-538.193	-88.219	0.292	-0.114
-537.179	758.084	0.214	-0.763
-536.164	83.041	0.362	0.516
-535.150	-175.014	-0.448	0.016
-534.135	-115.066	-0.133	0.033
-533.121	-81.817	0.468	0.199
-532.106	159.624	0.253	-0.462
-531.091	-137.131	-0.204	0.030
-530.077	-63.717	0.101	-0.054
-529.062	800.000	0.086	0.329
-528.048	197.310	-0.096	0.193
-527.033	-200.000	0.018	-0.496
-526.018	-56.615	-0.379	-0.219
-525.004	-103.222	-0.700	-0.215
-523.989	19.310	0.291	-0.305
-522.975	-69.451	-0.286	0.143
-521.960	125.020	-0.075	-0.123
-520.945	-89.120	0.323	0.124
-519.931	-65.760	0.273	0.142
-518.916	-159.902	0.328	-0.023
-517.902	451.842	-0.038	0.109
-516.887	574.826	0.040	0.127
-515.872	1.528	0.493	0.463
-514.858	-200.000	0.057	0.512
-513.843	274.549	-0.114	0.265
-512.829	-30.359	0.318	-0.235
-511.814	-110.948	-0.362	-0.096
-510.799	-200.000	0.086	-0.532
-509.785	13.515	-0.682	-0.690
-508.770	44.515	-0.120	0.144
-507.756	-116.656	-0.269	-0.064
-506.741	800.000	-0.019	-0.104
-505.726	52.998	-0.103	-0.128
-504.712	89.933	0.213	0.311
-503.697	-200.000	-0.007	0.067
-502.683	47.775	0.175	-0.213
-501.668	-62.238	-0.520	-0.282
-500.653	36.280	-0.250	0.287
-499.639	-200.000	-0.012	0.574
-498.624	-200.000	-0.243	0.000
-497.610	-76.260	-0.326	0.149
-496.595	-168.492	0.149	0.007
-495.581	-137.059	0.278	0.041
-494.566	-80.859	-0.187	-0.080
-493.551	-200.000	0.005	0.214
-492.537	-23.386	-0.135	0.106
-491.522	800.000	0.017	-0.089
-490.508	-148.977	-0.158	0.016
-489.493	-51.508	0.525	0.319
-488.478	39.022	0.057	0.067
-487.464	-15.321	-0.148	-0.123
-486.449	572.830	-0.201	0.641
-485.435	138.994	0.270	-0.463
-484.420	-107.227	0.369	0.105
-483.405	-200.000	-0.025	0.218
-482.391	94.963	-0.172	-0.255
-481.376	-96.837	0.501	-0.171
-480.362	512.771	0.244	-0.744
-479.347	-21.858	-0.468	0.370
-478.332	-200.000	0.024	-0.395
-477.318	88.486	0.043	0.062
-476.303	117.480	-0.294	0.472
-475.289	-25.786	-0.281	-0.215
-474.274	405.932	-0.063	-0.175
-473.259	46.057	-0.170	0.206
-472.245	161.225	0.226	0.412
-471.230	90.276	0.189	-0.276
-470.216	80.983	0.402	0.566
-469.201	-40.103	-0.155	0.105
-468.186	-61.007	-0.257	0.141
-467.172	-200.000	0.073	0.536
-466.157	97.651	0.043	-0.064
-465.143	-200.000	0.003	0.048
-464.128	312.987	0.227	0.558
-463.113	140.591	0.151	-0.261
-462.099	-200.000	0.019	-0.152
-461.084	-200.000	-0.011	0.076
-460.070	12.143	-0.501	-0.502
-459.055	-200.000	-0.017	-0.405
-458.040	-81.365	0.241	0.103
-457.026	-200.000	0.285	-0.000
-456.011	705.930	-0.132	-0.456
-454.997	-200.000	0.006	-0.229
-453.982	199.892	-0.090	0.180
-452.968	-150.130	0.166	0.017
-451.953	-78.007	-0.748	-0.334
-450.938	800.000	-0.168	-0.780
-449.924	-100.065	0.581	-0.187
-448.909	11.841	-0.265	-0.265
-447.895	-120.793	-0.182	0.040
-446.880	-103.004	0.403	-0.124
-445.865	23.680	0.169	-0.181
-444.851	182.412	0.133	-0.257
-443.836	-79.008	-0.187	-0.083
-442.822	-77.959	-0.362	-0.162
-441.807	-200.000	0.010	-0.073
-440.792	-200.000	-0.007	0.148
-439.778	-200.000	-0.019	0.310
-438.763	176.987	-0.017	0.032
-437.749	198.286	-0.160	0.320
-436.734	-200.000	0.024	0.333
-435.719	-28.229	-0.324	-0.243
-434.705	273.576	-0.201	0.464
-433.690	34.297	-0.155	-0.176
-432.676	800.000	-0.089	0.357
-431.661	50.203	0.209	-0.257
-430.646	61.491	-0.513	-0.665
-429.632	-65.856	0.177	-0.092
-428.617	-90.718	-0.305	0.114
-427.603	-200.000	0.029	0.209
-426.588	-118.431	0.128	-0.029
-425.573	-152.266	0.496	0.046
-424.559	-127.824	-0.375	0.070
-423.544	49.023	0.172	-0.210
-422.530	-136.509	0.178	-0.027
-421.515	-200.000	0.010	0.448
-420.500	65.168	0.169	0.222
-419.486	186.120	0.251	0.487
-418.471	28.733	0.226	0.249
-417.457	-11.848	0.166	0.142
-416.442	-70.205	-0.230	0.113
-415.428	800.000	0.036	-0.183
-414.413	-73.903	0.143	0.067
-413.398	-81.321	0.241	0.103
-412.384	69.003	-0.127	-0.170
-411.369	-200.000	0.002	0.339
-410.355	-200.000	0.010	-0.295
-409.340	495.062	0.041	-0.122
-408.325	105.821	0.186	-0.287
-407.311	-54.092	-0.382	-0.225
-406.296	2.988	-0.358	-0.338
-405.282	59.034	0.226	-0.289
-404.267	153.264	-0.128	-0.229
-403.252	-200.000	0.006	0.111
-402.238	94.238	-0.056	-0.083
-401.223	-200.000	0.055	-0.520
-400.209	85.407	0.096	0.137
-399.194	-66.536	0.132	0.068
-398.179	379.832	0.017	0.044
-397.165	-5.853	0.234	-0.208
-396.150	-53.610	0.768	0.455
-395.136	-47.479	0.361	0.227
-394.121	-113.923	-0.157	0.039
-393.106	-165.935	0.525	-0.029
-392.092	214.967	-0.054	0.111
-391.077	105.966	0.047	-0.072
-390.063	-127.183	-0.326	-0.061
-389.048	83.764	0.210	0.298
-388.033	-200.000	-0.016	0.318
-387.019	-43.162	-0.214	-0.141
-386.004	-200.000	-0.012	-0.338
-384.990	-157.321	-0.675	0.052
-383.975	-14.887	-0.429	0.357
-382.960	-26.309	0.232	0.176
-381.946	-0.934	-0.259	-0.238
-380.931	-54.964	-0.235	0.137
-379.917	-126.956	-0.179	-0.034
-378.902	-45.509	-0.462	0.297
-377.888	-84.672	0.216	-0.088
-376.873	800.000	-0.132	-0.601
-375.858	151.142	-0.053	-0.094
-374.844	126.374	0.233	-0.384
-373.829	800.000	0.090	-0.341
-372.815	26.085	-0.163	-0.176
-371.800	22.133	-0.262	-0.278
-370.785	800.000	-0.089	-0.411
-369.771	63.381	-0.062	0.080
-368.756	-89.413	0.276	-0.105
-367.742	37.835	-0.190	0.219
-366.727	-29.537	-0.345	-0.256
-365.712	-147.224	-0.515	0.056
-364.698	113.310	0.078	-0.124
-363.683	-167.774	-0.366	-0.018
-362.669	-76.945	0.265	-0.120
-361.654	5.206	-0.142	-0.136
-360.639	531.424	-0.208	0.642
-359.625	800.000	0.029	0.147
-358.610	-150.724	0.302	-0.029
-357.596	-200.000	0.052	-0.375
-356.581	-200.000	0.005	-0.540
-355.566	-46.325	-0.115	-0.073
-354.552	-200.000	-0.023	-0.517
-353.537	-121.393	0.228	-0.049
-352.523	-40.698	0.311	-0.208
-351.508	800.000	0.115	-0.549
-350.493	-109.851	0.290	-0.078
-349.479	-116.313	0.093	-0.022
-348.464	-156.177	-0.600	-0.048
-347.450	-200.000	0.007	0.088
-346.435	800.000	0.039	-0.155
-345.420	146.425	-0.160	0.278
-344.406	122.863	-0.171	-0.278
-343.391	-38.223	-0.309	0.212
-342.377	56.360	-0.254	-0.320
-341.362	-200.000	0.025	0.329
-340.348	-200.000	0.016	-0.198
-339.333	134.943	0.185	-0.312
-338.318	-101.509	0.294	-0.092
-337.304	474.277	0.178	-0.522
-336.289	800.000	0.060	-0.218
-335.275	-146.975	0.152	0.017
-334.260	375.316	-0.193	-0.512
-333.245	439.038	-0.134	0.380
-332.231	102.937	-0.223	0.339
-331.216	128.987	0.015	-0.024
-330.202	800.000	-0.107	-0.553
-329.187	298.322	0.034	-0.081
-328.172	0.412	-0.357	-0.330
-327.158	-83.210	-0.400	0.166
-326.143	69.073	-0.339	0.451
-325.129	-147.666	-0.625	-0.067
-324.114	22.178	-0.311	0.329
-323.099	190.386	-0.051	-0.100
-322.085	800.000	-0.043	0.183
-321.070	-54.594	0.348	-0.204
-320.056	38.457	-0.299	-0.345
-319.041	800.000	0.073	0.414
-318.026	-130.351	0.199	-0.035
-317.012	800.000	0.037	-0.200
-315.997	9.278	-0.294	-0.288
-314.983	-200.000	-0.024	0.354
-313.968	-108.695	0.217	0.060
-312.953	-200.000	-0.535	0.000
-311.939	-200.000	-0.024	0.162
-310.924	-88.292	0.604	-0.233
-309.910	207.203	0.175	0.355
-308.895	-83.349	0.235	-0.097
-307.880	126.598	0.105	0.172
-306.866	-104.449	-0.402	0.120
-305.851	-17.753	-0.191	0.155
-304.837	26.756	-0.306	0.332
-303.822	-17.236	0.071	0.058
-302.807	-32.441	-0.504	-0.363
-301.793	508.645	-0.004	0.013
-300.778	450.226	0.063	0.182
-299.764	800.000	-0.095	0.360
-298.749	2.634	-0.162	-0.152
-297.735	-123.671	-0.234	-0.048
-296.720	-48.053	-0.477	0.297
-295.705	152.680	0.234	-0.414
-294.691	-200.000	-0.005	0.279
-293.676	156.836	0.065	0.117
-292.662	295.507	0.132	0.314
-291.647	-185.060	0.293	0.006
-290.632	323.394	0.076	0.188
-289.618	-114.135	0.528	0.131
-288.603	159.101	-0.265	0.478
-287.589	800.000	0.096	0.384
-286.574	98.228	-0.293	0.437
-285.559	-10.693	0.334	0.285
-284.545	-38.744	0.396	-0.270
-283.530	75.897	0.130	0.179
-282.516	-0.151	0.235	-0.216
-281.501	-144.543	-0.147	-0.017
-280.486	-102.427	-0.442	0.136
-279.472	-48.946	-0.346	-0.214
-278.457	-66.671	0.078	-0.040
-277.443	-58.428	-0.416	0.233
-276.428	454.410	-0.293	-0.845
-275.413	67.642	0.123	-0.163
-274.399	-48.241	-0.317	-0.198
-273.384	67.752	0.214	0.283
-272.370	-200.000	-0.018	0.772
-271.355	29.531	0.166	-0.183
-270.340	245.062	0.332	0.724
-269.326	-124.919	-0.372	-0.074
-268.311	-37.466	0.381	-0.262
-267.297	164.427	0.183	-0.335
-266.282	735.683	0.085	-0.297
-265.267	-133.993	0.036	0.006
-264.253	-152.669	0.468	0.043
-263.238	-200.000	0.078	0.581
-262.224	-200.000	-0.088	0.528
-261.209	204.431	-0.095	0.190
-260.195	800.000	-0.120	0.624
-259.180	-88.187	0.176	-0.068
-258.165	79.767	0.300	0.417
-257.151	-167.526	-0.423	-0.022
-256.136	800.000	0.052	0.201
-255.122	800.000	0.063	0.238
-254.107	-200.000	0.018	-0.313
-253.092	-200.000	0.025	0.367
-252.078	289.542	0.084	-0.197
-251.063	-24.810	0.515	0.394
-250.049	134.177	-0.128	0.214
-249.034	427.631	0.007	0.018
-248.019	-97.786	0.408	-0.136
-247.005	-113.909	-0.118	0.029
-245.990	-86.885	0.431	0.169
-244.976	92.663	-0.129	-0.188
-243.961	-62.205	-0.113	0.060
-242.946	-200.000	0.042	0.309
-241.932	-190.771	0.421	-0.006
-240.917	422.220	-0.020	0.057
-239.903	800.000	0.093	-0.459
-238.888	-126.756	-0.071	0.013
-237.873	51.186	-0.187	0.230
-236.859	-97.594	0.309	0.103
-235.844	-94.633	-0.323	0.113
-234.830	-37.806	-0.353	-0.242
-233.815	4.732	0.178	-0.169
-232.800	-111.070	-0.198	0.052
-231.786	-107.167	0.311	0.088
-230.771	322.074	0.022	-0.054
-229.757	-200.000	0.008	-0.132
-228.742	710.240	0.061	0.208
-227.727	23.982	0.180	-0.192
-226.713	800.000	-0.059	0.239
-225.698	84.782	0.233	-0.330
-224.684	184.148	0.037	-0.071
-223.669	-128.683	0.427	0.077
-222.655	42.867	0.281	-0.331
-221.640	74.332	0.050	-0.067
-220.625	71.655	-0.055	0.074
-219.611	-47.966	0.100	0.062
-218.596	149.093	0.095	-0.167
-217.582	-60.806	-0.289	0.157
-216.567	-34.198	0.215	0.152
-215.552	-53.395	-0.147	0.086
-214.538	-7.363	0.258	-0.225
-213.523	7.073	0.305	-0.294
-212.509	83.866	0.183	-0.258
-211.494	-200.000	-0.001	-0.205
-210.479	305.033	0.111	-0.267
-209.465	-200.000	0.063	0.555
-208.450	-200.000	0.008	0.425
-207.436	557.648	-0.168	0.527
-206.421	-133.004	-0.268	0.044
-205.406	83.945	0.175	0.247
-204.392	186.101	-0.089	0.171
-203.377	-87.617	0.253	-0.098
-202.363	-78.766	0.174	0.076
-201.348	110.746	0.108	0.168
-200.333	244.820	-0.094	-0.204
-199.319	-200.000	0.002	-0.440
-198.304	13.290	0.160	-0.159
-197.290	304.142	0.182	-0.438
-196.275	-84.625	-0.182	-0.073
-195.260	97.580	0.264	0.392
-194.246	-54.177	0.227	-0.133
-193.231	-61.999	-0.448	-0.241
-192.217	27.508	0.095	-0.104
-191.202	-0.725	0.413	-0.377
-190.187	178.895	0.179	0.339
-189.173	-56.764	0.529	-0.300
-188.158	-51.631	-0.504	-0.302
-187.144	-102.037	0.431	-0.133
-186.129	800.000	0.087	0.368
-185.114	-80.821	-0.413	0.176
-184.100	62.354	-0.160	0.206
-183.085	-102.714	0.378	0.115
-182.071	11.064	0.303	-0.298
-181.056	310.773	0.214	-0.518
-180.042	-64.282	0.448	0.234
-179.027	7.608	-0.049	0.047
-178.012	61.361	0.073	0.094
-176.998	-57.383	0.122	0.069
-175.983	164.863	0.116	0.211
-174.969	-108.132	0.294	0.081
-173.954	800.000	-0.079	0.286
-172.939	3.898	-0.199	0.187
-171.925	-152.156	0.238	0.022
-170.910	-83.124	-0.450	0.186
-169.896	-44.376	0.426	-0.274
-168.881	-200.000	-0.019	-0.396
-167.866	72.195	0.083	0.111
-166.852	-55.654	-0.418	-0.240
-165.837	-90.290	-0.200	0.074
-164.823	-4.885	0.068	0.060
-163.808	51.998	-0.339	0.415
-162.793	-67.766	0.098	-0.049
-161.779	86.022	0.139	-0.198
-160.764	543.941	-0.165	-0.511
-159.750	240.075	0.137	-0.295
-158.735	-200.000	0.042	0.281
-157.720	-36.736	-0.408	0.281
-156.706	-42.075	0.180	0.119
-155.691	449.362	0.066	0.187
-154.677	-69.845	-0.474	0.232
-153.662	800.000	-0.085	0.440
-152.647	64.509	0.406	0.527
-151.633	800.000	0.094	0.378
-150.618	196.699	0.221	-0.434
-149.604	-200.000	-0.086	-0.000
-148.589	-121.327	0.475	-0.101
-147.574	80.143	0.216	0.300
-146.560	-25.098	-0.240	-0.183
-145.545	167.282	-0.075	0.137
-144.531	187.500	-0.153	-0.294
-143.516	105.783	-0.216	-0.329
-142.502	800.000	0.128	-0.470
-141.487	619.573	0.107	0.349
-140.472	267.573	0.060	-0.135
-139.458	31.396	0.377	-0.417
-138.443	447.180	0.075	-0.214
-137.429	274.015	-0.055	0.125
-136.414	-85.480	-0.204	0.081
-135.399	-130.895	0.529	0.090
-134.385	-88.363	0.498	-0.190
-133.370	-200.000	-0.017	-0.181
-132.356	340.263	0.085	0.215
-131.341	12.481	-0.017	0.017
-130.326	-176.025	0.388	0.013
-129.312	-75.549	0.083	0.038
-128.297	-45.325	0.102	-0.065
-127.283	20.736	-0.306	0.318
-126.268	73.711	-0.254	-0.343
-125.253	-157.496	0.237	0.018
-124.239	-8.539	-0.192	-0.166
-123.224	-4.822	0.178	-0.158
-122.210	40.613	0.286	0.332
-121.195	-22.239	0.210	0.164
-120.180	-111.872	0.663	-0.171
-119.166	241.926	-0.116	0.251
-118.151	328.452	0.058	0.145
-117.137	89.116	-0.242	0.346
-116.122	800.000	-0.039	0.191
-115.107	388.592	0.080	0.215
-114.093	-200.000	0.034	-0.271
-113.078	440.438	-0.193	-0.545
-112.064	-200.000	-0.008	-0.497
-111.049	541.303	0.136	-0.418
-110.034	-168.857	-0.732	-0.035
-109.020	-200.000	-0.039	0.325
-108.005	-18.973	-0.161	-0.128
-106.991	45.021	0.492	-0.583
-105.976	-50.493	-0.160	0.097
-104.962	-116.334	0.446	-0.105
-103.947	75.574	-0.126	0.171
-102.932	56.508	-0.031	-0.038
-101.918	13.289	0.157	0.156
-100.903	13.304	-0.165	0.165
-99.889	800.000	0.132	-0.518
-98.874	7.187	0.299	0.287
-97.859	-146.255	-0.377	0.042
-96.845	63.692	-0.169	-0.218
-95.830	-57.112	-0.289	0.163
-94.816	-119.174	-0.213	-0.047
-93.801	-5.356	0.306	0.270
-92.786	134.000	-0.132	-0.220
-91.772	-181.861	0.419	-0.010
-90.757	6.897	-0.253	-0.241
-89.743	136.343	-0.143	0.239
-88.728	214.562	-0.130	0.265
-87.713	-33.971	0.402	-0.283
-86.699	-126.032	-0.530	-0.101
-85.684	-49.055	0.434	0.266
-84.670	-200.000	-0.250	0.001
-83.655	-184.277	-0.073	-0.002
-82.640	800.000	-0.129	0.673
-81.626	-67.146	-0.065	0.033
-80.611	800.000	0.104	-0.437
-79.597	-31.197	0.204	-0.147
-78.582	-124.910	-0.841	-0.165
-77.567	-128.912	-0.384	-0.069
-76.553	-200.000	0.086	-0.487
-75.538	-5.596	-0.092	0.081
-74.524	-18.838	0.627	0.500
-73.509	-28.843	0.292	0.215
-72.494	-37.537	0.163	0.111
-71.480	-159.232	0.246	-0.017
-70.465	-23.132	-0.134	-0.103
-69.451	3.825	-0.207	0.193
-68.436	-200.000	-0.012	0.091
-67.422	-24.457	-0.198	-0.151
-66.407	86.553	0.173	0.244
-65.392	-152.280	0.210	0.019
-64.378	-200.000	0.009	0.330
-63.363	-110.687	0.250	-0.066
-62.349	800.000	0.077	-0.385
-61.334	93.132	-1.819	-2.641
-60.319	4.830	1.032	0.973
-59.305	222.613	-3.541	-7.337
-58.290	50.160	3.860	4.677
-57.276	365.506	4.045	10.497
-56.261	-200.000	20.480	296.632
-55.246	385.351	1261.475	3351.462
-54.232	54.496	2852.565	3526.915
-53.217	65.637	2707.913	3519.806
-52.203	39.033	2438.164	2795.376
-51.188	37.018	2098.780	2381.333
-50.173	31.240	1982.255	2181.417
-49.159	30.166	1971.323	2156.745
-48.144	29.938	1966.399	2148.618
-47.130	29.668	1964.305	2143.099
-46.115	29.603	1963.127	2140.968
-45.100	29.655	1961.754	2139.985
-44.086	29.666	1960.180	2138.317
-43.071	29.515	1959.143	2135.343
-42.057	29.539	1956.994	2133.200
-41.042	29.403	1956.084	2130.545
-40.027	29.425	1954.805	2129.317
-39.013	29.440	1952.733	2127.152
-37.998	29.435	1952.086	2126.299
-36.984	29.495	1950.226	2124.887
-35.969	29.512	1949.042	2123.713
-34.954	29.469	1947.295	2121.221
-33.940	29.566	1946.128	2120.984
-32.925	29.480	1944.913	2118.585
-31.911	29.414	1943.671	2116.387
-30.896	29.376	1942.185	2114.247
-29.881	29.388	1941.477	2113.535
-28.867	29.413	1940.135	2112.276
-27.852	29.325	1938.699	2109.622
-26.838	29.396	1937.234	2108.758
-25.823	29.386	1936.299	2107.542
-24.809	29.473	1933.913	2105.851
-23.794	29.322	1932.914	2102.960
-22.779	29.416	1930.889	2101.743
-21.765	29.388	1929.681	2100.029
-20.750	29.385	1928.769	2098.910
-19.736	29.390	1927.667	2097.694
-18.721	29.332	1926.792	2095.994
-17.706	29.430	1924.843	2094.904
-16.692	29.233	1924.363	2092.052
-15.677	29.305	1922.762	2091.056
-14.663	29.314	1921.166	2089.338
-13.648	29.132	1920.657	2086.620
-12.633	29.219	1918.860	2085.583
-11.619	29.244	1917.572	2084.384
-10.604	29.257	1916.178	2082.932
-9.590	29.153	1915.636	2081.081
-8.575	29.289	1913.967	2080.722
-7.560	29.267	1913.113	2079.465
-6.546	29.177	1912.309	2077.492
-5.531	29.087	1911.192	2075.171
-4.517	29.156	1909.736	2074.289
-3.502	29.289	1908.304	2074.161
-2.487	29.163	1907.944	2072.255
-1.473	29.251	1903.554	2068.402
-0.458	28.901	1884.473	2043.682
0.556	24.941	2029.562	2140.615
1.571	23.393	2239.861	2341.597
2.586	24.264	2280.865	2395.958
3.600	24.424	2284.039	2401.170
4.615	24.638	2283.931	2403.657
5.629	24.690	2282.516	2402.587
6.644	24.717	2280.856	2400.910
7.659	24.867	2278.352	2400.010
8.673	24.714	2276.977	2396.208
9.688	24.101	2282.956	2393.938
10.702	22.595	2362.096	2455.551
11.717	21.583	2431.008	2512.300
12.731	12.310	2405.544	2352.725
13.746	2.357	2377.170	2182.489
14.761	0.508	2372.325	2151.304
15.775	0.207	2370.911	2145.460
16.790	0.236	2368.022	2143.006
17.804	0.204	2366.649	2141.039
18.819	0.183	2366.456	2140.312
19.834	0.239	2363.872	2138.514
20.848	0.173	2363.193	2136.712
21.863	0.210	2360.715	2134.741
22.877	0.118	2359.174	2131.776
23.892	0.206	2356.052	2129.954
24.907	0.284	2353.824	2128.784
25.921	0.277	2353.179	2127.859
26.936	0.300	2350.610	2125.607
27.950	0.271	2347.972	2122.557
28.965	0.186	2346.401	2119.681
29.980	0.322	2343.964	2119.142
30.994	0.337	2342.355	2117.644
32.009	5.533	2361.327	2208.372
33.023	17.879	2396.927	2418.202
34.038	23.471	2408.093	2508.947
35.053	24.228	2408.195	2519.520
36.067	24.352	2404.662	2517.279
37.082	24.211	2402.716	2512.940
38.096	24.178	2401.195	2510.576
39.111	24.651	2399.713	2515.427
40.126	24.916	2399.650	2518.803
41.140	25.284	2399.708	2523.771
42.155	25.048	2396.162	2516.400
43.169	24.977	2393.963	2512.792
44.184	24.969	2390.907	2509.170
45.199	24.780	2388.808	2504.012
46.213	24.660	2388.490	2501.692
47.228	24.673	2387.432	2500.464
48.242	24.795	2384.277	2498.567
49.257	24.794	2383.006	2496.935
50.271	24.898	2381.450	2496.460
51.286	24.956	2378.575	2493.954
52.301	24.818	2376.723	2489.793
53.315	24.698	2376.524	2487.596
54.330	24.405	2373.595	2480.149
55.344	24.196	2369.098	2472.229
56.359	24.184	2366.034	2468.571
57.374	23.965	2363.892	2462.994
58.388	24.047	2361.049	2460.876
59.403	24.302	2358.635	2461.607
60.417	24.448	2355.987	2460.580
61.432	24.555	2354.810	2460.534
62.447	24.599	2352.744	2458.691
63.461	24.450	2350.983	2454.495
64.476	24.373	2349.242	2451.319
65.490	24.719	2349.249	2455.807
66.505	25.006	2349.308	2459.534
67.520	24.918	2347.544	2456.189
68.534	24.669	2344.325	2449.094
69.549	24.712	2341.000	2445.912
70.563	24.857	2339.193	2445.731
71.578	24.761	2337.382	2442.222
72.593	24.754	2335.737	2440.120
73.607	24.916	2334.031	2440.260
74.622	25.056	2331.914	2439.677
75.636	24.805	2329.841	2433.777
76.651	24.876	2326.813	2431.300
77.666	24.820	2325.759	2429.146
78.680	24.900	2323.129	2427.190
79.695	25.080	2321.694	2427.855
80.709	25.126	2321.141	2427.609
81.724	25.220	2319.055	2426.417
82.739	25.125	2315.858	2421.498
83.753	25.064	2314.555	2419.006
84.768	24.825	2312.569	2413.400
85.782	24.821	2311.869	2412.334
86.797	24.878	2309.605	2410.460
87.812	24.842	2307.824	2407.823
88.826	24.843	2305.242	2404.855
89.841	24.820	2303.494	2402.428
90.855	25.005	2302.141	2403.230
91.870	24.855	2300.595	2399.300
92.884	24.904	2298.128	2397.106
93.899	24.951	2297.221	2396.506
94.914	24.589	2297.006	2391.123
95.928	24.325	2295.307	2385.516
96.943	24.262	2292.204	2381.161
97.957	24.431	2290.797	2381.677
98.972	24.635	2288.787	2382.042
99.987	24.557	2285.615	2377.406
101.001	24.666	2283.212	2376.086
102.016	24.692	2281.881	2374.766
103.030	24.728	2278.864	2371.809
104.045	24.816	2276.863	2370.619
105.060	25.070	2274.909	2371.680
106.074	25.005	2272.608	2368.135
107.089	24.818	2271.329	2364.031
108.103	24.876	2270.735	2363.903
109.118	24.923	2269.717	2363.186
110.133	25.059	2267.703	2362.602
111.147	25.153	2265.547	2361.319
112.162	25.022	2264.026	2357.720
113.176	24.944	2260.849	2353.096
114.191	24.963	2259.488	2351.654
115.206	24.812	2257.452	2347.267
116.220	24.815	2255.985	2345.494
117.235	24.778	2252.829	2341.453
118.249	24.747	2250.976	2338.835
119.264	24.869	2249.708	2338.835
120.279	24.973	2247.715	2337.852
121.293	24.914	2245.885	2334.898
122.308	24.926	2243.442	2332.236
123.322	24.777	2243.217	2329.775
124.337	24.589	2241.849	2325.606
125.352	24.452	2241.592	2323.276
126.366	24.673	2240.756	2325.020
127.381	24.676	2237.109	2320.988
128.395	24.713	2236.422	2320.484
129.410	24.996	2234.341	2321.731
130.424	24.996	2231.591	2318.608
131.439	24.970	2229.241	2315.547
132.454	24.872	2227.152	2311.822
133.468	24.925	2224.310	2309.290
134.483	24.874	2223.042	2307.026
135.497	24.798	2222.200	2304.893
136.512	24.848	2219.594	2302.565
137.527	24.891	2217.349	2300.521
138.541	24.767	2216.826	2298.100
139.556	24.708	2216.256	2296.472
140.570	24.845	2214.182	2295.811
141.585	24.889	2212.709	2294.573
142.600	24.853	2210.597	2291.646
143.614	24.725	2209.050	2288.130
144.629	24.796	2207.672	2287.342
145.643	24.721	2205.438	2283.783
146.658	24.671	2203.405	2280.770
147.673	24.680	2201.808	2278.957
148.687	24.787	2200.428	2278.623
149.702	24.819	2199.650	2277.957
150.716	24.817	2198.830	2276.804
151.731	24.949	2197.861	2277.217
152.746	25.054	2195.942	2276.300
153.760	24.493	2195.153	2268.044
154.775	24.306	2193.005	2263.175
155.789	24.022	2190.164	2256.343
156.804	24.231	2187.623	2256.119
157.819	24.445	2184.875	2255.742
158.833	24.687	2182.442	2256.029
159.848	24.849	2181.322	2256.644
160.862	25.076	2180.079	2257.975
161.877	25.095	2179.825	2257.678
162.892	25.175	2178.698	2257.254
163.906	25.310	2177.372	2257.318
164.921	25.155	2175.544	2253.193
165.935	25.169	2173.437	2250.918
166.950	25.082	2170.756	2246.768
167.964	24.996	2167.610	2242.171
168.979	24.779	2167.408	2238.955
169.994	24.856	2166.334	2238.547
171.008	24.904	2164.063	2236.532
172.023	24.917	2161.988	2234.288
173.037	25.052	2161.245	2234.940
174.052	24.930	2158.549	2230.365
175.067	24.849	2157.066	2227.544
176.081	24.817	2155.823	2225.605
177.096	24.934	2154.240	2225.156
178.110	24.748	2152.885	2221.171
179.125	24.799	2151.276	2219.879
180.140	24.962	2150.373	2220.715
181.154	25.032	2148.117	2218.987
182.169	24.813	2146.228	2214.058
183.183	24.407	2145.671	2208.161
184.198	24.235	2143.805	2203.846
185.213	24.144	2142.710	2201.322
186.227	24.669	2141.393	2206.216
187.242	24.659	2139.641	2204.023
188.256	24.785	2138.359	2204.007
189.271	24.943	2137.997	2205.318
190.286	25.079	2135.606	2204.271
191.300	24.809	2132.513	2197.489
192.315	24.729	2130.665	2194.330
193.329	24.951	2129.129	2195.224
194.344	25.006	2129.137	2195.649
195.359	25.148	2127.622	2195.563
196.373	25.247	2125.835	2194.680
197.388	25.235	2123.350	2191.695
198.402	25.065	2120.962	2186.886
199.417	24.839	2118.988	2181.826
200.432	24.807	2117.126	2179.256
201.446	24.903	2116.167	2179.177
202.461	24.948	2114.717	2177.975
203.475	24.725	2113.780	2174.019
204.490	24.735	2110.072	2170.072
205.504	24.875	2107.340	2168.705
206.519	24.721	2106.499	2165.706
207.534	24.649	2104.912	2162.940
208.548	24.846	2103.086	2163.200
209.563	24.681	2101.241	2159.047
210.577	24.498	2099.862	2155.150
211.592	24.647	2098.893	2155.694
212.607	24.537	2097.180	2152.346
213.621	23.932	2096.223	2143.784
214.636	23.885	2093.979	2140.657
215.650	24.378	2093.089	2145.462
216.665	24.604	2091.635	2146.439
217.680	24.759	2090.671	2147.064
218.694	24.884	2088.999	2146.598
219.709	24.937	2087.756	2145.703
220.723	24.908	2086.767	2144.075
221.738	24.984	2084.666	2142.581
222.753	25.000	2082.645	2140.440
223.767	24.853	2081.506	2137.247
224.782	24.784	2078.738	2133.322
225.796	24.719	2077.970	2131.495
226.811	24.807	2077.618	2131.929
227.826	25.006	2075.776	2132.168
228.840	25.113	2073.262	2130.606
229.855	24.915	2072.247	2126.944
230.869	24.976	2070.671	2125.802
231.884	24.867	2068.306	2121.823
232.899	24.652	2067.017	2117.683
233.913	24.710	2065.734	2116.806
234.928	24.625	2065.230	2115.024
235.942	24.893	2062.569	2115.236
236.957	24.912	2061.436	2114.040
237.972	24.824	2060.462	2111.750
238.986	24.871	2059.254	2110.814
240.001	24.732	2056.879	2106.481
241.015	24.541	2055.775	2102.839
242.030	24.634	2054.534	2102.411
243.045	24.578	2053.113	2100.046
244.059	24.412	2051.700	2096.394
245.074	24.599	2049.769	2096.370
246.088	24.773	2047.083	2095.428
247.103	24.852	2045.144	2094.120
248.117	24.825	2044.011	2092.388
249.132	24.960	2042.650	2092.327
250.147	24.820	2040.058	2087.782
251.161	24.664	2038.481	2084.088
252.176	24.786	2037.007	2083.766
253.190	24.810	2035.355	2082.108
254.205	24.725	2033.085	2078.544
255.220	24.680	2032.125	2076.788
256.234	24.689	2031.084	2075.584
257.249	24.703	2029.831	2074.215
258.263	24.705	2028.034	2072.155
259.278	24.593	2026.788	2069.324
260.293	24.639	2025.303	2068.096
261.307	24.875	2023.616	2068.875
262.322	24.975	2022.254	2068.387
263.336	24.649	2020.463	2062.529
264.351	24.609	2017.785	2059.091
265.366	24.630	2017.875	2059.172
266.380	24.818	2016.131	2059.320
267.395	24.617	2014.032	2054.614
268.409	24.432	2012.464	2050.626
269.424	24.655	2011.639	2052.116
270.439	24.772	2010.431	2051.989
271.453	24.684	2008.678	2048.936
272.468	24.328	2006.232	2042.103
273.482	24.141	2004.809	2038.253
274.497	24.643	2001.370	2040.276
275.512	24.744	2000.450	2040.261
276.526	24.648	1998.499	2036.928
277.541	24.542	1996.722	2033.653
278.555	24.595	1995.691	2032.968
279.570	24.336	1993.154	2027.184
280.585	24.439	1991.062	2025.980
281.599	24.509	1990.982	2026.462
282.614	24.725	1989.656	2027.331
283.628	24.755	1988.605	2026.362
284.643	24.653	1987.933	2024.266
285.657	24.816	1986.413	2024.334
286.672	24.728	1984.439	2021.075
287.687	24.807	1981.676	2018.915
288.701	24.506	1981.478	2015.068
289.716	24.527	1979.191	2012.735
290.730	24.653	1976.713	2011.401
291.745	24.670	1975.610	2010.224
292.760	24.620	1975.731	2009.539
293.774	24.568	1975.542	2008.526
294.789	24.840	1974.666	2010.462
295.803	24.904	1972.027	2008.261
296.818	24.889	1970.579	2006.381
297.833	24.838	1969.873	2004.841
298.847	24.811	1968.412	2002.813
299.862	24.814	1965.978	2000.127
300.876	24.705	1963.754	1996.400
301.891	24.475	1962.545	1992.352
302.906	24.390	1962.260	1990.873
303.920	24.875	1961.191	1994.988
304.935	24.962	1958.067	1992.543
305.949	24.950	1956.728	1990.804
306.964	25.150	1955.661	1991.718
307.979	25.086	1953.285	1988.344
308.993	24.712	1951.141	1981.753
310.008	24.451	1949.374	1976.822
311.022	24.609	1948.575	1977.530
312.037	24.646	1946.047	1975.140
313.052	24.378	1944.388	1970.251
314.066	24.027	1942.074	1963.771
315.081	24.006	1940.193	1961.406
316.095	23.970	1939.648	1960.222
317.110	23.862	1938.415	1957.548
318.125	24.266	1937.199	1960.546
319.139	24.569	1937.058	1963.517
320.154	24.748	1935.790	1963.970
321.168	24.731	1934.072	1961.813
322.183	24.820	1932.936	1961.405
323.197	24.827	1931.362	1959.645
324.212	24.653	1930.158	1956.280
325.227	24.543	1928.455	1953.103
326.241	24.660	1926.647	1952.326
327.256	24.819	1925.298	1952.467
328.270	24.789	1924.605	1951.204
329.285	24.675	1924.291	1949.404
330.300	24.679	1923.806	1948.722
331.314	24.225	1920.495	1940.166
332.329	24.140	1918.084	1936.567
333.343	24.538	1917.374	1939.968
334.358	24.787	1916.840	1941.920
335.373	25.006	1915.126	1942.332
336.387	25.024	1912.592	1939.727
337.402	24.855	1911.597	1936.643
338.416	24.755	1909.547	1933.257
339.431	24.771	1908.795	1932.429
340.446	25.170	1906.408	1934.108
341.460	25.026	1904.812	1930.700
342.475	24.963	1902.434	1927.382
343.489	24.758	1901.329	1923.816
344.504	24.783	1899.772	1922.279
345.519	24.643	1897.438	1918.173
346.533	24.434	1895.667	1913.901
347.548	24.587	1894.739	1914.389
348.562	24.649	1894.018	1914.092
349.577	24.781	1893.350	1914.613
350.592	24.659	1892.278	1911.985
351.606	24.660	1889.781	1909.246
352.621	24.513	1888.841	1906.484
353.635	24.555	1887.032	1904.880
354.650	24.528	1885.646	1902.973
355.665	24.700	1883.952	1902.874
356.679	24.780	1882.952	1902.492
357.694	24.777	1882.059	1901.327
358.708	24.798	1881.579	1900.842
359.723	24.865	1880.198	1899.928
360.738	24.408	1877.994	1892.599
361.752	24.418	1877.120	1891.603
362.767	24.744	1875.153	1892.867
363.781	24.675	1874.015	1890.760
364.796	24.785	1872.603	1890.269
365.810	24.842	1870.751	1888.779
366.825	24.768	1869.879	1886.887
367.840	24.871	1868.286	1886.147
368.854	24.881	1868.377	1886.121
369.869	24.947	1866.932	1885.131
370.883	24.925	1865.428	1883.155
371.898	24.581	1863.321	1877.168
372.913	24.532	1861.821	1874.916
373.927	24.524	1860.564	1873.343
374.942	24.629	1859.173	1872.826
375.956	24.568	1858.571	1871.348
376.971	24.609	1855.208	1868.173
377.986	24.346	1853.572	1863.539
379.000	24.466	1852.442	1863.439
380.015	24.797	1852.105	1866.346
381.029	24.975	1849.951	1865.816
382.044	25.020	1848.208	1864.305
383.059	25.078	1847.048	1863.524
384.073	24.903	1845.901	1860.316
385.088	24.711	1843.918	1856.092
386.102	24.635	1842.235	1853.378
387.117	24.590	1839.847	1850.290
388.132	24.628	1839.578	1850.195
389.146	24.487	1840.171	1849.099
390.161	24.110	1838.472	1843.245
391.175	24.172	1835.183	1840.376
392.190	24.463	1831.898	1839.879
393.205	24.656	1830.363	1840.109
394.219	24.694	1828.603	1838.511
395.234	24.621	1827.894	1836.828
396.248	24.630	1826.568	1835.368
397.263	24.562	1824.016	1831.888
398.278	24.568	1822.332	1830.035
399.292	24.507	1821.631	1828.486
400.307	24.678	1821.749	1830.139
401.321	24.864	1819.564	1829.639
402.336	24.576	1816.961	1823.844
403.350	24.331	1814.900	1819.054
404.365	24.485	1814.528	1820.040
405.380	24.658	1813.484	1820.541
406.394	24.278	1812.321	1815.272
407.409	24.308	1810.525	1813.564
408.423	24.196	1808.693	1810.363
409.438	24.246	1806.453	1808.420
410.453	24.370	1805.878	1808.890
411.467	24.714	1805.584	1811.884
412.482	24.769	1805.221	1811.860
413.496	24.790	1804.204	1810.836
414.511	24.750	1801.704	1807.704
415.526	24.703	1799.381	1804.679
416.540	24.765	1798.115	1803.824
417.555	24.672	1797.287	1801.837
418.569	24.629	1797.413	1801.306
419.584	24.645	1797.692	1801.538
420.599	24.567	1796.255	1799.087
421.613	24.547	1794.731	1797.150
422.628	24.678	1792.685	1796.208
423.642	24.765	1792.502	1796.686
424.657	24.852	1790.248	1795.092
425.672	24.524	1789.085	1790.405
426.686	24.743	1787.469	1790.777
427.701	24.934	1787.244	1792.253
428.715	25.148	1785.290	1792.237
429.730	25.218	1784.407	1791.838
430.745	25.069	1783.557	1789.269
431.759	24.844	1781.528	1784.768
432.774	24.131	1779.017	1774.898
433.788	23.235	1776.773	1763.484
434.803	22.980	1775.479	1759.434
435.818	23.070	1774.289	1758.939
436.832	23.160	1773.313	1758.663
437.847	21.911	1765.579	1738.351
438.861	12.253	1739.530	1617.289
439.876	2.304	1720.882	1501.898
440.890	0.474	1715.718	1479.194
441.905	0.316	1714.485	1476.392
442.920	0.274	1713.630	1475.069
443.934	0.187	1711.896	1472.541
444.949	0.174	1710.791	1471.285
445.963	0.176	1709.939	1470.405
446.978	0.215	1709.047	1469.842
447.993	0.117	1708.363	1468.112
449.007	0.283	1705.352	1466.980
450.022	0.402	1702.864	1465.824
451.036	0.417	1702.923	1465.840
452.051	1.544	1706.282	1479.591
453.066	8.651	1725.303	1565.997
454.080	19.530	1744.821	1691.203
455.095	23.194	1751.103	1733.228
456.109	24.476	1752.166	1746.696
457.124	24.782	1751.744	1749.074
458.139	24.576	1750.677	1745.772
459.153	24.389	1749.396	1742.452
460.168	24.373	1746.940	1739.635
461.182	24.285	1745.840	1737.470
462.197	24.343	1743.517	1735.524
463.212	24.391	1742.261	1734.536
464.226	24.277	1741.635	1732.583
465.241	24.548	1739.881	1733.276
466.255	24.450	1739.628	1731.862
467.270	24.480	1738.259	1730.587
468.285	24.342	1736.633	1727.420
469.299	24.330	1735.930	1726.395
470.314	24.566	1733.150	1725.716
471.328	24.589	1732.257	1724.839
472.343	24.643	1731.372	1724.281
473.358	24.531	1730.682	1722.302
474.372	24.612	1728.665	1720.870
475.387	24.682	1727.633	1720.312
476.401	24.571	1725.798	1717.204
477.416	24.582	1723.725	1715.046
478.430	24.446	1723.627	1713.435
479.445	24.522	1722.302	1712.640
480.460	24.576	1720.873	1711.537
481.474	24.646	1719.817	1710.952
482.489	24.610	1718.966	1709.556
483.503	24.760	1716.904	1708.747
484.518	24.550	1715.945	1705.573
485.533	24.653	1714.191	1704.611
486.547	24.617	1712.329	1702.204
487.562	24.464	1712.152	1700.359
488.576	24.573	1710.960	1700.018
489.591	24.524	1709.656	1698.052
490.606	24.712	1708.272	1698.269
491.620	24.722	1706.345	1696.242
492.635	24.681	1704.245	1693.567
493.649	24.638	1703.040	1691.753
494.664	24.504	1701.745	1688.993
495.679	24.541	1700.180	1687.585
496.693	24.698	1698.164	1686.871
497.708	24.587	1697.694	1685.154
498.722	24.547	1696.882	1683.765
499.737	24.597	1695.392	1682.560
500.752	24.608	1693.504	1680.592
501.766	24.546	1692.440	1678.747
502.781	24.713	1690.537	1678.236
503.795	24.655	1689.011	1675.971
504.810	24.606	1688.140	1674.444
505.825	24.628	1688.398	1674.705
506.839	24.612	1686.812	1672.782
507.854	24.641	1684.847	1670.904
508.868	24.553	1683.387	1668.428
509.883	24.300	1682.626	1665.100
510.898	24.337	1681.465	1664.105
511.912	24.384	1679.131	1662.031
512.927	24.383	1677.737	1660.445
513.941	24.361	1676.839	1659.152
514.956	24.732	1675.915	1661.500
515.971	24.782	1675.206	1661.070
516.985	24.672	1674.199	1658.840
518.000	24.524	1672.429	1655.510
519.014	24.511	1671.161	1653.941
520.029	24.417	1669.500	1651.220
521.043	24.489	1668.126	1650.335
522.058	24.386	1667.122	1648.191
523.073	24.466	1665.682	1647.305
524.087	24.260	1665.002	1644.529
525.102	24.491	1663.491	1644.979
526.116	24.578	1661.713	1643.831
527.131	24.568	1660.730	1642.565
528.146	24.611	1660.588	1642.628
529.160	24.655	1659.026	1641.289
530.175	24.726	1657.646	1640.385
531.189	24.678	1657.146	1639.250
532.204	24.618	1655.347	1636.727
533.219	24.528	1653.801	1634.175
534.233	24.475	1653.438	1633.126
535.248	24.509	1652.156	1631.980
536.262	24.458	1651.582	1630.746
537.277	24.477	1650.900	1630.057
538.292	24.660	1648.390	1629.055
539.306	24.637	1646.190	1626.482
540.321	24.450	1645.408	1623.801
541.335	24.451	1644.429	1622.650
542.350	24.640	1642.138	1621.919
543.365	24.729	1640.924	1621.336
544.379	24.650	1639.584	1619.104
545.394	24.784	1638.526	1619.079
546.408	24.685	1636.815	1616.301
547.423	24.669	1635.545	1614.703
548.438	24.538	1635.012	1612.793
549.452	24.605	1633.439	1611.655
550.467	24.545	1632.640	1610.139
551.481	24.527	1631.555	1608.710
552.496	24.678	1630.166	1608.513
553.511	24.499	1628.972	1605.522
554.525	24.436	1628.039	1603.846
555.540	24.585	1627.281	1604.252
556.554	24.577	1625.852	1602.576
557.569	24.569	1624.019	1600.502
558.583	24.598	1622.620	1599.197
559.598	24.618	1621.338	1597.919
560.613	24.444	1620.922	1595.755
561.627	24.438	1619.176	1593.793
562.642	24.384	1617.050	1591.025
563.656	24.427	1615.654	1589.849
564.671	24.374	1614.530	1588.074
565.686	24.469	1613.355	1587.580
566.700	24.587	1611.977	1587.082
567.715	24.439	1611.127	1584.741
568.729	24.664	1609.999	1585.449
569.744	24.785	1608.946	1585.294
570.759	24.703	1608.091	1583.536
571.773	24.778	1607.009	1582.944
572.788	24.671	1605.405	1580.227
573.802	24.503	1603.531	1576.701
574.817	24.450	1601.689	1574.231
575.832	24.489	1599.787	1572.520
576.846	24.322	1599.361	1570.432
577.861	24.428	1598.398	1570.237
578.875	24.507	1597.363	1569.735
579.890	24.514	1596.592	1568.847
580.905	24.542	1595.258	1567.593
581.919	24.454	1595.731	1567.093
582.934	24.351	1595.390	1565.665
583.948	24.336	1592.816	1562.816
584.963	24.366	1591.138	1561.247
585.978	24.507	1589.415	1560.610
586.992	24.377	1589.162	1559.040
588.007	24.421	1588.859	1558.937
589.021	24.341	1587.116	1556.342
590.036	24.170	1586.129	1553.689
591.051	24.192	1585.162	1552.749
592.065	24.416	1583.196	1552.596
593.080	24.459	1580.955	1550.590
594.094	24.634	1579.145	1550.154
595.109	24.561	1577.925	1548.133
596.123	24.606	1576.480	1546.918
597.138	24.491	1576.362	1545.614
598.153	24.483	1574.552	1543.585
599.167	24.498	1572.731	1541.745
600.182	24.423	1571.646	1539.852
601.196	24.451	1571.262	1539.535
602.211	24.502	1569.750	1538.308
603.226	24.387	1568.796	1536.198
604.240	24.285	1566.849	1533.221
605.255	24.312	1566.037	1532.477
606.269	24.428	1564.429	1531.722
607.284	24.569	1563.194	1531.544
608.299	24.514	1562.490	1530.196
609.313	24.506	1561.099	1528.583
610.328	24.447	1559.998	1526.816
611.342	24.472	1558.609	1525.485
612.357	24.279	1557.741	1522.800
613.372	24.384	1556.572	1522.377
614.386	24.369	1555.405	1520.926
615.401	24.291	1554.606	1519.293
616.415	24.301	1553.994	1518.600
617.430	24.272	1552.383	1516.589
618.445	24.170	1551.337	1514.519
619.459	24.165	1550.530	1513.502
620.474	24.504	1548.835	1514.561
621.488	24.707	1548.946	1516.217
622.503	24.888	1547.980	1516.629
623.518	24.550	1546.162	1511.792
624.532	24.527	1543.799	1509.112
625.547	24.224	1542.972	1505.550
626.561	24.196	1541.757	1503.947
627.576	24.169	1540.661	1502.468
628.591	24.468	1540.179	1504.346
629.605	24.684	1539.843	1505.670
630.620	24.706	1538.257	1504.126
631.634	24.837	1537.060	1503.881
632.649	24.916	1536.603	1503.921
633.663	24.664	1535.112	1500.155
634.678	24.435	1533.301	1496.280
635.693	24.183	1530.957	1491.685
636.707	24.028	1530.156	1489.426
637.722	24.083	1528.182	1487.789
638.736	24.122	1527.338	1487.119
639.751	24.348	1526.300	1487.824
640.766	24.228	1525.199	1485.566
641.780	24.275	1523.309	1483.939
642.795	24.227	1522.814	1482.881
643.809	24.287	1522.382	1482.786
644.824	24.244	1522.157	1482.028
645.839	24.579	1520.224	1482.763
646.853	24.497	1518.926	1480.633
647.868	24.526	1516.890	1478.719
648.882	24.402	1516.460	1477.086
649.897	24.472	1515.493	1476.550
650.912	24.373	1513.495	1473.604
651.926	24.371	1512.147	1472.096
652.941	24.384	1511.270	1471.177
653.955	24.245	1509.432	1468.062
654.970	24.259	1508.262	1466.861
655.985	24.228	1506.760	1464.975
656.999	24.124	1505.732	1462.940
658.014	24.167	1503.876	1461.311
659.028	24.225	1503.060	1460.826
660.043	24.391	1502.686	1461.657
661.058	24.470	1501.209	1460.693
662.072	24.370	1500.574	1459.077
663.087	24.406	1498.818	1457.488
664.101	24.290	1498.144	1455.708
665.116	24.375	1497.242	1455.353
666.131	24.344	1495.826	1453.553
667.145	24.245	1495.340	1452.095
668.160	24.233	1493.447	1449.986
669.174	24.195	1491.768	1447.869
670.189	24.161	1491.203	1446.868
671.204	24.259	1490.496	1446.809
672.218	24.101	1490.299	1445.156
673.233	24.335	1487.695	1444.363
674.247	24.254	1486.026	1441.909
675.262	24.308	1485.082	1441.265
676.276	24.309	1484.386	1440.422
677.291	24.296	1483.411	1439.197
678.306	24.449	1482.361	1439.249
679.320	24.277	1481.258	1436.611
680.335	24.056	1480.851	1434.254
681.349	24.118	1479.502	1433.279
682.364	24.188	1478.897	1433.090
683.379	24.163	1477.193	1431.059
684.393	24.159	1475.292	1429.015
685.408	24.058	1473.819	1426.603
686.422	24.044	1473.483	1425.998
687.437	23.961	1472.756	1424.451
688.452	23.805	1472.348	1422.636
689.466	23.958	1470.303	1421.716
690.481	24.114	1469.378	1421.905
691.495	24.132	1469.794	1422.283
692.510	24.468	1469.181	1424.210
693.525	24.749	1467.204	1424.373
694.539	24.518	1465.261	1420.469
695.554	24.095	1463.566	1415.280
696.568	23.867	1463.235	1412.973
697.583	23.780	1461.417	1410.349
698.598	23.842	1460.729	1410.009
699.612	23.979	1459.092	1409.357
700.627	23.832	1458.789	1407.720
701.641	23.964	1457.284	1407.149
702.656	24.084	1455.974	1406.670
703.671	24.022	1456.341	1406.365
704.685	23.900	1455.519	1404.431
705.700	24.032	1453.756	1403.614
706.714	24.084	1452.472	1402.614
707.729	24.193	1450.808	1401.701
708.744	24.201	1449.786	1400.608
709.758	23.985	1449.250	1398.219
710.773	23.999	1448.011	1396.965
711.787	24.094	1446.318	1395.913
712.802	24.215	1444.356	1394.810
713.816	24.127	1444.101	1393.702
714.831	24.164	1443.246	1393.000
715.846	24.118	1441.538	1390.827
716.860	24.162	1440.237	1389.748
717.875	24.063	1439.295	1387.897
718.889	24.077	1438.001	1386.588
719.904	23.980	1437.107	1384.808
720.919	23.902	1436.108	1383.067
721.933	23.919	1434.949	1381.918
722.948	23.824	1434.364	1380.443
723.962	23.936	1432.605	1379.458
724.977	24.030	1431.138	1378.617
725.992	24.042	1430.260	1377.700
727.006	23.957	1429.254	1375.903
728.021	23.882	1428.131	1374.076
729.035	23.853	1426.705	1372.313
730.050	23.840	1426.505	1371.854
731.065	24.054	1424.596	1371.516
732.079	23.775	1423.865	1368.485
733.094	23.760	1422.952	1367.330
734.108	24.021	1421.293	1367.585
735.123	23.888	1419.873	1365.029
736.138	23.973	1419.514	1365.181
737.152	23.887	1418.217	1363.106
738.167	23.780	1417.130	1361.076
739.181	23.860	1415.411	1359.878
740.196	23.733	1415.489	1358.807
741.211	23.714	1414.418	1357.472
742.225	23.763	1413.360	1356.673
743.240	23.675	1412.523	1355.028
744.254	23.832	1410.345	1353.980
745.269	23.652	1409.187	1351.335
746.284	23.689	1408.660	1350.949
747.298	23.909	1407.822	1351.662
748.313	24.035	1407.575	1352.228
749.327	24.279	1407.468	1353.820
750.342	24.586	1406.251	1354.829
751.356	24.767	1405.102	1354.942
752.371	24.485	1403.404	1351.000
753.386	23.982	1402.172	1345.822
754.400	23.787	1400.920	1342.981
755.415	23.790	1399.572	1341.549
756.429	23.739	1398.321	1339.805
757.444	23.942	1396.433	1339.376
758.459	23.720	1395.567	1336.702
759.473	23.607	1395.271	1335.400
760.488	23.745	1393.264	1334.369
761.502	23.604	1392.151	1332.072
762.517	23.817	1390.839	1332.270
763.532	23.982	1389.828	1332.382
764.546	23.916	1388.997	1330.926
765.561	23.996	1387.845	1330.263
766.575	23.837	1387.313	1328.403
767.590	24.011	1385.759	1328.058
768.605	24.022	1385.692	1327.923
769.619	24.041	1384.217	1326.490
770.634	23.786	1382.895	1323.157
771.648	23.698	1381.611	1321.111
772.663	23.501	1381.156	1319.048
773.678	23.772	1380.142	1319.939
774.692	23.593	1378.903	1317.261
775.707	23.613	1378.326	1316.707
776.721	23.676	1377.920	1316.628
777.736	23.580	1376.793	1314.680
778.751	23.732	1375.319	1314.247
779.765	23.621	1374.546	1312.526
780.780	23.670	1373.702	1311.924
781.794	23.693	1372.469	1310.759
782.809	23.545	1371.482	1308.561
783.824	23.507	1370.466	1307.154
784.838	23.805	1369.227	1308.026
785.853	24.245	1368.934	1310.841
786.867	24.045	1368.799	1309.075
787.882	23.999	1367.182	1307.034
788.897	23.858	1365.798	1304.512
789.911	23.660	1364.467	1301.624
790.926	23.468	1363.299	1298.942
791.940	23.562	1361.565	1297.831
792.955	23.499	1360.353	1296.053
793.969	23.412	1358.861	1293.842
794.984	23.486	1358.315	1293.709
795.999	23.682	1357.263	1293.988
797.013	23.701	1355.368	1292.167
798.028	23.594	1354.234	1290.142
799.042	23.507	1354.451	1289.559
800.057	23.496	1353.134	1288.071
801.072	23.489	1351.659	1286.460
802.086	23.482	1349.946	1284.628
803.101	23.430	1348.831	1283.038
804.115	23.419	1348.499	1282.487
805.130	23.458	1347.352	1281.523
806.145	23.405	1346.002	1279.706
807.159	23.644	1344.219	1279.588
808.174	23.603	1343.471	1278.425
809.188	23.753	1342.589	1278.516
810.203	23.697	1341.523	1276.941
811.218	23.755	1339.814	1275.584
812.232	23.769	1338.894	1274.655
813.247	23.561	1338.540	1272.669
814.261	23.591	1338.349	1272.550
815.276	23.774	1336.354	1271.819
816.291	23.473	1334.977	1268.191
817.305	23.451	1333.666	1266.635
818.320	23.422	1332.118	1264.802
819.334	23.554	1331.012	1264.548
820.349	23.465	1329.713	1262.531
821.364	23.375	1328.429	1260.514
822.378	23.370	1326.920	1258.898
823.393	23.327	1325.711	1257.291
824.407	23.464	1323.960	1256.456
825.422	23.457	1323.517	1255.833
826.437	23.573	1322.000	1255.067
827.451	23.582	1320.455	1253.515
828.466	23.802	1321.072	1255.518
829.480	24.033	1319.687	1255.685
830.495	23.840	1317.239	1251.838
831.509	23.425	1316.479	1248.034
832.524	23.363	1315.559	1246.577
833.539	23.313	1314.117	1244.705
834.553	23.475	1312.430	1244.102
835.568	23.254	1311.145	1241.179
836.582	23.319	1310.092	1240.491
837.597	23.375	1308.615	1239.335
838.612	23.326	1306.958	1237.274
839.626	23.419	1306.842	1237.665
840.641	23.343	1306.722	1236.874
841.655	23.375	1306.269	1236.517
842.670	23.641	1304.756	1236.801
843.685	23.694	1303.621	1235.953
844.699	23.739	1301.698	1234.295
845.714	23.663	1300.701	1232.674
846.728	23.353	1299.578	1229.296
847.743	23.270	1298.472	1227.528
848.758	23.379	1296.810	1226.568
849.772	23.345	1295.780	1225.207
850.787	23.148	1294.202	1222.200
851.801	23.189	1293.672	1221.840
852.816	23.234	1292.655	1221.043
853.831	23.309	1290.990	1219.846
854.845	23.306	1289.135	1217.927
855.860	23.263	1287.081	1215.544
856.874	23.398	1286.164	1215.461
857.889	23.524	1286.177	1216.195
858.904	23.875	1285.133	1217.482
859.918	24.123	1283.388	1217.385
860.933	24.106	1282.641	1216.412
861.947	23.817	1281.514	1213.215
862.962	23.602	1279.800	1209.977
863.977	23.613	1278.122	1208.322
864.991	23.378	1277.541	1206.019
866.006	23.249	1276.655	1204.159
867.020	23.340	1275.115	1203.182
868.035	23.274	1274.025	1201.561
869.049	23.299	1273.279	1200.880
870.064	23.207	1272.789	1199.647
871.079	23.290	1271.986	1199.310
872.093	23.209	1271.415	1198.081
873.108	23.444	1269.796	1198.008
874.122	23.417	1268.725	1196.668
875.137	23.613	1268.993	1198.110
876.152	23.605	1267.907	1196.890
877.166	23.683	1265.580	1195.076
878.181	23.403	1264.327	1191.856
879.195	23.248	1263.833	1190.205
880.210	23.154	1263.021	1188.657
881.225	23.307	1261.888	1188.484
882.239	23.474	1260.647	1188.297
883.254	23.366	1259.196	1186.058
884.268	23.294	1258.411	1184.698
885.283	23.261	1256.730	1182.746
886.298	23.279	1255.598	1181.665
887.312	23.191	1255.287	1180.638
888.327	23.131	1254.152	1179.028
889.341	23.170	1252.894	1177.964
890.356	23.161	1251.771	1176.708
891.371	23.274	1251.671	1177.225
892.385	23.276	1251.241	1176.693
893.400	23.114	1250.565	1174.840
894.414	23.433	1249.156	1175.499
895.429	23.539	1248.112	1175.082
896.444	24.110	1246.813	1177.519
897.458	24.245	1245.996	1177.499
898.473	23.927	1245.130	1174.430
899.487	23.651	1243.607	1171.021
900.502	23.443	1242.011	1168.004
901.517	23.286	1240.220	1165.138
902.531	23.331	1238.864	1164.025
903.546	23.237	1238.978	1163.370
904.560	23.116	1238.601	1162.079
905.575	23.146	1237.375	1160.990
906.589	23.405	1236.216	1161.466
907.604	23.322	1235.375	1159.994
