DTS Sentinel unit serial number:	SN409020Multiplexer serial number:	ORYXHardware model number:	OX4-SRSoftware version number:	ORYX F/W v3.00 Oryx Data Collector v3.7.2.0data status	okinstallation	HaddamTimeLapsedifferential loss correction	single-endedforward channel	channel 3reverse channel	N/Adate	2011/06/22time	04:41:17forward acquisition time	30.00reverse acquisition time	0.00gamma	498.7831k internal	0.1752k external	0.1752temperature offset calibration	1.0074default loss term (dB/km)	0.3790temperature slope calibration	1.3530multiplexer offset coefficient	1.0000multiplexer slope coefficient	1.0000fibre end	0.00T internal ref (°C)	22.72T ext. ref 1 (°C)	17.98T ext. ref 2 (°C)	0.14length (m)	temperature (°C)	Stokes	anti-Stokes-747.200	-70.718	-0.198	-0.099
-746.185	-92.125	-0.109	0.041
-745.171	-85.439	-0.457	0.188
-744.156	-147.033	-0.400	0.045
-743.142	667.782	0.220	-0.761
-742.127	70.731	-0.176	0.242
-741.112	-108.988	0.271	-0.076
-740.098	-200.000	0.003	0.356
-739.083	2.764	0.123	0.118
-738.069	449.518	-0.156	0.459
-737.054	800.000	0.068	-0.319
-736.039	-19.404	-0.426	-0.350
-735.025	236.065	0.269	0.591
-734.010	-145.933	-0.342	0.040
-732.996	-78.389	0.514	0.233
-731.981	-200.000	0.071	-0.434
-730.966	-200.000	0.038	0.281
-729.952	377.889	0.189	0.516
-728.937	-139.444	-0.152	0.021
-727.923	800.000	-0.108	0.617
-726.908	-200.000	0.010	-0.076
-725.894	-25.119	0.357	0.280
-724.879	92.930	0.328	0.492
-723.864	-38.072	0.596	-0.419
-722.850	68.778	-0.031	-0.042
-721.835	125.128	-0.335	-0.561
-720.821	48.515	-0.236	-0.293
-719.806	-189.327	-0.346	0.005
-718.791	28.880	-0.340	-0.382
-717.777	-66.622	0.361	0.189
-716.762	-200.000	0.019	-0.204
-715.748	305.594	0.164	-0.407
-714.733	580.712	-0.156	-0.508
-713.718	-94.964	-0.440	-0.157
-712.704	107.448	-0.164	0.260
-711.689	-200.000	0.057	-0.516
-710.675	800.000	-0.092	-0.347
-709.660	41.120	-0.351	-0.421
-708.645	263.543	0.117	0.271
-707.631	139.523	-0.470	0.821
-706.616	800.000	0.049	0.278
-705.602	-91.105	-0.448	0.169
-704.587	36.836	-0.124	-0.145
-703.572	-175.830	-0.473	-0.016
-702.558	-60.028	0.141	-0.079
-701.543	20.104	0.336	0.359
-700.529	-133.536	-0.519	0.085
-699.514	-169.725	0.336	0.016
-698.499	415.491	-0.179	0.509
-697.485	-200.000	-0.004	0.488
-696.470	-38.876	0.268	-0.187
-695.456	800.000	0.121	-0.555
-694.441	-122.504	-0.114	0.024
-693.426	243.942	-0.146	-0.327
-692.412	287.292	0.070	-0.168
-691.397	227.549	-0.222	0.479
-690.383	224.688	0.105	-0.225
-689.368	75.951	0.117	0.163
-688.354	582.711	-0.124	-0.404
-687.339	-200.000	-0.011	-0.109
-686.324	295.727	-0.091	0.222
-685.310	800.000	-0.054	-0.229
-684.295	121.568	-0.123	0.203
-683.281	-81.736	0.252	-0.109
-682.266	-84.832	0.159	0.066
-681.251	-200.000	0.008	0.231
-680.237	-42.677	0.223	-0.150
-679.222	-43.591	0.239	-0.159
-678.208	226.453	0.140	0.301
-677.193	-36.813	0.331	-0.235
-676.178	-51.343	-0.396	-0.245
-675.164	-159.873	-0.294	-0.021
-674.149	28.716	0.287	-0.321
-673.135	800.000	-0.091	-0.371
-672.120	-86.306	0.210	0.085
-671.105	800.000	0.069	-0.306
-670.091	11.225	0.049	0.049
-669.076	-133.422	-0.301	0.050
-668.062	-55.570	-0.732	-0.432
-667.047	-123.595	0.069	-0.014
-666.032	-200.000	0.039	0.485
-665.018	72.491	-0.229	-0.316
-664.003	-30.064	-0.438	-0.329
-662.989	239.422	0.076	-0.169
-661.974	-41.390	0.134	-0.091
-660.959	-124.190	0.272	0.056
-659.945	200.178	0.091	0.186
-658.930	165.166	0.122	-0.229
-657.916	-200.000	-0.014	-0.744
-656.901	800.000	0.030	-0.120
-655.886	-49.118	-0.516	-0.326
-654.872	-84.417	-0.390	-0.162
-653.857	78.949	-0.314	0.445
-652.843	15.301	-0.068	0.071
-651.828	-140.647	0.526	-0.071
-650.814	-41.117	0.221	-0.151
-649.799	700.200	0.039	-0.136
-648.784	-17.849	-0.267	-0.221
-647.770	8.485	0.187	0.186
-646.755	-111.611	0.085	0.023
-645.741	-200.000	0.046	-0.548
-644.726	35.500	-0.340	-0.395
-643.711	800.000	-0.040	0.173
-642.697	-13.950	0.154	-0.131
-641.682	-3.877	-0.157	-0.144
-640.668	329.350	0.140	0.358
-639.653	800.000	0.044	0.194
-638.638	84.454	0.034	-0.049
-637.624	10.682	-0.183	0.184
-636.609	-65.403	0.164	-0.087
-635.595	18.487	0.101	-0.107
-634.580	800.000	0.075	-0.281
-633.565	-74.478	-0.363	-0.172
-632.551	-10.427	-0.488	-0.427
-631.536	-49.829	-0.458	-0.286
-630.522	0.280	0.267	-0.251
-629.507	-94.398	-0.311	-0.112
-628.492	-170.645	0.278	-0.013
-627.478	104.471	-0.190	-0.296
-626.463	16.114	-0.314	-0.327
-625.449	70.258	0.201	-0.275
-624.434	-91.392	0.454	-0.171
-623.419	-136.034	-0.082	0.013
-622.405	-29.805	0.370	0.278
-621.390	-7.170	0.459	0.411
-620.376	-69.616	-0.274	0.138
-619.361	-200.000	0.010	-0.121
-618.346	-59.201	-0.385	-0.218
-617.332	-63.425	0.465	-0.251
-616.317	-200.000	0.008	-0.185
-615.303	800.000	0.119	0.521
-614.288	-200.000	-0.041	0.463
-613.273	-10.075	0.184	0.162
-612.259	-94.416	-0.162	0.058
-611.244	-200.000	0.072	0.677
-610.230	166.666	-0.128	0.240
-609.215	-27.568	-0.134	0.103
-608.201	-117.731	-0.535	0.126
-607.186	403.931	-0.047	0.132
-606.171	221.740	-0.118	-0.251
-605.157	-200.000	0.273	-0.001
-604.142	191.438	-0.196	0.392
-603.128	-118.687	0.314	-0.072
-602.113	800.000	0.076	0.316
-601.098	35.418	0.086	0.100
-600.084	-91.522	0.165	0.062
-599.069	-109.971	0.152	0.042
-598.055	-123.987	-0.094	0.019
-597.040	-32.486	-0.057	0.042
-596.025	-110.360	0.390	0.106
-595.011	55.804	-0.103	-0.132
-593.996	320.911	-0.132	0.333
-592.982	800.000	0.017	0.076
-591.967	335.806	0.171	0.439
-590.952	-200.000	-0.035	0.412
-589.938	762.438	-0.060	-0.216
-588.923	-23.249	-0.319	0.253
-587.909	-5.246	-0.173	0.156
-586.894	83.838	0.149	-0.215
-585.879	-31.816	-0.149	-0.110
-584.865	14.476	0.076	-0.078
-583.850	436.162	0.209	-0.603
-582.836	-26.988	0.254	-0.195
-581.821	800.000	0.087	0.429
-580.806	800.000	-0.088	0.325
-579.792	800.000	-0.087	0.500
-578.777	30.724	-0.166	-0.188
-577.763	110.215	0.089	-0.141
-576.748	-25.431	0.256	0.199
-575.733	-156.529	-1.064	-0.086
-574.719	-200.000	-0.029	-0.283
-573.704	26.935	0.241	0.267
-572.690	147.523	0.291	0.518
-571.675	44.339	-0.284	0.344
-570.661	532.047	0.038	-0.120
-569.646	-55.168	-0.363	-0.214
-568.631	-97.854	-0.242	-0.082
-567.617	-66.615	0.309	-0.161
-566.602	26.875	0.056	-0.061
-565.588	-8.714	-0.103	-0.091
-564.573	-79.533	-0.100	-0.044
-563.558	-200.000	0.004	0.436
-562.544	800.000	-0.058	-0.217
-561.529	166.401	0.107	-0.200
-560.515	70.768	-0.223	-0.304
-559.500	160.223	-0.132	-0.243
-558.485	-200.000	0.010	0.139
-557.471	800.000	-0.032	0.169
-556.456	-99.799	-0.315	-0.103
-555.442	124.011	-0.233	-0.387
-554.427	371.133	-0.167	0.448
-553.412	107.497	-0.015	0.024
-552.398	136.536	0.127	-0.220
-551.383	183.662	-0.158	-0.309
-550.369	-115.827	0.214	-0.052
-549.354	-128.058	-0.442	-0.083
-548.339	-0.664	-0.189	-0.177
-547.325	442.976	-0.058	0.168
-546.310	155.447	-0.067	-0.122
-545.296	112.170	-0.139	-0.222
-544.281	-113.636	-0.698	0.178
-543.266	-12.783	-0.179	0.154
-542.252	800.000	-0.101	0.563
-541.237	-81.766	0.546	0.235
-540.223	-138.468	0.205	-0.029
-539.208	-19.023	-0.226	0.185
-538.193	-37.040	0.201	-0.141
-537.179	-22.802	0.248	-0.197
-536.164	-29.401	0.115	-0.086
-535.150	-55.523	-0.427	0.251
-534.135	38.115	-0.147	-0.172
-533.121	-53.578	-0.235	-0.141
-532.106	434.511	0.243	-0.699
-531.091	-22.226	0.129	-0.102
-530.077	-24.580	0.181	-0.142
-529.062	-24.088	0.530	-0.416
-528.048	15.001	0.204	-0.210
-527.033	-200.000	-0.040	0.327
-526.018	-108.148	-0.070	-0.020
-525.004	703.247	-0.172	-0.599
-523.989	54.298	-0.301	-0.382
-522.975	-50.494	0.255	0.158
-521.960	-109.464	0.356	0.098
-520.945	-58.498	-0.117	-0.066
-519.931	507.430	0.063	-0.193
-518.916	800.000	-0.088	0.427
-517.902	-200.000	-0.026	0.375
-516.887	-136.710	0.401	0.060
-515.872	-74.555	-0.374	0.176
-514.858	-134.700	0.633	-0.100
-513.843	79.209	0.093	0.131
-512.829	-42.704	-0.204	0.136
-511.814	-174.965	0.629	0.023
-510.799	80.047	-0.134	-0.189
-509.785	-43.603	-0.253	0.167
-508.770	-113.946	-0.074	-0.019
-507.756	-107.405	-0.436	0.125
-506.741	365.330	-0.097	0.257
-505.726	800.000	0.133	-0.612
-504.712	-200.000	0.030	0.844
-503.697	114.957	0.254	0.408
-502.683	-72.704	0.540	0.260
-501.668	-147.245	-0.025	-0.003
-500.653	-165.635	0.153	0.009
-499.639	54.417	0.306	-0.388
-498.624	11.259	-0.153	0.154
-497.610	800.000	0.031	-0.140
-496.595	-74.821	0.514	-0.242
-495.581	800.000	-0.083	-0.428
-494.566	-132.495	-0.484	-0.081
-493.551	723.889	-0.092	-0.325
-492.537	-145.407	-0.494	0.058
-491.522	-38.513	0.239	0.166
-490.508	96.807	0.165	-0.249
-489.493	-127.472	-0.466	0.088
-488.478	-30.913	0.070	-0.052
-487.464	518.446	0.065	-0.200
-486.449	48.355	-0.074	-0.092
-485.435	64.306	-0.349	-0.463
-484.420	22.560	0.181	-0.195
-483.405	-21.387	0.148	-0.118
-482.391	51.628	-0.346	-0.433
-481.376	-2.487	-0.177	0.163
-480.362	-73.118	0.309	0.148
-479.347	171.364	-0.266	-0.503
-478.332	-118.734	0.418	0.096
-477.318	-58.854	0.490	-0.278
-476.303	64.498	-0.179	-0.237
-475.289	75.967	-0.193	0.268
-474.274	348.050	0.063	0.163
-473.259	800.000	0.045	-0.261
-472.245	-82.712	-0.709	0.300
-471.230	18.216	-0.192	0.201
-470.216	4.098	-0.492	-0.472
-469.201	-200.000	-0.053	-0.414
-468.186	110.117	0.446	-0.705
-467.172	-140.764	0.221	-0.030
-466.157	-130.980	0.159	-0.028
-465.143	-123.963	-0.702	0.144
-464.128	-121.455	-0.196	0.043
-463.113	-149.065	-0.776	0.081
-462.099	800.000	0.128	0.582
-461.084	-91.313	0.261	0.098
-460.070	-72.252	0.835	-0.405
-459.055	-97.161	0.479	-0.163
-458.040	329.588	-0.048	0.122
-457.026	-17.675	0.056	0.046
-456.011	-60.074	-0.482	-0.269
-454.997	-83.217	-0.171	-0.072
-453.982	-163.503	0.403	0.025
-452.968	-200.000	0.025	0.636
-451.953	-16.556	0.290	0.241
-450.938	224.365	-0.277	0.589
-449.924	32.905	-0.355	-0.404
-448.909	296.838	0.070	0.168
-447.895	63.394	0.108	-0.142
-446.880	-200.000	-0.043	0.428
-445.865	-132.772	-0.605	-0.100
-444.851	-117.207	0.257	-0.061
-443.836	800.000	0.074	0.285
-442.822	-69.366	-0.096	0.048
-441.807	-95.373	-0.463	-0.162
-440.792	-14.770	0.147	0.124
-439.778	45.172	0.297	-0.360
-438.763	-180.882	-0.429	-0.011
-437.749	-115.721	-0.114	-0.028
-436.734	-100.333	0.093	-0.030
-435.719	-200.000	0.024	0.250
-434.705	52.153	0.061	0.076
-433.690	245.054	0.137	0.303
-432.676	133.515	-0.159	-0.271
-431.661	800.000	-0.042	0.241
-430.646	800.000	0.020	0.112
-429.632	178.740	-0.221	0.424
-428.617	-173.774	0.073	-0.003
-427.603	34.402	0.175	-0.200
-426.588	522.961	0.105	0.327
-425.573	-14.810	0.283	0.238
-424.559	4.016	0.327	0.313
-423.544	-96.845	-0.094	-0.032
-422.530	-200.000	-0.056	-0.493
-421.515	800.000	0.071	-0.313
-420.500	-50.663	-0.463	-0.285
-419.486	694.828	0.039	0.136
-418.471	-200.000	-0.039	0.369
-417.457	-135.326	0.270	0.042
-416.442	225.734	-0.328	0.700
-415.428	-10.858	-0.283	0.245
-414.413	-39.611	-0.367	0.251
-413.398	-200.000	-0.060	-0.370
-412.384	-37.727	-0.079	0.055
-411.369	-64.394	-0.087	0.046
-410.355	-83.490	0.541	-0.226
-409.340	107.592	0.039	0.060
-408.325	-200.000	-0.004	0.177
-407.311	-63.189	0.058	0.031
-406.296	775.334	-0.081	0.290
-405.282	628.325	-0.041	0.135
-404.267	-30.617	0.468	0.346
-403.252	180.716	-0.260	0.501
-402.238	-27.871	-0.312	0.236
-401.223	281.232	-0.057	-0.133
-400.209	-130.876	-0.295	0.051
-399.194	168.223	0.090	0.169
-398.179	727.643	-0.164	0.578
-397.165	-65.483	0.034	0.018
-396.150	62.084	-0.241	-0.314
-395.136	606.385	0.053	-0.174
-394.121	-33.345	-0.110	0.079
-393.106	296.526	0.199	0.479
-392.092	175.999	0.084	0.159
-391.077	-70.764	-0.317	0.156
-390.063	-55.879	-0.126	0.074
-389.048	-31.244	0.130	-0.096
-388.033	-120.177	-0.081	-0.018
-387.019	76.262	0.162	0.225
-386.004	157.208	-0.175	0.319
-384.990	-146.480	0.427	0.048
-383.975	-154.538	-0.353	0.030
-382.960	78.075	0.184	0.257
-381.946	25.272	-0.072	-0.079
-380.931	-136.445	0.620	-0.093
-379.917	-200.000	0.043	0.294
-378.902	-173.730	-0.623	-0.024
-377.888	-121.243	-0.448	0.097
-376.873	44.421	-0.156	-0.187
-375.858	234.849	0.179	-0.389
-374.844	-123.236	0.506	0.105
-373.829	-77.277	0.228	-0.103
-372.815	78.423	-0.310	-0.434
-371.800	-200.000	0.019	0.115
-370.785	771.491	0.160	-0.573
-369.771	-24.486	-0.271	-0.211
-368.756	-24.205	0.204	0.159
-367.742	-142.222	0.238	0.030
-366.727	-127.315	-0.142	0.027
-365.712	-95.301	0.116	0.041
-364.698	800.000	-0.045	0.165
-363.683	360.392	0.078	-0.206
-362.669	105.111	-0.083	0.128
-361.654	19.811	-0.150	-0.158
-360.639	-179.053	-0.251	-0.007
-359.625	15.866	0.285	0.293
-358.610	-200.000	0.014	0.224
-357.596	20.476	0.100	-0.105
-356.581	800.000	0.071	0.306
-355.566	800.000	-0.116	-0.481
-354.552	24.418	0.130	0.140
-353.537	-126.131	0.159	0.031
-352.523	-79.823	0.437	-0.191
-351.508	-21.148	0.312	-0.249
-350.493	177.640	0.064	0.122
-349.479	237.493	0.103	0.224
-348.464	102.666	-0.228	0.349
-347.450	800.000	0.141	0.533
-346.435	-38.493	0.152	-0.105
-345.420	-200.000	0.011	-0.306
-344.406	-62.541	-0.128	-0.069
-343.391	-200.000	-0.032	0.269
-342.377	678.068	-0.148	-0.505
-341.362	800.000	-0.090	-0.326
-340.348	-75.968	0.177	-0.081
-339.333	65.069	0.294	0.389
-338.318	-200.000	-0.006	-0.219
-337.304	-132.408	0.357	0.060
-336.289	-121.736	0.128	-0.027
-335.275	25.742	0.493	-0.536
-334.260	23.820	-0.005	-0.005
-333.245	-143.002	0.842	0.105
-332.231	184.629	0.171	0.332
-331.216	69.950	-0.375	0.506
-330.202	158.818	-0.169	0.307
-329.187	-128.022	-0.103	0.019
-328.172	-123.470	0.180	-0.037
-327.158	-200.000	0.043	-0.366
-326.143	338.033	0.015	0.038
-325.129	360.109	-0.080	-0.211
-324.114	-200.000	0.010	0.115
-323.099	-200.000	0.015	0.239
-322.085	165.213	0.018	-0.034
-321.070	27.215	-0.196	0.215
-320.056	-75.553	0.267	0.123
-319.041	-143.897	-0.245	-0.030
-318.026	-128.736	0.317	0.058
-317.012	-14.301	0.123	0.103
-315.997	4.993	0.359	0.345
-314.983	-175.855	0.405	0.014
-313.968	-108.902	0.059	-0.016
-312.953	-43.124	-0.621	-0.409
-311.939	-119.495	-0.312	-0.070
-310.924	-62.298	0.285	0.154
-309.910	-200.000	0.027	0.166
-308.895	428.895	0.056	-0.159
-307.880	800.000	-0.068	-0.335
-306.866	800.000	-0.038	0.173
-305.851	39.872	-0.306	-0.359
-304.837	-136.064	-0.257	0.039
-303.822	-200.000	0.017	-0.111
-302.807	81.364	-0.153	-0.216
-301.793	-102.560	0.330	-0.102
-300.778	-116.686	0.363	-0.086
-299.764	-118.547	0.199	-0.045
-298.749	-0.777	0.350	0.323
-297.735	-91.802	-0.413	0.152
-296.720	17.843	0.088	-0.091
-295.705	257.675	0.106	0.239
-294.691	-121.594	-0.296	0.063
-293.676	-141.799	0.386	0.050
-292.662	350.721	-0.049	0.126
-291.647	58.036	0.083	-0.106
-290.632	-200.000	-0.017	0.169
-289.618	193.913	-0.192	-0.380
-288.603	-135.645	0.188	-0.029
-287.589	-200.000	0.018	-0.142
-286.574	62.310	-0.223	0.291
-285.559	128.794	0.258	-0.430
-284.545	800.000	0.064	-0.324
-283.530	387.371	0.153	-0.415
-282.516	-124.394	-0.671	-0.135
-281.501	-106.416	-0.365	-0.106
-280.486	177.298	-0.048	-0.092
-279.472	-94.624	-0.240	0.085
-278.457	-54.520	0.050	0.030
-277.443	420.446	0.150	-0.420
-276.428	609.154	-0.154	0.505
-275.413	23.804	-0.126	-0.135
-274.399	12.150	0.368	0.369
-273.384	28.904	0.022	0.024
-272.370	800.000	-0.081	-0.385
-271.355	-75.942	0.196	-0.090
-270.340	532.391	-0.101	-0.312
-269.326	560.359	0.109	0.344
-268.311	-40.171	0.693	0.469
-267.297	800.000	-0.088	0.324
-266.282	-200.000	0.036	-0.229
-265.267	-97.686	-0.297	0.100
-264.253	56.433	-0.266	0.337
-263.238	-8.247	-0.071	0.062
-262.224	-162.912	0.528	0.033
-261.209	-55.291	-0.191	-0.111
-260.195	-9.717	-0.275	-0.238
-259.180	-93.585	-0.400	-0.143
-258.165	-117.380	-0.049	0.012
-257.151	800.000	0.117	-0.530
-256.136	800.000	-0.094	-0.498
-255.122	-41.032	-0.116	-0.078
-254.107	409.820	0.049	0.135
-253.092	-200.000	-0.050	0.496
-252.078	-108.601	-0.223	0.062
-251.063	-200.000	0.025	0.212
-250.049	-108.516	0.182	-0.051
-249.034	221.589	-0.051	0.107
-248.019	-71.296	-0.165	-0.080
-247.005	-200.000	0.013	-0.353
-245.990	50.743	0.306	0.378
-244.976	294.570	0.234	0.560
-243.961	-98.613	0.763	-0.252
-242.946	-94.835	-0.265	-0.093
-241.932	110.079	-0.087	0.136
-240.917	82.381	-0.230	-0.325
-239.903	125.474	0.075	-0.124
-238.888	-36.794	0.080	-0.055
-237.873	152.009	0.090	-0.161
-236.859	260.184	-0.014	0.031
-235.844	-200.000	0.007	-0.329
-234.830	83.947	0.141	0.201
-233.815	-17.288	0.132	-0.108
-232.800	-159.263	0.416	0.030
-231.786	-29.257	-0.168	-0.125
-230.771	78.875	0.181	-0.253
-229.757	-63.518	0.468	-0.249
-228.742	118.022	0.281	0.452
-227.727	-87.362	-0.194	0.076
-226.713	7.719	-0.376	0.366
-225.698	800.000	0.039	-0.158
-224.684	-200.000	0.041	-0.444
-223.669	-21.692	-0.170	0.134
-222.655	30.081	0.198	0.220
-221.640	800.000	0.051	-0.235
-220.625	412.593	-0.120	0.332
-219.611	25.647	-0.326	-0.353
-218.596	681.883	-0.080	0.272
-217.582	-200.000	-0.015	-0.363
-216.567	-200.000	-0.029	-0.275
-215.552	-3.314	0.068	0.062
-214.538	800.000	0.077	0.322
-213.523	800.000	0.054	0.197
-212.509	-145.278	0.408	-0.047
-211.494	3.588	0.227	0.215
-210.479	163.641	0.228	-0.418
-209.465	-166.437	0.464	0.025
-208.450	-51.408	-0.427	-0.259
-207.436	171.812	0.151	0.282
-206.421	-14.020	0.162	0.136
-205.406	-79.157	-0.330	-0.145
-204.392	-165.242	-0.262	-0.015
-203.377	165.427	0.230	-0.424
-202.363	247.608	-0.142	-0.313
-201.348	34.097	0.220	-0.250
-200.333	-114.651	-0.378	-0.093
-199.319	50.617	-0.133	-0.163
-198.304	800.000	0.090	-0.368
-197.290	271.574	-0.247	0.569
-196.275	229.305	0.247	0.525
-195.260	-47.687	-0.345	0.217
-194.246	-81.879	0.336	-0.142
-193.231	349.826	-0.117	0.301
-192.217	-172.910	0.183	-0.007
-191.202	-59.506	-0.055	-0.030
-190.187	-77.291	0.275	0.124
-189.173	121.211	0.063	0.102
-188.158	198.017	-0.138	0.274
-187.144	-172.891	-0.510	-0.020
-186.129	78.560	-0.088	0.122
-185.114	-165.631	-0.517	0.029
-184.100	800.000	-0.083	0.449
-183.085	78.710	-0.219	0.305
-182.071	141.342	0.092	0.158
-181.056	-145.038	-0.188	0.022
-180.042	-25.637	-0.199	-0.152
-179.027	156.862	0.243	0.437
-178.012	-30.309	-0.189	0.139
-176.998	201.330	-0.056	-0.113
-175.983	-78.326	-0.178	0.079
-174.969	-200.000	-0.040	-0.605
-173.954	53.630	0.177	-0.220
-172.939	800.000	0.139	-0.724
-171.925	-34.374	-0.227	-0.161
-170.910	63.215	0.221	-0.288
-169.896	-200.000	-0.007	-0.358
-168.881	-11.299	0.294	0.251
-167.866	-29.177	0.046	-0.034
-166.852	800.000	-0.121	-0.491
-165.837	-100.094	0.272	0.087
-164.823	-200.000	-0.030	0.196
-163.808	-97.202	-0.305	-0.103
-162.793	-97.522	-0.652	-0.219
-161.779	-50.449	0.405	0.247
-160.764	-200.000	0.055	0.581
-159.750	-200.000	0.010	-0.277
-158.735	-60.061	0.363	0.200
-157.720	-123.868	-0.474	-0.096
-156.706	-2.197	-0.503	-0.457
-155.691	-200.000	-0.020	0.298
-154.677	-200.000	0.314	-0.000
-153.662	-67.902	0.298	-0.150
-152.647	-133.173	0.891	-0.145
-151.633	-200.000	0.098	-0.598
-150.618	-80.310	0.174	0.075
-149.604	39.882	-0.204	-0.238
-148.589	-98.159	-0.343	0.114
-147.574	-68.406	-0.414	-0.208
-146.560	-147.125	0.231	-0.025
-145.545	-81.818	-0.118	-0.050
-144.531	15.877	-0.190	-0.194
-143.516	18.830	-0.119	0.123
-142.502	-111.915	-0.214	0.056
-141.487	-69.662	0.310	0.153
-140.472	-31.557	-0.369	-0.268
-139.458	-44.121	-0.313	-0.203
-138.443	458.870	0.123	0.358
-137.429	516.270	-0.040	-0.121
-136.414	-91.212	0.041	-0.015
-135.399	245.375	0.156	-0.342
-134.385	38.907	0.456	-0.528
-133.370	-200.000	0.007	0.059
-132.356	49.717	0.121	-0.148
-131.341	-104.236	-0.264	-0.079
-130.326	-12.812	-0.406	-0.342
-129.312	47.676	0.416	-0.503
-128.297	-14.648	-0.101	-0.084
-127.283	-150.191	-0.139	-0.014
-126.268	228.454	0.203	0.431
-125.253	249.585	0.063	-0.139
-124.239	-87.342	0.171	-0.067
-123.224	-5.538	-0.187	0.166
-122.210	-1.956	0.189	-0.172
-121.195	800.000	0.029	-0.106
-120.180	-99.251	0.341	-0.111
-119.166	-9.974	-0.186	0.160
-118.151	800.000	-0.095	-0.446
-117.137	-43.478	0.493	-0.322
-116.122	-200.000	-0.058	-0.437
-115.107	304.838	0.088	0.211
-114.093	358.983	0.177	0.461
-113.078	-144.018	0.177	0.021
-112.064	-74.243	0.030	0.014
-111.049	185.922	-0.141	-0.273
-110.034	235.145	-0.198	-0.424
-109.020	138.565	-0.072	0.123
-108.005	128.141	0.167	-0.275
-106.991	-98.961	0.138	0.045
-105.976	167.953	-0.075	0.139
-104.962	-57.980	-0.351	-0.198
-103.947	-93.693	0.376	-0.133
-102.932	506.548	-0.113	-0.342
-101.918	-200.000	-0.007	0.053
-100.903	293.518	-0.072	0.170
-99.889	-200.000	-0.018	0.246
-98.874	-54.406	0.368	-0.215
-97.859	-150.323	-0.252	-0.025
-96.845	-8.802	-0.080	0.069
-95.830	83.391	-0.219	-0.310
-94.816	37.925	0.077	-0.089
-93.801	-88.740	-0.500	-0.191
-92.786	-1.782	-0.310	0.282
-91.772	-65.303	0.296	0.154
-90.757	-45.425	0.148	0.095
-89.743	-82.806	-0.288	0.120
-88.728	800.000	-0.057	0.221
-87.713	87.819	-0.259	0.373
-86.699	79.481	0.078	-0.109
-85.684	-73.852	0.360	-0.168
-84.670	31.895	0.194	0.216
-83.655	-59.041	0.208	0.116
-82.640	800.000	0.035	-0.198
-81.626	-28.193	-0.158	0.118
-80.611	-106.655	-0.499	0.143
-79.597	151.018	-0.149	-0.263
-78.582	-125.119	-0.347	0.068
-77.567	800.000	-0.011	0.064
-76.553	-131.821	-0.377	-0.063
-75.538	-152.491	-0.602	-0.055
-74.524	-200.000	0.029	-0.335
-73.509	-200.000	-0.048	-0.463
-72.494	75.752	0.238	-0.326
-71.480	-200.000	-0.023	0.262
-70.465	63.006	0.239	0.310
-69.451	-200.000	0.021	-0.372
-68.436	6.106	-0.496	-0.475
-67.422	-200.000	-0.029	-0.468
-66.407	-200.000	0.068	-0.498
-65.392	-181.143	-0.627	0.016
-64.378	-64.486	0.254	-0.133
-63.363	-25.312	-0.218	0.167
-62.349	130.565	-0.352	-0.584
-61.334	41.383	-2.273	-2.658
-60.319	26.561	1.336	1.444
-59.305	239.475	-3.620	-7.814
-58.290	69.107	3.956	5.261
-57.276	422.020	3.597	10.024
-56.261	-200.000	24.992	319.006
-55.246	358.214	1297.268	3361.814
-54.232	53.376	2838.060	3517.545
-53.217	51.668	2659.494	3269.726
-52.203	32.228	2389.765	2664.381
-51.188	27.914	2055.590	2238.709
-50.173	24.609	1941.495	2075.841
-49.159	23.519	1930.395	2051.219
-48.144	23.127	1925.049	2040.914
-47.130	22.967	1922.958	2036.770
-46.115	22.950	1921.612	2035.066
-45.100	23.029	1919.269	2033.410
-44.086	23.023	1917.772	2031.679
-43.071	22.924	1917.054	2029.692
-42.057	22.962	1914.410	2027.253
-41.042	22.841	1913.800	2025.132
-40.027	22.861	1912.907	2024.337
-39.013	22.902	1910.777	2022.472
-37.998	22.822	1910.081	2020.740
-36.984	22.842	1908.997	2019.741
-35.969	22.862	1907.987	2018.818
-34.954	22.869	1906.792	2017.559
-33.940	22.848	1905.310	2015.665
-32.925	22.884	1904.018	2014.634
-31.911	22.827	1902.415	2012.203
-30.896	22.813	1900.528	2009.963
-29.881	22.781	1899.926	2008.887
-28.867	22.782	1897.494	2006.242
-27.852	22.686	1896.814	2004.346
-26.838	22.711	1894.735	2002.355
-25.823	22.765	1893.535	2001.627
-24.809	22.853	1892.065	2000.992
-23.794	22.711	1891.793	1999.015
-22.779	22.813	1890.059	1998.263
-21.765	22.706	1888.522	1995.336
-20.750	22.706	1888.072	1994.783
-19.736	22.716	1886.771	1993.442
-18.721	22.562	1885.735	1990.523
-17.706	22.577	1884.368	1989.166
-16.692	22.665	1883.178	1988.832
-15.677	22.657	1882.166	1987.593
-14.663	22.750	1880.442	1986.750
-13.648	22.593	1879.124	1983.501
-12.633	22.532	1878.287	1981.847
-11.619	22.703	1876.532	1981.854
-10.604	22.722	1874.964	1980.330
-9.590	22.495	1874.455	1977.154
-8.575	22.576	1873.913	1977.418
-7.560	22.631	1872.074	1976.018
-6.546	22.654	1870.740	1974.789
-5.531	22.635	1869.197	1972.863
-4.517	22.490	1868.811	1970.752
-3.502	22.530	1868.134	1970.415
-2.487	22.655	1866.057	1969.540
-1.473	22.765	1861.748	1966.145
-0.458	22.486	1844.940	1945.228
0.556	19.181	1990.229	2046.727
1.571	17.918	2193.485	2238.850
2.586	18.697	2232.928	2289.288
3.600	18.731	2235.570	2292.167
4.615	18.654	2235.268	2290.560
5.629	18.748	2232.579	2288.781
6.644	18.565	2230.970	2284.412
7.659	18.741	2228.637	2284.101
8.673	18.806	2226.457	2282.470
9.688	18.467	2234.956	2286.358
10.702	17.313	2314.559	2351.479
11.717	15.769	2379.156	2394.742
12.731	7.639	2360.562	2259.906
13.746	1.109	2342.511	2149.484
14.761	0.210	2339.393	2133.578
15.775	0.034	2337.936	2129.485
16.790	0.088	2335.444	2127.728
17.804	0.051	2334.248	2125.851
18.819	0.039	2333.937	2125.143
19.834	-0.036	2332.392	2122.425
20.848	-0.042	2331.155	2120.963
21.863	0.036	2328.317	2119.228
22.877	0.006	2327.101	2117.445
23.892	-0.061	2324.803	2114.150
24.907	0.098	2321.888	2113.484
25.921	-0.020	2320.701	2110.496
26.936	0.025	2318.409	2108.789
27.950	-0.033	2315.305	2104.897
28.965	0.121	2313.441	2105.111
29.980	0.110	2311.778	2103.194
30.994	0.230	2309.710	2102.745
32.009	4.268	2321.991	2170.562
33.023	13.496	2349.101	2326.470
34.038	17.385	2355.268	2387.258
35.053	17.622	2352.928	2387.951
36.067	17.916	2349.939	2388.759
37.082	17.748	2349.778	2385.948
38.096	17.858	2346.908	2384.297
39.111	17.962	2344.499	2383.028
40.126	18.014	2342.890	2381.831
41.140	18.195	2341.187	2382.350
42.155	18.023	2339.754	2378.197
43.169	18.017	2337.829	2375.868
44.184	17.915	2335.463	2371.762
45.199	17.888	2331.946	2367.524
46.213	17.903	2331.284	2366.786
47.228	17.957	2330.770	2366.731
48.242	17.849	2329.087	2363.228
49.257	17.970	2326.929	2362.435
50.271	17.890	2324.521	2358.604
51.286	17.858	2322.016	2355.332
52.301	17.776	2320.850	2352.740
53.315	18.221	2322.390	2360.184
54.330	19.870	2327.012	2387.484
55.344	21.131	2326.498	2404.153
56.359	21.387	2321.552	2402.289
57.374	21.431	2321.809	2402.869
58.388	21.548	2319.111	2401.402
59.403	21.484	2315.324	2396.314
60.417	21.341	2312.316	2390.944
61.432	21.349	2311.579	2390.016
62.447	21.570	2310.292	2391.428
63.461	21.706	2308.471	2391.119
64.476	21.721	2306.870	2389.388
65.490	21.524	2305.089	2384.553
66.505	20.917	2301.996	2372.770
67.520	19.446	2295.967	2346.172
68.534	18.110	2290.088	2321.662
69.549	17.817	2286.149	2313.401
70.563	17.857	2283.438	2310.921
71.578	17.934	2282.172	2310.420
72.593	17.953	2280.112	2308.314
73.607	18.042	2278.035	2307.136
74.622	17.965	2276.200	2303.964
75.636	17.963	2273.082	2300.496
76.651	17.871	2272.063	2297.946
77.666	17.902	2269.413	2295.416
78.680	17.921	2266.943	2292.892
79.695	17.832	2265.367	2289.827
80.709	17.908	2264.488	2289.685
81.724	17.881	2262.633	2287.179
82.739	17.853	2259.552	2283.418
83.753	17.933	2257.000	2281.629
84.768	17.905	2256.172	2280.147
85.782	17.707	2255.254	2276.294
86.797	17.776	2252.880	2274.553
87.812	17.847	2250.777	2273.103
88.826	17.951	2248.157	2271.571
89.841	17.916	2245.961	2268.622
90.855	17.935	2243.948	2266.566
91.870	17.859	2242.959	2264.286
92.884	17.843	2240.849	2261.670
93.899	17.813	2240.716	2260.868
94.914	18.232	2241.404	2266.866
95.928	19.881	2244.993	2292.201
96.943	20.528	2243.504	2299.008
97.957	18.821	2235.697	2268.104
98.972	17.858	2232.078	2251.400
99.987	17.735	2229.274	2246.665
101.001	17.730	2226.642	2243.678
102.016	17.750	2224.732	2241.750
103.030	17.805	2221.867	2239.329
104.045	17.722	2219.994	2236.079
105.060	17.725	2218.378	2234.220
106.074	17.822	2216.238	2233.075
107.089	17.739	2215.297	2230.769
108.103	17.863	2213.982	2230.804
109.118	17.870	2211.617	2228.247
110.133	17.928	2210.678	2227.796
111.147	17.922	2208.368	2225.114
112.162	17.851	2206.763	2222.306
113.176	17.958	2203.796	2220.455
114.191	17.846	2203.078	2217.999
115.206	17.791	2201.633	2215.566
116.220	17.787	2198.802	2212.389
117.235	17.733	2197.599	2210.213
118.249	17.895	2195.488	2209.940
119.264	17.782	2194.892	2207.599
120.279	17.840	2192.527	2205.707
121.293	17.796	2190.873	2203.209
122.308	17.871	2188.614	2201.650
123.322	17.889	2188.218	2201.214
124.337	18.142	2188.882	2204.900
125.352	20.005	2192.865	2232.816
126.366	20.243	2192.248	2235.005
127.381	18.528	2183.502	2203.686
128.395	17.766	2178.879	2188.926
129.410	17.863	2176.885	2187.918
130.424	17.740	2175.445	2184.614
131.439	17.733	2174.026	2182.840
132.454	17.739	2171.915	2180.539
133.468	17.846	2170.096	2179.832
134.483	17.810	2168.452	2177.453
135.497	17.828	2166.343	2175.300
136.512	17.926	2163.791	2173.735
137.527	17.833	2162.507	2170.997
138.541	17.828	2161.223	2169.387
139.556	17.763	2160.568	2167.638
140.570	17.773	2159.250	2166.178
141.585	17.781	2156.524	2163.284
142.600	17.779	2155.500	2161.979
143.614	17.570	2155.070	2158.628
144.629	17.706	2152.294	2157.320
145.643	17.740	2149.615	2154.805
146.658	17.705	2149.097	2153.587
147.673	17.751	2147.280	2152.086
148.687	17.761	2145.534	2150.207
149.702	17.887	2144.275	2150.283
150.716	17.840	2143.536	2148.687
151.731	17.721	2143.235	2146.621
152.746	17.809	2141.061	2145.297
153.760	18.229	2143.143	2152.441
154.775	19.905	2147.447	2177.722
155.789	20.437	2145.174	2181.881
156.804	18.825	2136.230	2152.239
157.819	17.783	2131.705	2134.329
158.833	17.847	2128.103	2131.267
159.848	17.906	2125.708	2129.352
160.862	17.897	2125.811	2129.080
161.877	17.921	2125.467	2128.793
162.892	17.832	2124.361	2126.305
163.906	17.890	2122.115	2124.529
164.921	17.916	2119.953	2122.433
165.935	17.859	2117.772	2119.295
166.950	17.966	2116.081	2118.681
167.964	17.804	2114.311	2114.636
168.979	17.800	2113.211	2113.226
169.994	17.822	2111.368	2111.412
171.008	17.861	2109.670	2109.947
172.023	17.790	2107.916	2107.055
173.037	17.797	2107.329	2106.300
174.052	17.846	2105.784	2105.120
175.067	17.876	2103.513	2102.958
176.081	17.770	2102.558	2100.443
177.096	17.936	2100.232	2099.919
178.110	17.828	2099.331	2097.440
179.125	17.851	2097.533	2095.672
180.140	17.846	2095.985	2093.813
181.154	17.833	2095.284	2092.704
182.169	17.778	2094.581	2091.071
183.183	18.246	2094.983	2096.981
184.198	20.146	2098.463	2123.640
185.213	20.598	2096.704	2127.163
186.227	18.663	2091.444	2097.815
187.242	18.038	2086.811	2085.261
188.256	17.827	2085.766	2081.380
189.271	17.852	2083.847	2079.521
190.286	17.847	2083.053	2078.418
191.300	17.826	2080.214	2075.079
192.315	17.790	2077.557	2071.736
193.329	17.818	2076.438	2070.717
194.344	18.034	2074.661	2071.333
195.359	17.933	2074.918	2070.110
196.373	17.872	2072.426	2066.628
197.388	17.906	2069.721	2064.095
198.402	17.899	2066.972	2061.028
199.417	17.951	2064.675	2059.116
200.432	17.778	2064.010	2056.113
201.446	17.704	2064.181	2055.138
202.461	17.814	2061.482	2053.532
203.475	17.811	2059.193	2050.975
204.490	17.796	2057.867	2049.233
205.504	17.802	2055.324	2046.526
206.519	17.772	2053.770	2044.366
207.534	17.859	2051.360	2042.778
208.548	17.888	2051.011	2042.530
209.563	17.681	2050.427	2039.214
210.577	17.778	2048.190	2037.915
211.592	17.854	2047.718	2038.111
212.607	18.672	2050.787	2050.745
213.621	20.700	2055.619	2079.722
214.636	20.227	2050.788	2068.919
215.650	18.353	2044.425	2039.839
216.665	17.928	2040.393	2030.483
217.680	17.973	2037.937	2028.336
218.694	17.896	2037.154	2026.391
219.709	17.836	2036.088	2024.382
220.723	18.037	2034.231	2024.686
221.738	17.808	2032.896	2020.387
222.753	17.864	2030.207	2018.136
223.767	17.973	2029.414	2018.404
224.782	17.891	2027.869	2015.651
225.796	17.945	2025.761	2013.957
226.811	17.974	2025.220	2013.516
227.826	17.896	2022.922	2010.069
228.840	17.920	2021.546	2008.745
229.855	17.780	2021.102	2006.407
230.869	17.911	2019.702	2006.334
231.884	17.955	2016.560	2003.489
232.899	17.838	2015.559	2000.875
233.913	17.884	2014.208	1999.836
234.928	17.747	2013.058	1996.842
235.942	17.917	2011.208	1996.765
236.957	17.844	2009.643	1994.115
237.972	17.866	2008.481	1992.976
238.986	17.878	2007.718	1992.119
240.001	17.889	2006.430	1990.742
241.015	17.847	2005.570	1989.149
242.030	18.228	2006.529	1994.336
243.045	19.877	2008.993	2015.872
244.059	20.008	2006.983	2015.138
245.074	18.400	2000.104	1989.235
246.088	17.932	1996.280	1979.749
247.103	17.919	1994.375	1977.465
248.117	17.889	1993.575	1976.089
249.132	17.888	1991.889	1974.167
250.147	17.911	1989.738	1972.066
251.161	17.949	1987.722	1970.278
252.176	18.057	1986.840	1970.416
253.190	18.122	1985.002	1969.114
254.205	18.125	1983.059	1966.981
255.220	17.980	1982.589	1964.608
256.234	18.006	1981.013	1963.102
257.249	18.011	1979.790	1961.719
258.263	17.900	1979.120	1959.533
259.278	17.854	1978.178	1957.846
260.293	17.918	1975.861	1956.047
261.307	17.835	1973.632	1952.653
262.322	17.873	1971.792	1951.034
263.336	17.827	1969.990	1948.495
264.351	17.889	1968.130	1947.129
265.366	17.791	1966.918	1944.579
266.380	17.769	1966.717	1943.897
267.395	17.778	1965.108	1942.176
268.409	17.799	1963.762	1940.854
269.424	17.833	1961.695	1938.960
270.439	17.819	1961.519	1938.402
271.453	18.396	1961.883	1945.116
272.468	20.208	1964.421	1968.080
273.482	20.291	1960.868	1965.233
274.497	18.723	1953.968	1940.283
275.512	18.063	1950.776	1929.397
276.526	17.912	1948.887	1925.583
277.541	17.905	1947.030	1923.437
278.555	17.838	1946.073	1921.511
279.570	17.843	1945.293	1920.564
280.585	17.810	1943.595	1918.278
281.599	17.858	1941.685	1916.711
282.614	17.943	1940.664	1916.429
283.628	18.030	1939.837	1916.362
284.643	18.023	1938.813	1915.042
285.657	18.138	1937.629	1914.938
286.672	18.099	1936.215	1912.875
287.687	18.081	1934.244	1910.494
288.701	18.103	1932.962	1909.249
289.716	18.045	1932.025	1907.442
290.730	18.039	1929.988	1905.142
291.745	18.025	1928.155	1902.942
292.760	18.043	1927.408	1902.177
293.774	17.951	1927.189	1900.705
294.789	18.063	1925.143	1899.711
295.803	17.998	1922.545	1896.199
296.818	18.030	1921.115	1894.922
297.833	17.944	1920.887	1893.502
298.847	17.926	1919.636	1891.845
299.862	17.966	1917.785	1890.241
300.876	18.399	1916.742	1893.796
301.891	20.199	1921.230	1918.037
302.906	20.515	1920.076	1920.159
303.920	18.732	1913.528	1893.633
304.935	18.053	1910.402	1882.796
305.949	17.962	1908.312	1879.507
306.964	17.990	1907.014	1878.312
307.979	18.019	1905.770	1877.186
308.993	18.083	1904.066	1875.989
310.008	18.140	1902.309	1874.663
311.022	18.092	1901.077	1872.688
312.037	18.117	1899.906	1871.594
313.052	18.165	1897.700	1869.720
314.066	18.098	1895.860	1866.949
315.081	18.059	1896.478	1866.907
316.095	18.255	1894.191	1866.581
317.110	18.109	1892.494	1863.083
318.125	18.132	1891.134	1861.772
319.139	17.971	1890.468	1859.138
320.154	18.037	1888.375	1857.572
321.168	18.038	1887.012	1856.019
322.183	18.102	1885.335	1854.846
323.197	17.885	1884.083	1851.030
324.212	17.926	1882.072	1849.278
325.227	17.731	1880.832	1845.719
326.241	17.802	1878.655	1844.129
327.256	17.886	1877.599	1843.784
328.270	17.919	1876.911	1843.247
329.285	17.788	1876.947	1841.649
330.300	18.573	1878.471	1851.443
331.314	20.526	1882.484	1876.388
332.329	20.331	1877.949	1869.531
333.343	18.528	1871.450	1843.368
334.358	17.997	1868.695	1834.707
335.373	17.902	1867.078	1831.873
336.387	17.900	1864.961	1829.557
337.402	17.789	1863.876	1827.073
338.416	17.876	1861.908	1825.864
339.431	17.919	1860.693	1824.919
340.446	18.021	1858.829	1823.970
341.460	18.060	1858.112	1823.459
342.475	18.085	1856.689	1822.118
343.489	18.105	1854.931	1820.388
344.504	18.191	1853.870	1820.044
345.519	18.060	1853.247	1817.819
346.533	18.201	1850.920	1816.821
347.548	18.244	1849.842	1816.004
348.562	18.135	1849.331	1814.119
349.577	18.146	1848.411	1813.117
350.592	18.140	1846.989	1811.441
351.606	18.101	1845.129	1808.989
352.621	18.000	1843.965	1806.552
353.635	18.099	1842.157	1805.620
354.650	18.001	1840.279	1802.522
355.665	18.040	1838.242	1800.726
356.679	17.981	1837.426	1799.083
357.694	18.081	1835.660	1798.199
358.708	18.053	1834.921	1796.968
359.723	18.762	1837.391	1806.671
360.738	20.650	1839.947	1828.942
361.752	20.037	1836.156	1818.484
362.767	18.268	1830.611	1794.149
363.781	17.894	1828.734	1788.157
364.796	17.970	1825.971	1786.045
365.810	17.866	1824.630	1783.430
366.825	17.936	1823.389	1782.731
367.840	17.922	1823.197	1782.188
368.854	17.958	1821.635	1780.821
369.869	17.748	1820.224	1777.028
370.883	17.784	1818.463	1775.474
371.898	17.908	1817.034	1775.162
372.913	17.845	1816.160	1773.442
373.927	17.870	1815.406	1772.748
374.942	17.883	1814.237	1771.530
375.956	18.029	1812.753	1771.394
376.971	17.917	1810.866	1768.173
377.986	17.915	1808.927	1766.047
379.000	17.814	1808.047	1763.921
380.015	18.049	1807.314	1765.438
381.029	18.024	1804.843	1762.553
382.044	18.029	1802.730	1760.331
383.059	18.028	1800.780	1758.208
384.073	17.980	1800.137	1756.869
385.088	17.867	1799.871	1755.236
386.102	17.890	1797.507	1752.960
387.117	17.851	1795.087	1749.984
388.132	17.910	1794.475	1749.786
389.146	18.510	1798.426	1759.618
390.161	20.437	1801.137	1781.952
391.175	20.226	1795.191	1773.695
392.190	18.354	1788.334	1747.521
393.205	17.902	1785.520	1739.928
394.219	18.012	1784.104	1739.465
395.234	17.907	1783.157	1737.269
396.248	17.858	1781.864	1735.292
397.263	17.822	1779.779	1732.689
398.278	17.877	1777.981	1731.290
399.292	17.962	1777.551	1731.529
400.307	17.975	1776.382	1730.322
401.321	18.081	1775.137	1729.979
402.336	18.052	1773.659	1728.039
403.350	17.986	1772.311	1725.845
404.365	18.040	1771.265	1725.171
405.380	18.275	1770.667	1726.759
406.394	18.271	1769.023	1724.909
407.409	18.284	1767.683	1723.532
408.423	18.306	1766.337	1722.236
409.438	18.181	1765.173	1719.626
410.453	18.073	1764.385	1717.565
411.467	18.174	1762.900	1716.938
412.482	18.030	1761.692	1714.101
413.496	17.958	1759.610	1711.141
414.511	18.029	1757.919	1710.004
415.526	18.093	1755.388	1707.987
416.540	18.060	1753.834	1705.936
417.555	17.875	1753.840	1703.879
418.569	18.037	1753.213	1704.692
419.584	17.969	1753.044	1703.641
420.599	18.092	1752.536	1704.180
421.613	17.974	1751.809	1702.083
422.628	18.006	1750.115	1700.561
423.642	17.976	1748.590	1698.569
424.657	17.942	1747.020	1696.508
425.672	18.055	1744.749	1695.223
426.686	17.922	1744.205	1693.166
427.701	17.922	1741.911	1690.734
428.715	17.928	1740.081	1688.816
429.730	17.952	1739.275	1688.073
430.745	17.931	1739.113	1687.499
431.759	18.000	1737.780	1686.689
432.774	18.019	1736.823	1685.747
433.788	17.967	1736.101	1684.328
434.803	18.159	1735.433	1685.388
435.818	18.023	1735.125	1683.533
436.832	18.007	1734.053	1682.140
437.847	16.996	1727.955	1666.049
438.861	9.777	1707.002	1575.023
439.876	1.788	1692.717	1483.675
440.890	0.331	1689.079	1466.065
441.905	0.208	1688.175	1463.909
442.920	0.196	1686.236	1461.932
443.934	0.158	1685.220	1460.502
444.949	0.233	1684.512	1460.444
445.963	-0.027	1684.386	1457.625
446.978	0.078	1683.000	1457.279
447.993	0.122	1681.391	1456.140
449.007	0.063	1679.640	1453.872
450.022	0.191	1676.457	1452.185
451.036	0.147	1676.226	1451.390
452.051	1.204	1680.795	1465.438
453.066	8.976	1697.674	1555.985
454.080	16.389	1708.632	1638.346
455.095	17.610	1710.679	1652.019
456.109	17.916	1710.836	1654.954
457.124	18.102	1709.179	1654.969
458.139	17.967	1708.447	1652.742
459.153	18.041	1706.681	1651.556
460.168	18.005	1705.448	1649.817
461.182	17.992	1703.493	1647.598
462.197	17.922	1702.186	1645.459
463.212	17.823	1700.639	1642.808
464.226	17.885	1698.826	1641.463
465.241	18.094	1698.128	1642.607
466.255	18.019	1697.261	1640.850
467.270	18.069	1695.430	1639.368
468.285	17.889	1694.436	1636.479
469.299	17.839	1693.561	1634.957
470.314	18.025	1691.256	1634.320
471.328	17.916	1690.855	1632.688
472.343	17.917	1689.717	1631.404
473.358	17.968	1688.199	1630.232
474.372	18.111	1686.747	1630.006
475.387	17.938	1685.578	1627.029
476.401	17.972	1683.817	1625.460
477.416	17.968	1682.917	1624.354
478.430	18.077	1681.789	1624.108
479.445	17.756	1682.002	1621.056
480.460	17.866	1679.063	1619.076
481.474	17.917	1678.244	1618.579
482.489	17.921	1677.112	1617.330
483.503	17.979	1675.453	1616.094
484.518	17.899	1674.488	1614.209
485.533	18.054	1672.533	1613.600
486.547	18.117	1671.334	1612.850
487.562	18.073	1671.192	1612.104
488.576	18.231	1668.947	1611.243
489.591	18.079	1668.231	1608.913
490.606	18.055	1666.639	1606.960
491.620	18.253	1664.524	1606.599
492.635	18.195	1662.870	1604.261
493.649	18.196	1662.000	1603.238
494.664	17.991	1660.739	1599.900
495.679	17.816	1659.329	1596.707
496.693	17.901	1658.014	1596.052
497.708	18.092	1656.551	1596.243
498.722	18.143	1655.740	1595.747
499.737	18.060	1655.384	1594.437
500.752	17.987	1653.102	1591.364
501.766	17.887	1651.752	1588.937
502.781	18.054	1649.868	1588.496
503.795	18.158	1648.002	1587.478
504.810	17.996	1648.095	1585.869
505.825	17.971	1648.299	1585.642
506.839	18.002	1646.449	1583.961
507.854	18.127	1644.595	1583.151
508.868	18.095	1643.096	1581.220
509.883	17.981	1642.817	1579.704
510.898	18.088	1641.549	1579.286
511.912	18.023	1638.923	1575.976
512.927	18.007	1637.433	1574.203
513.941	18.000	1636.313	1572.871
514.956	18.117	1635.018	1572.520
515.971	18.276	1633.026	1571.889
516.985	18.044	1632.368	1568.927
518.000	18.021	1632.159	1568.316
519.014	18.114	1630.467	1567.366
520.029	18.063	1629.684	1565.955
521.043	18.152	1627.830	1564.805
522.058	17.998	1627.637	1563.013
523.073	18.023	1626.429	1561.902
524.087	18.307	1625.436	1563.363
525.102	18.070	1624.172	1559.787
526.116	17.987	1622.842	1557.565
527.131	18.128	1620.611	1556.521
528.146	18.396	1619.941	1558.148
529.160	18.338	1619.019	1556.548
530.175	18.140	1618.500	1554.053
531.189	18.235	1617.577	1553.845
532.204	18.179	1616.430	1552.050
533.219	18.108	1614.309	1549.176
534.233	17.965	1614.368	1547.750
535.248	18.203	1612.741	1548.165
536.262	18.125	1611.753	1546.326
537.277	18.264	1610.712	1546.404
538.292	18.259	1609.452	1544.962
539.306	18.355	1606.672	1542.979
540.321	18.306	1605.982	1541.684
541.335	18.330	1604.659	1540.449
542.350	18.400	1603.094	1539.395
543.365	18.277	1602.528	1537.553
544.379	18.278	1600.735	1535.663
545.394	18.358	1599.410	1534.929
546.408	18.020	1598.701	1531.014
547.423	18.167	1595.883	1529.459
548.438	18.114	1595.080	1528.028
549.452	18.266	1593.998	1528.174
550.467	18.253	1593.179	1527.094
551.481	18.067	1592.523	1524.615
552.496	18.248	1591.325	1524.901
553.511	18.264	1589.791	1523.390
554.525	18.219	1589.534	1522.566
555.540	18.357	1588.453	1522.575
556.554	18.216	1587.433	1520.158
557.569	18.312	1585.667	1519.145
558.583	18.089	1584.326	1515.689
559.598	18.168	1583.277	1515.204
560.613	18.239	1581.893	1514.334
561.627	18.226	1580.401	1512.608
562.642	18.421	1579.194	1513.003
563.656	18.385	1577.437	1510.817
564.671	18.264	1576.835	1508.985
565.686	18.194	1576.234	1507.615
566.700	18.271	1574.652	1506.601
567.715	18.145	1572.559	1503.305
568.729	18.116	1571.922	1502.255
569.744	18.122	1570.436	1500.713
570.759	18.082	1568.910	1498.723
571.773	18.134	1567.949	1498.081
572.788	18.114	1567.469	1497.269
573.802	18.170	1565.394	1495.597
574.817	18.278	1564.198	1495.228
575.832	18.259	1562.870	1493.606
576.846	18.271	1562.167	1492.864
577.861	18.327	1560.777	1491.852
578.875	18.331	1559.923	1490.884
579.890	18.378	1559.062	1490.296
580.905	18.390	1558.288	1489.482
581.919	18.345	1557.114	1487.793
582.934	18.414	1556.543	1487.674
583.948	18.440	1555.277	1486.511
584.963	18.313	1553.611	1483.633
585.978	18.409	1551.717	1482.480
586.992	18.313	1551.052	1480.832
588.007	18.336	1550.138	1479.982
589.021	18.409	1549.350	1479.688
590.036	18.475	1548.417	1479.193
591.051	18.378	1547.737	1477.528
592.065	18.443	1545.909	1476.166
593.080	18.456	1544.499	1474.757
594.094	18.377	1542.287	1471.781
595.109	18.199	1540.766	1468.621
596.123	18.177	1539.238	1466.800
597.138	18.179	1539.011	1466.424
598.153	18.447	1537.251	1466.879
599.167	18.398	1535.324	1464.444
600.182	18.413	1534.393	1463.508
601.196	18.403	1534.208	1463.074
602.211	18.340	1532.730	1460.944
603.226	18.327	1531.962	1459.932
604.240	18.346	1530.639	1458.657
605.255	18.373	1529.670	1457.787
606.269	18.396	1529.039	1457.207
607.284	18.359	1527.097	1454.865
608.299	18.481	1525.407	1454.125
609.313	18.391	1524.776	1452.583
610.328	18.383	1523.545	1451.162
611.342	18.407	1522.088	1449.811
612.357	18.526	1521.196	1449.801
613.372	18.425	1519.952	1447.583
614.386	18.449	1519.119	1446.815
615.401	18.422	1518.399	1445.732
616.415	18.504	1516.975	1444.895
617.430	18.354	1516.692	1443.179
618.445	18.407	1515.395	1442.225
619.459	18.267	1514.870	1440.371
620.474	18.204	1513.420	1438.283
621.488	18.309	1511.476	1437.149
622.503	18.283	1511.164	1436.464
623.518	18.363	1509.978	1435.839
624.532	18.308	1509.389	1434.639
625.547	18.359	1507.713	1433.307
626.561	18.482	1506.629	1433.143
627.576	18.546	1505.450	1432.379
628.591	18.373	1503.754	1429.144
629.605	18.432	1502.280	1428.072
630.620	18.420	1501.938	1427.473
631.634	18.453	1500.867	1426.563
632.649	18.408	1499.829	1425.022
633.663	18.397	1498.552	1423.550
634.678	18.407	1497.121	1422.105
635.693	18.369	1495.806	1420.368
636.707	18.370	1494.457	1418.926
637.722	18.511	1493.148	1418.687
638.736	18.625	1491.761	1418.144
639.751	18.615	1491.462	1417.611
640.766	18.494	1490.461	1415.483
641.780	18.399	1489.493	1413.604
642.795	18.591	1488.502	1414.091
643.809	18.454	1487.997	1412.305
644.824	18.434	1487.091	1411.107
645.839	18.535	1486.214	1410.946
646.853	18.557	1484.393	1409.232
647.868	18.464	1482.361	1406.363
648.882	18.475	1481.081	1405.074
649.897	18.587	1480.161	1404.955
650.912	18.496	1478.992	1402.927
651.926	18.560	1478.138	1402.477
652.941	18.617	1477.143	1401.829
653.955	18.578	1475.263	1399.562
654.970	18.503	1473.276	1396.892
655.985	18.598	1471.715	1396.017
656.999	18.644	1471.276	1395.816
658.014	18.677	1469.590	1394.319
659.028	18.588	1469.249	1393.100
660.043	18.712	1468.220	1392.971
661.058	18.639	1466.591	1390.661
662.072	18.585	1466.226	1389.707
663.087	18.521	1464.829	1387.700
664.101	18.360	1464.575	1385.984
665.116	18.500	1463.242	1385.694
666.131	18.444	1462.582	1384.442
667.145	18.497	1460.682	1382.916
668.160	18.547	1459.298	1381.844
669.174	18.669	1458.037	1381.468
670.189	18.612	1457.172	1380.022
671.204	18.631	1456.281	1379.171
672.218	18.606	1455.311	1377.883
673.233	18.729	1453.570	1377.060
674.247	18.672	1452.758	1375.664
675.262	18.580	1452.312	1374.335
676.276	18.656	1450.997	1373.540
677.291	18.640	1450.051	1372.357
678.306	18.532	1449.411	1370.718
679.320	18.506	1447.556	1368.592
680.335	18.641	1446.940	1368.928
681.349	18.619	1446.202	1367.883
682.364	18.597	1444.910	1366.324
683.379	18.383	1444.000	1363.590
684.393	18.476	1442.510	1362.763
685.408	18.546	1441.377	1362.086
686.422	18.430	1440.562	1360.230
687.437	18.545	1440.113	1360.557
688.452	18.446	1439.480	1359.011
689.466	18.414	1437.279	1356.516
690.481	18.559	1435.632	1355.948
691.495	18.459	1435.525	1354.891
692.510	18.376	1434.998	1353.575
693.525	18.419	1432.968	1351.836
694.539	18.438	1431.500	1350.443
695.554	18.454	1431.178	1350.100
696.568	18.519	1429.855	1349.208
697.583	18.518	1429.177	1348.400
698.598	18.527	1428.292	1347.475
699.612	18.535	1427.283	1346.422
700.627	18.515	1425.960	1344.853
701.641	18.478	1425.245	1343.727
702.656	18.562	1424.023	1343.076
703.671	18.644	1423.147	1342.737
704.685	18.797	1422.023	1342.717
705.700	18.611	1421.066	1340.188
706.714	18.702	1419.352	1339.127
707.729	18.533	1418.285	1336.632
708.744	18.701	1417.268	1336.836
709.758	18.751	1415.807	1335.685
710.773	18.704	1415.405	1334.781
711.787	18.796	1413.663	1333.698
712.802	18.575	1412.380	1330.601
713.816	18.680	1411.361	1330.300
714.831	18.658	1410.891	1329.530
715.846	18.734	1409.981	1329.102
716.860	18.728	1408.495	1327.493
717.875	18.870	1407.086	1327.107
718.889	18.693	1406.413	1324.941
719.904	18.737	1405.315	1324.087
720.919	18.648	1403.890	1321.902
721.933	18.830	1403.473	1322.759
722.948	18.667	1402.906	1320.806
723.962	18.742	1401.282	1319.694
724.977	18.703	1399.901	1317.937
725.992	18.703	1399.751	1317.639
727.006	18.795	1397.504	1316.075
728.021	18.779	1396.029	1314.406
729.035	18.797	1395.104	1313.516
730.050	18.735	1394.437	1312.254
731.065	18.746	1393.382	1311.192
732.079	18.664	1392.971	1310.017
733.094	18.778	1391.220	1309.089
734.108	18.654	1389.111	1305.993
735.123	18.655	1389.172	1305.905
736.138	18.741	1387.891	1305.201
737.152	18.683	1386.344	1303.150
738.167	18.819	1385.553	1303.288
739.181	18.775	1385.147	1302.414
740.196	18.780	1384.272	1301.470
741.211	18.805	1382.892	1300.206
742.225	18.649	1382.112	1298.130
743.240	18.662	1381.020	1297.048
744.254	18.598	1379.201	1294.701
745.269	18.703	1378.236	1294.438
746.284	18.770	1377.438	1294.037
747.298	18.539	1376.618	1291.369
748.313	18.485	1375.189	1289.463
749.327	18.490	1374.103	1288.329
750.342	18.488	1374.093	1288.152
751.356	18.488	1373.016	1286.986
752.371	18.462	1371.020	1284.767
753.386	18.550	1369.864	1284.193
754.400	18.593	1369.850	1284.350
755.415	18.814	1368.599	1284.678
756.429	18.780	1366.876	1282.656
757.444	18.604	1366.342	1280.680
758.459	18.772	1365.463	1280.960
759.473	18.835	1364.519	1280.397
760.488	18.966	1362.898	1279.704
761.502	18.990	1361.668	1278.569
762.517	18.745	1361.525	1276.458
763.532	18.821	1359.709	1275.166
764.546	18.791	1358.346	1273.514
765.561	18.728	1357.873	1272.446
766.575	18.800	1356.726	1271.752
767.590	18.655	1355.791	1269.648
768.605	18.565	1354.763	1267.867
769.619	18.755	1353.381	1267.830
770.634	18.805	1352.235	1266.978
771.648	18.713	1351.754	1265.689
772.663	18.837	1351.499	1266.218
773.678	18.821	1350.186	1264.718
774.692	18.783	1349.156	1263.324
775.707	18.848	1348.583	1263.112
776.721	18.859	1348.134	1262.625
777.736	18.988	1346.316	1261.719
778.751	18.728	1345.500	1258.889
779.765	18.761	1344.980	1258.497
780.780	18.596	1344.442	1256.627
781.794	18.709	1342.969	1255.930
782.809	18.691	1341.103	1253.903
783.824	18.684	1340.307	1252.957
784.838	18.544	1338.764	1250.335
785.853	18.481	1337.664	1248.702
786.867	18.484	1337.259	1248.191
787.882	18.526	1336.835	1247.958
788.897	18.654	1335.993	1247.960
789.911	18.564	1335.333	1246.533
790.926	18.649	1333.791	1245.565
791.940	18.575	1332.711	1243.869
792.955	18.789	1331.144	1243.813
793.969	18.606	1330.665	1241.887
794.984	18.704	1329.697	1241.544
795.999	18.831	1328.269	1240.990
797.013	18.870	1326.492	1239.459
798.028	18.795	1325.897	1238.210
799.042	18.788	1325.383	1237.534
800.057	18.930	1324.154	1237.268
801.072	18.986	1322.301	1235.794
802.086	18.946	1320.777	1233.933
803.101	18.919	1320.188	1233.039
804.115	18.878	1319.986	1232.407
805.130	18.915	1318.446	1231.087
806.145	18.978	1317.602	1230.603
807.159	18.775	1316.306	1227.792
808.174	18.782	1315.285	1226.742
809.188	18.870	1313.920	1225.950
810.203	18.905	1312.199	1224.446
811.218	18.827	1310.097	1221.784
812.232	18.898	1308.768	1220.906
813.247	18.818	1308.308	1219.760
814.261	18.797	1308.299	1219.452
815.276	18.820	1307.457	1218.685
816.291	18.797	1306.311	1217.312
817.305	19.093	1304.845	1217.905
818.320	18.954	1303.286	1215.311
819.334	18.752	1302.590	1213.089
820.349	18.806	1301.891	1212.673
821.364	18.917	1299.544	1211.131
822.378	18.890	1298.016	1209.365
823.393	18.926	1296.701	1208.255
824.407	18.914	1295.878	1207.259
825.422	18.930	1295.310	1206.695
826.437	18.673	1294.361	1203.857
827.451	18.616	1292.409	1201.494
828.466	18.649	1291.284	1200.537
829.480	18.588	1289.386	1198.199
830.495	18.531	1288.166	1196.521
831.509	18.403	1288.105	1195.427
832.524	18.747	1286.585	1196.281
833.539	18.643	1285.730	1194.616
834.553	18.932	1284.140	1195.015
835.568	18.925	1282.935	1193.703
836.582	18.881	1282.207	1192.573
837.597	19.044	1280.116	1191.618
838.612	18.925	1279.147	1189.750
839.626	18.855	1278.063	1188.112
840.641	18.948	1277.731	1188.304
841.655	18.900	1277.042	1187.191
842.670	18.931	1275.458	1185.791
843.685	18.758	1274.684	1183.733
844.699	18.882	1273.584	1183.428
845.714	18.890	1272.465	1182.304
846.728	18.914	1271.504	1181.430
847.743	18.948	1270.125	1180.243
848.758	18.991	1269.185	1179.522
849.772	18.923	1267.682	1177.522
850.787	18.929	1266.196	1176.039
851.801	18.882	1265.609	1175.030
852.816	18.811	1264.120	1173.021
853.831	18.675	1262.560	1170.500
854.845	18.764	1260.682	1169.231
855.860	18.901	1258.618	1168.110
856.874	18.860	1257.851	1166.980
857.889	18.820	1256.592	1165.400
858.904	18.659	1255.575	1163.219
859.918	18.473	1253.958	1160.316
860.933	18.518	1253.055	1159.648
861.947	18.793	1252.472	1160.839
862.962	18.569	1251.617	1158.383
863.977	18.699	1250.343	1157.948
864.991	18.614	1249.750	1156.683
866.006	18.726	1249.508	1157.083
867.020	18.819	1247.898	1156.077
868.035	18.777	1246.538	1154.400
869.049	18.938	1246.223	1155.057
870.064	18.864	1245.580	1153.822
871.079	18.939	1244.186	1152.897
872.093	18.911	1243.720	1152.138
873.108	18.976	1242.724	1151.518
874.122	19.093	1241.476	1151.006
875.137	19.024	1240.350	1149.365
876.152	19.061	1238.879	1148.112
877.166	18.999	1238.138	1146.875
878.181	18.940	1237.238	1145.508
879.195	19.054	1236.002	1144.986
880.210	19.234	1235.007	1145.131
881.225	19.143	1234.536	1143.948
882.239	18.816	1234.111	1141.237
883.254	18.926	1232.920	1140.728
884.268	19.152	1231.506	1140.793
885.283	18.959	1230.559	1138.491
886.298	18.996	1228.927	1137.095
887.312	18.998	1228.465	1136.543
888.327	19.138	1227.128	1136.095
889.341	19.122	1225.706	1134.543
890.356	18.912	1224.793	1132.170
891.371	18.748	1225.183	1131.310
892.385	18.966	1224.059	1131.580
893.400	18.979	1222.857	1130.417
894.414	18.982	1221.277	1128.840
895.429	18.968	1219.407	1126.886
896.444	18.801	1217.695	1124.069
897.458	18.634	1217.254	1122.433
898.473	18.823	1216.637	1122.969
899.487	18.823	1216.462	1122.672
900.502	18.950	1215.222	1122.225
901.517	19.070	1213.549	1121.331
902.531	19.248	1212.267	1121.180
903.546	19.127	1212.341	1120.322
904.560	19.187	1211.415	1119.727
905.575	19.036	1211.201	1118.406
906.589	19.199	1209.817	1118.057
907.604	18.996	1209.643	1116.438
