DTS Sentinel unit serial number:	SN409020Multiplexer serial number:	ORYXHardware model number:	OX4-SRSoftware version number:	ORYX F/W v3.00 Oryx Data Collector v3.7.2.0data status	okinstallation	HaddamTimeLapsedifferential loss correction	single-endedforward channel	channel 3reverse channel	N/Adate	2011/06/22time	08:26:17forward acquisition time	30.00reverse acquisition time	0.00gamma	498.7831k internal	0.1778k external	0.1778temperature offset calibration	1.0074default loss term (dB/km)	0.3790temperature slope calibration	1.3530multiplexer offset coefficient	1.0000multiplexer slope coefficient	1.0000fibre end	0.00T internal ref (°C)	25.69T ext. ref 1 (°C)	23.18T ext. ref 2 (°C)	0.17length (m)	temperature (°C)	Stokes	anti-Stokes-747.200	-200.000	-0.015	-0.129
-746.185	406.185	-0.249	0.691
-745.171	25.039	-0.368	0.399
-744.156	48.396	-0.412	0.505
-743.142	434.812	0.046	-0.131
-742.127	17.914	0.247	-0.257
-741.112	174.989	-0.122	-0.231
-740.098	-107.779	-0.018	-0.005
-739.083	263.078	-0.010	-0.022
-738.069	121.219	0.046	0.075
-737.054	-140.134	-0.479	0.065
-736.039	-88.372	-0.488	-0.190
-735.025	-136.604	0.589	0.088
-734.010	13.732	-0.247	0.251
-732.996	-76.393	-0.194	-0.089
-731.981	0.424	0.138	0.129
-730.966	38.441	0.105	-0.122
-729.952	108.928	-0.229	-0.359
-728.937	-88.228	0.371	0.145
-727.923	103.788	0.205	-0.315
-726.908	205.200	-0.211	-0.429
-725.894	-11.767	0.212	0.181
-724.879	134.785	-0.261	0.443
-723.864	-140.206	-0.057	-0.008
-722.850	128.209	-0.097	-0.161
-721.835	-51.245	0.515	0.314
-720.821	-113.074	0.133	-0.034
-719.806	-130.594	-0.216	0.038
-718.791	-34.905	-0.325	-0.232
-717.777	-92.050	0.242	-0.089
-716.762	21.768	-0.232	-0.247
-715.748	-107.032	0.659	-0.189
-714.733	96.403	-0.178	0.266
-713.718	264.929	0.041	-0.095
-712.704	183.980	-0.144	0.279
-711.689	-88.001	-0.490	-0.191
-710.675	-40.256	-0.191	0.130
-709.660	-101.062	-0.228	0.072
-708.645	-85.295	0.188	0.076
-707.631	173.985	0.146	0.276
-706.616	43.658	-0.119	0.143
-705.602	-25.467	0.304	0.234
-704.587	-163.607	0.202	-0.012
-703.572	210.918	0.288	0.593
-702.558	-56.230	-0.423	-0.245
-701.543	88.305	0.132	0.191
-700.529	106.879	0.275	0.428
-699.514	62.123	-0.180	0.235
-698.499	-85.046	-0.595	0.242
-697.485	-156.664	-0.428	-0.034
-696.470	73.671	-0.263	0.360
-695.456	800.000	0.045	-0.249
-694.441	387.724	0.027	-0.074
-693.426	580.506	0.207	-0.666
-692.412	287.873	0.132	0.313
-691.397	800.000	0.095	-0.366
-690.383	33.051	0.133	-0.151
-689.368	-200.000	-0.017	0.131
-688.354	752.487	-0.048	-0.169
-687.339	-113.735	0.291	0.073
-686.324	227.568	0.079	-0.168
-685.310	-55.439	-0.089	-0.052
-684.295	-151.792	-0.763	-0.072
-683.281	20.367	-0.396	0.418
-682.266	-200.000	0.035	-0.225
-681.251	-77.829	-0.306	0.137
-680.237	-75.118	0.265	0.123
-679.222	9.424	-0.089	-0.088
-678.208	-17.040	-0.346	-0.285
-677.193	-160.664	-0.317	0.022
-676.178	-41.068	0.282	-0.189
-675.164	334.381	-0.142	-0.359
-674.149	262.175	0.144	-0.327
-673.135	-161.594	0.385	-0.025
-672.120	150.229	0.340	-0.604
-671.105	327.153	0.021	0.053
-670.091	-45.107	0.373	0.241
-669.076	92.711	0.183	-0.270
-668.062	574.660	-0.079	-0.254
-667.047	-175.733	-0.362	0.012
-666.032	-23.312	0.123	-0.096
-665.018	95.667	-0.330	-0.493
-664.003	30.236	0.157	-0.175
-662.989	274.129	0.140	-0.325
-661.974	26.484	-0.172	-0.187
-660.959	459.018	0.065	0.190
-659.945	159.861	-0.266	0.485
-658.930	-131.346	0.076	0.013
-657.916	177.575	0.112	0.213
-656.901	-200.000	0.052	0.335
-655.886	-60.415	-0.058	-0.032
-654.872	702.610	0.126	0.436
-653.857	48.696	0.130	-0.159
-652.843	-172.550	0.093	0.004
-651.828	-36.192	-0.204	0.143
-650.814	800.000	0.006	-0.032
-649.799	-83.705	-0.024	0.010
-648.784	-97.374	-0.241	-0.081
-647.770	800.000	-0.092	0.349
-646.755	-83.861	0.255	-0.105
-645.741	405.902	-0.050	-0.137
-644.726	38.001	-0.198	-0.229
-643.711	-51.658	0.119	0.072
-642.697	-88.699	-0.465	-0.179
-641.682	-200.000	0.028	-0.327
-640.668	-200.000	0.041	0.405
-639.653	585.616	-0.107	-0.345
-638.638	800.000	-0.054	-0.298
-637.624	461.366	-0.084	0.246
-636.609	-4.492	0.346	-0.311
-635.595	800.000	0.035	-0.130
-634.580	-200.000	-0.050	0.418
-633.565	-38.866	-0.159	-0.109
-632.551	-157.650	0.239	-0.018
-631.536	760.069	0.048	0.169
-630.522	-200.000	0.002	0.268
-629.507	-40.845	0.323	-0.217
-628.492	31.590	0.132	0.148
-627.478	-122.068	0.518	0.110
-626.463	-200.000	0.033	0.201
-625.449	480.709	-0.024	-0.070
-624.434	-25.042	-0.446	-0.344
-623.419	800.000	-0.094	-0.381
-622.405	-193.657	-0.377	0.004
-621.390	-180.861	0.469	0.012
-620.376	86.469	0.052	-0.075
-619.361	65.978	-0.134	-0.178
-618.346	95.115	-0.125	0.186
-617.332	-78.785	0.236	-0.104
-616.317	-111.806	0.233	-0.061
-615.303	-69.094	0.316	-0.158
-614.288	327.327	0.075	-0.188
-613.273	-36.189	-0.320	0.224
-612.259	321.850	-0.120	-0.299
-611.244	-148.022	0.334	0.036
-610.230	536.937	-0.083	0.259
-609.215	-50.883	0.193	0.118
-608.201	276.057	0.180	0.418
-607.186	354.843	0.083	0.215
-606.171	-108.561	0.228	0.063
-605.157	-63.545	-0.339	-0.180
-604.142	-112.527	-0.494	-0.127
-603.128	-24.802	-0.127	0.098
-602.113	-200.000	-0.042	-0.244
-601.098	-138.861	0.405	-0.057
-600.084	54.329	0.298	-0.374
-599.069	800.000	-0.163	0.744
-598.055	545.699	0.012	-0.037
-597.040	-170.563	-0.187	-0.008
-596.025	181.210	0.230	-0.441
-595.011	-20.356	-0.164	0.131
-593.996	-8.104	-0.135	-0.118
-592.982	-200.000	-0.010	-0.199
-591.967	-34.569	-0.546	-0.388
-590.952	-200.000	-0.020	-0.183
-589.938	800.000	0.049	0.194
-588.923	800.000	0.172	0.682
-587.909	-167.005	0.399	0.021
-586.894	24.218	0.421	-0.452
-585.879	-67.993	-0.290	-0.146
-584.865	-98.968	-0.231	0.076
-583.850	-200.000	-0.006	-0.154
-582.836	136.535	0.076	0.129
-581.821	-72.468	0.115	0.055
-580.806	-82.278	0.219	0.092
-579.792	32.013	0.283	-0.317
-578.777	517.251	-0.138	0.422
-577.763	25.556	0.022	0.024
-576.748	-14.281	0.253	0.212
-575.733	-200.000	-0.025	0.295
-574.719	-25.867	-0.210	0.160
-573.704	-200.000	-0.093	0.610
-572.690	48.728	0.073	-0.089
-571.675	-196.401	-0.053	0.000
-570.661	-62.118	0.165	-0.089
-569.646	-41.563	-0.268	-0.178
-568.631	-20.503	-0.108	0.086
-567.617	-27.249	-0.111	-0.084
-566.602	-200.000	0.016	-0.294
-565.588	-119.152	0.132	-0.030
-564.573	730.571	-0.081	0.284
-563.558	89.702	-0.168	-0.244
-562.544	800.000	-0.025	0.129
-561.529	-140.730	0.173	-0.023
-560.515	-136.873	0.184	-0.027
-559.500	68.473	-0.078	0.104
-558.485	-71.637	-0.194	-0.093
-557.471	-200.000	-0.034	-0.248
-556.456	17.154	0.187	0.193
-555.442	-10.960	0.234	0.200
-554.427	800.000	-0.056	-0.274
-553.412	-41.313	-0.377	-0.252
-552.398	1.377	0.343	-0.320
-551.383	300.158	0.075	-0.179
-550.369	66.600	0.176	0.232
-549.354	-200.000	-0.028	-0.316
-548.339	-200.000	0.055	0.438
-547.325	-169.155	0.171	-0.008
-546.310	-117.206	0.610	-0.143
-545.296	-69.853	0.114	-0.056
-544.281	213.512	-0.050	0.103
-543.266	-88.738	0.101	-0.039
-542.252	-200.000	0.014	-0.095
-541.237	-87.868	-0.219	-0.085
-540.223	-114.459	0.270	0.067
-539.208	-74.147	-0.247	0.115
-538.193	-105.080	0.126	0.037
-537.179	-2.773	0.207	0.188
-536.164	15.932	0.080	-0.082
-535.150	-96.118	0.529	0.181
-534.135	-176.603	0.460	-0.015
-533.121	76.535	-0.367	-0.505
-532.106	-25.788	-0.124	-0.094
-531.091	-146.559	-0.282	0.031
-530.077	19.564	-0.060	0.062
-529.062	-129.757	0.133	-0.024
-528.048	302.167	-0.062	0.149
-527.033	166.428	0.164	0.303
-526.018	-137.040	-0.504	-0.074
-525.004	-14.116	-0.363	0.304
-523.989	-81.473	-0.609	-0.258
-522.975	-81.578	0.411	-0.174
-521.960	0.157	0.359	-0.331
-520.945	-137.412	-0.335	0.049
-519.931	14.247	0.312	0.315
-518.916	-70.209	0.195	0.096
-517.902	116.125	-0.212	0.337
-516.887	62.973	0.285	-0.370
-515.872	-43.579	-0.396	-0.258
-514.858	800.000	0.072	0.318
-513.843	-93.202	-0.507	0.182
-512.829	-136.315	-0.533	-0.080
-511.814	-127.274	0.072	0.013
-510.799	-103.792	-0.348	0.105
-509.785	800.000	-0.157	-0.822
-508.770	-14.819	-0.316	-0.263
-507.756	-134.738	0.378	-0.059
-506.741	800.000	0.096	0.474
-505.726	54.431	-0.128	-0.160
-504.712	-124.424	0.385	0.077
-503.697	-117.038	0.378	-0.089
-502.683	-19.319	0.219	-0.176
-501.668	-8.422	-0.328	0.285
-500.653	-200.000	0.014	0.463
-499.639	-27.492	0.295	0.222
-498.624	-66.540	0.249	-0.128
-497.610	598.020	-0.094	-0.305
-496.595	-186.423	0.478	0.009
-495.581	-188.662	-0.458	-0.007
-494.566	800.000	-0.094	-0.434
-493.551	-68.328	0.414	-0.207
-492.537	-50.608	-0.415	-0.253
-491.522	-124.923	-0.135	-0.027
-490.508	139.836	0.093	0.159
-489.493	-36.048	0.356	-0.248
-488.478	84.369	0.175	-0.248
-487.464	47.972	-0.047	0.056
-486.449	78.280	-0.180	-0.249
-485.435	-171.289	0.402	-0.017
-484.420	219.265	0.130	-0.271
-483.405	236.548	0.177	0.380
-482.391	-64.634	-0.338	-0.177
-481.376	-187.473	0.169	-0.003
-480.362	800.000	-0.076	0.324
-479.347	313.056	-0.146	0.357
-478.332	-76.969	-0.369	-0.166
-477.318	11.993	0.439	-0.437
-476.303	-60.837	0.564	-0.308
-475.289	-76.626	0.070	0.032
-474.274	-75.784	-0.164	0.075
-473.259	1.944	-0.213	0.199
-472.245	460.903	0.118	-0.341
-471.230	8.821	0.424	-0.413
-470.216	136.955	0.124	0.210
-469.201	61.391	-0.075	-0.097
-468.186	102.381	0.196	-0.298
-467.172	437.188	-0.034	-0.097
-466.157	-58.772	0.391	0.219
-465.143	-108.087	0.286	0.080
-464.128	-71.969	0.298	-0.143
-463.113	104.217	0.052	-0.080
-462.099	-29.111	0.157	0.117
-461.084	800.000	0.023	0.128
-460.070	17.740	-0.259	-0.267
-459.055	-100.156	-0.148	0.047
-458.040	-120.580	0.074	-0.016
-457.026	800.000	0.049	-0.240
-456.011	-75.441	0.080	-0.037
-454.997	-7.078	0.196	-0.172
-453.982	-65.679	-0.162	-0.084
-452.968	291.165	-0.119	0.282
-451.953	-141.976	-0.548	-0.070
-450.938	67.517	-0.334	-0.441
-449.924	153.425	-0.279	-0.495
-448.909	-64.931	0.298	0.155
-447.895	-176.658	0.683	0.022
-446.880	234.662	0.157	0.337
-445.865	800.000	-0.042	-0.165
-444.851	-110.177	0.333	-0.089
-443.836	116.162	-0.205	0.325
-442.822	-39.223	0.284	0.192
-441.807	-11.139	-0.332	-0.283
-440.792	520.116	-0.191	0.583
-439.778	134.962	-0.173	0.292
-438.763	8.959	0.273	-0.266
-437.749	-200.000	0.051	-0.479
-436.734	-67.664	0.487	-0.246
-435.719	-200.000	0.005	0.191
-434.705	24.386	-0.503	0.538
-433.690	-47.686	0.328	0.205
-432.676	2.424	-0.192	0.180
-431.661	794.981	-0.030	0.106
-430.646	-200.000	-0.156	0.000
-429.632	-133.809	0.220	-0.035
-428.617	-88.361	-0.113	0.044
-427.603	-0.339	-0.271	-0.249
-426.588	-55.707	-0.111	0.064
-425.573	20.274	-0.052	0.054
-424.559	79.075	0.100	0.138
-423.544	-59.384	0.419	-0.232
-422.530	429.973	-0.165	-0.464
-421.515	-40.792	0.304	0.203
-420.500	488.556	-0.044	0.131
-419.486	800.000	0.011	0.060
-418.471	60.135	0.451	0.577
-417.457	-10.586	0.477	0.407
-416.442	-200.000	0.013	0.141
-415.428	-95.259	-0.382	0.132
-414.413	-127.619	0.169	0.031
-413.398	-123.097	0.175	0.036
-412.384	-97.815	0.682	-0.226
-411.369	-200.000	0.020	0.324
-410.355	-107.972	-0.341	-0.095
-409.340	-76.241	0.137	0.062
-408.325	-200.000	0.066	-0.440
-407.311	41.173	-0.093	-0.108
-406.296	-164.611	0.056	0.003
-405.282	-200.000	0.013	0.113
-404.267	194.965	-0.055	-0.108
-403.252	105.305	0.270	0.412
-402.238	-121.989	-0.069	0.015
-401.223	-200.000	-0.001	-0.173
-400.209	464.905	-0.064	-0.187
-399.194	800.000	-0.046	0.203
-398.179	196.676	-0.092	0.182
-397.165	-137.484	-0.209	0.030
-396.150	200.965	-0.204	-0.406
-395.136	-6.204	-0.528	-0.465
-394.121	-31.922	-0.423	0.305
-393.106	-200.000	0.029	0.664
-392.092	146.466	-0.167	-0.290
-391.077	16.840	-0.330	-0.337
-390.063	-200.000	-0.013	-0.185
-389.048	24.496	0.541	0.577
-388.033	-200.000	-0.015	0.486
-387.019	-55.935	0.476	0.273
-386.004	-116.177	-0.124	-0.030
-384.990	-64.273	-0.406	0.212
-383.975	-133.490	-0.379	0.061
-382.960	263.916	0.174	-0.392
-381.946	74.696	-0.315	0.428
-380.931	60.091	0.250	0.319
-379.917	-87.025	0.233	-0.091
-378.902	-39.227	0.293	-0.198
-377.888	-200.000	0.050	-0.394
-376.873	159.459	-0.234	-0.421
-375.858	-118.550	0.315	0.071
-374.844	-79.192	0.174	-0.076
-373.829	141.681	0.070	-0.120
-372.815	48.900	-0.209	0.253
-371.800	168.490	-0.255	0.470
-370.785	-103.889	0.121	0.036
-369.771	365.991	-0.056	-0.146
-368.756	-92.794	-0.664	0.238
-367.742	-73.178	-0.142	-0.067
-366.727	679.643	-0.058	0.196
-365.712	-32.997	-0.347	0.248
-364.698	-63.007	-0.292	-0.155
-363.683	84.128	0.222	0.314
-362.669	95.433	0.109	0.161
-361.654	-200.000	0.010	-0.302
-360.639	-200.000	0.020	0.149
-359.625	-199.818	-0.375	-0.002
-358.610	-106.768	0.353	-0.100
-357.596	154.882	-0.049	0.088
-356.581	36.496	0.106	0.120
-355.566	113.164	-0.054	-0.085
-354.552	151.227	-0.129	-0.227
-353.537	-200.000	0.013	0.197
-352.523	-48.163	0.379	0.235
-351.508	-163.314	-0.213	0.013
-350.493	245.560	0.104	-0.225
-349.479	-0.709	-0.281	-0.257
-348.464	-165.186	-0.167	0.009
-347.450	-200.000	-0.038	0.376
-346.435	-123.361	0.345	0.070
-345.420	-122.604	-0.593	0.123
-344.406	200.614	-0.062	-0.124
-343.391	-6.702	0.239	0.209
-342.377	-133.765	-0.296	-0.047
-341.362	-99.579	-0.325	0.104
-340.348	-134.937	-0.017	-0.003
-339.333	-200.000	0.067	-0.451
-338.318	581.234	-0.166	-0.528
-337.304	427.092	-0.055	-0.153
-336.289	7.103	0.157	-0.151
-335.275	166.366	-0.117	0.214
-334.260	-58.685	-0.149	-0.083
-333.245	-149.761	-0.359	-0.036
-332.231	-94.128	-0.265	0.093
-331.216	-8.291	-0.241	0.209
-330.202	-127.695	-0.199	-0.037
-329.187	175.068	0.012	-0.023
-328.172	-160.141	0.064	0.004
-327.158	-134.560	-0.611	-0.095
-326.143	10.416	-0.225	-0.220
-325.129	244.597	0.087	0.188
-324.114	94.731	0.093	-0.136
-323.099	-74.920	0.039	-0.018
-322.085	328.517	0.123	0.306
-321.070	355.623	-0.161	-0.414
-320.056	184.311	0.228	-0.436
-319.041	800.000	0.031	-0.127
-318.026	-200.000	-0.203	0.000
-317.012	800.000	-0.046	-0.221
-315.997	-90.284	-0.139	0.052
-314.983	105.014	-0.298	-0.454
-313.968	58.318	-0.146	-0.184
-312.953	-126.455	-0.354	-0.067
-311.939	-156.157	-0.344	-0.028
-310.924	-127.764	0.299	-0.055
-309.910	-178.311	-0.322	0.010
-308.895	41.641	-0.024	0.027
-307.880	-112.366	-0.292	-0.074
-306.866	-90.019	-0.329	0.123
-305.851	175.964	-0.221	-0.414
-304.837	-200.000	-0.012	0.498
-303.822	-200.000	0.002	-0.078
-302.807	9.319	-0.196	-0.191
-301.793	-8.620	-0.210	-0.181
-300.778	-67.913	0.301	0.150
-299.764	-72.065	0.297	-0.141
-298.749	65.491	0.201	-0.261
-297.735	-200.000	0.025	0.211
-296.720	-194.153	-0.455	-0.005
-295.705	-8.396	0.148	0.128
-294.691	528.667	0.068	0.208
-293.676	-77.574	-0.068	0.030
-292.662	710.191	-0.085	-0.292
-291.647	237.580	-0.153	-0.327
-290.632	247.892	0.289	0.630
-289.618	140.002	0.316	0.536
-288.603	-78.508	0.288	-0.126
-287.589	26.549	0.250	0.269
-286.574	800.000	-0.097	-0.376
-285.559	63.770	-0.113	0.145
-284.545	546.555	0.039	0.122
-283.530	-161.684	0.456	-0.030
-282.516	-200.000	0.003	0.095
-281.501	-161.385	-0.481	-0.031
-280.486	-65.716	-0.246	-0.126
-279.472	-96.525	-0.269	0.091
-278.457	-140.730	0.238	0.031
-277.443	-109.152	0.328	0.089
-276.428	47.771	0.217	0.261
-275.413	300.285	0.080	-0.190
-274.399	-106.574	-0.196	0.056
-273.384	800.000	-0.045	0.237
-272.370	25.326	-0.180	-0.192
-271.355	800.000	-0.071	0.352
-270.340	57.770	0.149	-0.187
-269.326	24.866	-0.348	-0.371
-268.311	469.632	-0.109	-0.315
-267.297	-98.139	0.760	-0.250
-266.282	77.255	0.306	-0.418
-265.267	-106.073	0.105	-0.030
-264.253	220.593	-0.152	0.313
-263.238	-75.822	0.267	-0.121
-262.224	184.693	-0.099	0.190
-261.209	507.067	-0.112	-0.335
-260.195	167.640	0.173	-0.316
-259.180	-134.339	0.328	0.051
-258.165	88.437	0.192	-0.274
-257.151	-200.000	-0.033	0.490
-256.136	337.225	0.082	0.205
-255.122	-137.837	-0.337	0.048
-254.107	-7.573	-0.132	-0.114
-253.092	-61.719	0.302	-0.162
-252.078	116.803	0.157	-0.247
-251.063	-200.000	0.016	0.282
-250.049	385.494	-0.081	-0.215
-249.034	-138.912	0.127	0.018
-248.019	-182.651	0.227	0.005
-247.005	93.133	0.140	-0.204
-245.990	48.609	-0.345	0.415
-244.976	-200.000	0.046	0.402
-243.961	-200.000	0.094	0.579
-242.946	3.351	0.227	0.212
-241.932	-125.931	-0.377	-0.072
-240.917	18.326	-0.310	-0.317
-239.903	-200.000	-0.024	-0.212
-238.888	-49.168	-0.247	0.151
-237.873	429.533	0.019	-0.053
-236.859	-200.000	-0.008	-0.137
-235.844	-165.219	0.421	0.023
-234.830	-200.000	-0.013	-0.188
-233.815	58.063	-0.302	0.379
-232.800	248.778	0.113	0.247
-231.786	-112.073	-0.452	0.116
-230.771	-200.000	0.071	0.489
-229.757	-81.137	0.288	0.122
-228.742	800.000	0.031	0.117
-227.727	-75.463	-0.365	-0.166
-226.713	-200.000	0.070	0.428
-225.698	60.278	-0.249	-0.316
-224.684	-104.071	-0.063	-0.019
-223.669	-3.837	0.020	0.018
-222.655	235.754	0.162	-0.345
-221.640	-87.669	0.098	0.038
-220.625	-171.858	0.179	0.007
-219.611	-200.000	0.039	0.399
-218.596	-11.000	-0.193	0.163
-217.582	-37.447	0.032	-0.022
-216.567	-169.320	0.427	-0.020
-215.552	-116.889	0.414	-0.096
-214.538	800.000	-0.025	-0.133
-213.523	-132.157	0.254	-0.042
-212.509	-127.629	-0.398	0.073
-211.494	-200.000	-0.007	-0.161
-210.479	-200.000	0.003	0.211
-209.465	-154.234	-0.061	-0.005
-208.450	-28.554	0.414	0.305
-207.436	31.625	-0.111	0.122
-206.421	431.023	0.072	-0.201
-205.406	-54.013	0.305	-0.177
-204.392	16.581	0.290	0.293
-203.377	-24.331	-0.203	0.155
-202.363	395.459	-0.036	-0.097
-201.348	360.620	0.104	-0.269
-200.333	800.000	0.117	0.577
-199.319	-106.723	0.075	0.021
-198.304	-154.962	0.460	-0.038
-197.290	-23.584	-0.138	0.106
-196.275	78.019	-0.132	-0.181
-195.260	-106.132	0.463	-0.132
-194.246	-34.828	-0.333	0.233
-193.231	-200.000	0.032	0.244
-192.217	-200.000	0.020	-0.146
-191.202	22.250	-0.358	0.374
-190.187	450.351	-0.178	0.506
-189.173	-119.123	-0.490	-0.109
-188.158	800.000	-0.074	-0.383
-187.144	-101.354	0.786	0.244
-186.129	68.595	0.175	-0.230
-185.114	-154.712	-0.241	0.020
-184.100	195.403	-0.191	-0.372
-183.085	-200.000	0.014	0.299
-182.071	-200.000	-0.064	0.449
-181.056	800.000	-0.052	-0.184
-180.042	125.663	0.087	0.140
-179.027	-200.000	0.019	-0.337
-178.012	107.608	-0.086	-0.130
-176.998	3.803	0.446	-0.417
-175.983	11.736	-0.387	-0.380
-174.969	61.426	-0.226	-0.287
-173.954	46.594	-0.379	0.450
-172.939	-99.108	-0.281	-0.090
-171.925	-66.690	0.221	-0.112
-170.910	37.634	-0.360	0.409
-169.896	800.000	0.041	0.179
-168.881	-89.524	-0.218	-0.081
-167.866	53.966	0.135	0.165
-166.852	-113.112	-0.246	0.062
-165.837	-200.000	-0.010	0.414
-164.823	34.355	0.270	0.302
-163.808	335.434	-0.097	-0.242
-162.793	-155.693	0.135	-0.011
-161.779	-169.145	-0.022	-0.001
-160.764	-68.769	-0.108	-0.053
-159.750	-97.342	-0.534	0.177
-158.735	340.705	0.112	-0.281
-157.720	339.382	-0.104	0.261
-156.706	-128.005	-0.221	-0.040
-155.691	29.223	-0.362	0.392
-154.677	-69.463	0.133	-0.065
-153.662	-167.364	0.495	-0.025
-152.647	-40.637	0.198	-0.131
-151.633	58.133	0.066	-0.083
-150.618	-41.991	0.416	-0.272
-149.604	-110.420	-0.164	-0.043
-148.589	-87.935	-0.389	-0.149
-147.574	-164.663	-0.209	-0.012
-146.560	-200.000	0.006	0.160
-145.545	-76.386	0.709	0.318
-144.531	-157.781	0.157	-0.012
-143.516	-200.000	0.082	0.000
-142.502	302.773	0.284	-0.674
-141.487	-200.000	0.032	0.268
-140.472	800.000	-0.027	0.133
-139.458	13.648	-0.061	-0.060
-138.443	-32.348	-0.227	0.161
-137.429	323.367	0.216	-0.528
-136.414	-29.664	-0.083	0.060
-135.399	19.921	0.214	0.221
-134.385	78.680	0.161	-0.220
-133.370	-54.542	0.426	-0.245
-132.356	415.846	0.070	-0.191
-131.341	-200.000	-0.020	0.411
-130.326	22.193	0.141	0.147
-129.312	-93.104	0.394	-0.139
-128.297	228.606	0.062	-0.130
-127.283	574.715	-0.083	-0.261
-126.268	-22.497	-0.330	0.255
-125.253	371.950	0.119	0.310
-124.239	683.678	0.030	0.102
-123.224	47.779	-0.298	0.356
-122.210	-96.353	0.198	-0.067
-121.195	-200.000	0.016	0.093
-120.180	-143.131	0.224	-0.027
-119.166	-37.721	0.146	-0.099
-118.151	7.455	0.230	-0.219
-117.137	800.000	-0.120	-0.430
-116.122	-163.947	-0.114	-0.007
-115.107	9.696	0.250	0.241
-114.093	633.045	-0.112	-0.364
-113.078	-67.184	-0.395	-0.198
-112.064	-7.480	0.208	-0.180
-111.049	-200.000	-0.002	0.142
-110.034	-26.470	-0.054	0.040
-109.020	154.729	0.112	-0.196
-108.005	12.599	-0.267	-0.263
-106.991	-127.198	-0.193	0.036
-105.976	-200.000	0.015	0.194
-104.962	-41.401	-0.150	0.098
-103.947	-19.269	0.228	-0.181
-102.932	-141.773	0.246	0.031
-101.918	401.401	-0.091	-0.245
-100.903	-100.734	0.094	-0.030
-99.889	-124.607	0.366	-0.072
-98.874	333.346	0.121	-0.298
-97.859	-46.734	0.062	-0.039
-96.845	423.214	-0.221	-0.609
-95.830	-35.136	-0.251	-0.174
-94.816	-133.888	0.492	0.077
-93.801	184.410	-0.065	0.122
-92.786	196.369	0.100	0.195
-91.772	-200.000	-0.011	0.321
-90.757	-200.000	0.015	-0.207
-89.743	-145.235	-0.138	-0.016
-88.728	-149.518	-0.423	0.042
-87.713	561.151	0.170	-0.528
-86.699	-129.276	-0.260	-0.046
-85.684	126.879	-0.066	0.107
-84.670	719.080	-0.023	0.077
-83.655	-94.567	0.341	-0.118
-82.640	-19.068	0.188	0.148
-81.626	-159.068	0.252	0.018
-80.611	800.000	0.091	-0.429
-79.597	-109.223	0.452	0.121
-78.582	209.726	0.011	0.021
-77.567	-113.744	0.497	0.122
-76.553	-47.260	0.190	0.118
-75.538	118.780	-0.237	0.373
-74.524	-200.000	0.018	0.336
-73.509	68.830	-0.372	0.487
-72.494	800.000	0.079	-0.312
-71.480	-83.949	0.278	-0.112
-70.465	379.021	0.160	-0.419
-69.451	171.812	-0.241	-0.443
-68.436	48.031	-0.167	-0.199
-67.422	194.506	0.094	0.182
-66.407	-4.749	-0.248	-0.218
-65.392	800.000	0.037	-0.196
-64.378	-23.345	-0.406	0.310
-63.363	345.532	0.125	-0.314
-62.349	341.077	0.077	0.193
-61.334	109.671	-1.700	-2.599
-60.319	40.187	1.341	1.537
-59.305	342.496	-2.933	-7.341
-58.290	84.423	3.427	4.781
-57.276	505.391	3.752	11.125
-56.261	-200.000	19.125	276.220
-55.246	400.811	1236.686	3319.943
-54.232	59.092	2810.690	3524.422
-53.217	68.991	2672.941	3500.351
-52.203	33.833	2404.761	2664.801
-51.188	31.936	2062.003	2261.920
-50.173	27.925	1942.381	2084.716
-49.159	26.622	1931.866	2058.469
-48.144	26.070	1927.257	2047.189
-47.130	26.088	1924.521	2044.405
-46.115	25.973	1922.878	2041.263
-45.100	25.890	1922.213	2039.534
-44.086	25.956	1919.932	2037.786
-43.071	25.993	1918.391	2036.492
-42.057	25.861	1917.856	2034.345
-41.042	25.827	1917.273	2033.256
-40.027	25.893	1915.996	2032.568
-39.013	25.936	1913.287	2030.104
-37.998	25.814	1912.719	2028.040
-36.984	25.867	1911.505	2027.269
-35.969	25.897	1909.408	2025.299
-34.954	25.880	1908.240	2023.796
-33.940	25.781	1907.049	2021.334
-32.925	25.798	1905.927	2020.253
-31.911	25.737	1905.750	2019.295
-30.896	25.730	1903.490	2016.749
-29.881	25.865	1901.772	2016.368
-28.867	25.672	1900.304	2012.563
-27.852	25.792	1898.831	2012.262
-26.838	25.712	1897.942	2010.349
-25.823	25.734	1895.809	2008.259
-24.809	25.804	1894.857	2007.954
-23.794	25.679	1894.205	2005.775
-22.779	25.583	1892.854	2003.190
-21.765	25.652	1891.563	2002.518
-20.750	25.659	1890.519	2001.414
-19.736	25.652	1888.781	1999.416
-18.721	25.665	1888.390	1999.066
-17.706	25.634	1887.023	1997.192
-16.692	25.521	1886.678	1995.488
-15.677	25.589	1884.683	1994.061
-14.663	25.683	1883.496	1993.775
-13.648	25.655	1882.657	1992.489
-12.633	25.586	1880.641	1989.517
-11.619	25.516	1879.912	1987.881
-10.604	25.513	1878.484	1986.266
-9.590	25.596	1877.410	1985.972
-8.575	25.512	1876.328	1983.819
-7.560	25.571	1874.876	1982.858
-6.546	25.634	1873.793	1982.330
-5.531	25.661	1872.413	1981.090
-4.517	25.514	1871.658	1978.580
-3.502	25.540	1870.505	1977.578
-2.487	25.677	1868.907	1977.323
-1.473	25.811	1865.298	1974.902
-0.458	25.859	1848.733	1957.805
0.556	23.081	1994.631	2067.371
1.571	22.415	2204.310	2275.777
2.586	23.731	2244.901	2334.807
3.600	23.607	2248.339	2336.454
4.615	23.823	2246.989	2337.626
5.629	23.842	2244.866	2335.392
6.644	23.867	2243.351	2333.867
7.659	23.939	2241.153	2332.254
8.673	23.968	2238.672	2329.771
9.688	23.515	2246.204	2331.344
10.702	21.695	2323.307	2386.189
11.717	19.699	2387.117	2423.328
12.731	9.966	2360.839	2260.076
13.746	1.500	2338.400	2120.011
14.761	0.203	2335.196	2098.696
15.775	0.107	2333.081	2095.197
16.790	0.025	2331.793	2092.651
17.804	0.112	2329.677	2091.711
18.819	0.121	2329.012	2090.985
19.834	0.054	2326.660	2087.696
20.848	0.045	2325.866	2086.606
21.863	0.038	2323.147	2083.818
22.877	-0.011	2322.494	2082.301
23.892	0.044	2319.413	2080.060
24.907	-0.010	2317.501	2077.343
25.921	-0.027	2316.349	2075.830
26.936	0.047	2313.104	2073.692
27.950	0.094	2310.142	2071.438
28.965	0.175	2308.175	2070.546
29.980	0.124	2307.431	2068.931
30.994	0.161	2304.707	2066.745
32.009	5.116	2321.826	2150.621
33.023	17.651	2359.618	2360.904
34.038	23.738	2371.272	2457.182
35.053	24.720	2371.563	2470.841
36.067	24.568	2368.366	2465.115
37.082	24.104	2365.986	2455.902
38.096	24.053	2362.317	2451.099
39.111	23.904	2359.992	2446.335
40.126	24.258	2358.713	2449.602
41.140	24.786	2358.428	2456.309
42.155	24.547	2356.584	2450.789
43.169	24.518	2354.491	2447.926
44.184	24.791	2352.597	2449.418
45.199	24.723	2350.095	2445.592
46.213	24.394	2348.720	2439.339
47.228	24.338	2346.832	2436.319
48.242	24.360	2345.361	2434.801
49.257	24.558	2343.941	2435.758
50.271	24.738	2341.778	2435.671
51.286	24.823	2340.387	2435.096
52.301	24.751	2338.209	2431.556
53.315	23.929	2336.286	2418.041
54.330	22.870	2331.048	2397.883
55.344	22.306	2326.550	2385.290
56.359	22.193	2323.031	2379.855
57.374	22.038	2321.059	2375.444
58.388	22.164	2317.833	2373.573
59.403	22.420	2315.102	2373.954
60.417	22.685	2314.792	2376.950
61.432	22.781	2313.073	2376.194
62.447	22.901	2310.347	2374.734
63.461	22.739	2308.211	2370.072
64.476	22.763	2307.080	2368.945
65.490	23.148	2307.064	2373.832
66.505	23.489	2307.282	2378.379
67.520	23.993	2308.447	2386.093
68.534	24.417	2306.636	2389.639
69.549	24.978	2304.784	2394.975
70.563	25.241	2302.287	2395.626
71.578	25.277	2302.732	2396.278
72.593	25.317	2299.941	2393.625
73.607	25.353	2297.602	2391.384
74.622	25.193	2297.639	2388.995
75.636	25.168	2294.293	2384.900
76.651	25.116	2291.199	2380.704
77.666	25.152	2289.845	2379.492
78.680	25.298	2288.728	2379.998
79.695	25.246	2286.468	2376.665
80.709	25.369	2285.168	2376.663
81.724	25.414	2284.152	2375.929
82.739	25.335	2280.753	2371.053
83.753	25.298	2277.939	2367.352
84.768	25.097	2276.549	2362.964
85.782	24.927	2274.792	2358.607
86.797	24.988	2272.115	2356.358
87.812	24.897	2269.567	2352.230
88.826	24.907	2267.927	2350.384
89.841	24.937	2267.222	2349.764
90.855	25.261	2264.013	2350.423
91.870	24.923	2261.372	2342.951
92.884	24.743	2260.478	2339.380
93.899	24.904	2259.184	2339.875
94.914	24.344	2258.249	2331.282
95.928	23.385	2254.160	2314.193
96.943	23.110	2251.522	2307.603
97.957	24.129	2251.847	2321.011
98.972	24.691	2252.231	2328.499
99.987	24.631	2248.072	2323.129
101.001	24.561	2245.248	2319.026
102.016	24.687	2243.598	2318.682
103.030	24.583	2243.030	2316.466
104.045	25.048	2239.966	2319.066
105.060	25.126	2239.118	2318.928
106.074	25.143	2237.372	2317.067
107.089	25.015	2234.620	2312.280
108.103	25.002	2234.367	2311.569
109.118	25.062	2232.152	2309.778
110.133	25.271	2230.664	2310.663
111.147	25.414	2230.080	2311.642
112.162	25.554	2227.900	2310.909
113.176	25.204	2225.378	2303.500
114.191	25.254	2222.613	2301.007
115.206	25.368	2221.682	2301.229
116.220	25.407	2219.498	2299.199
117.235	25.061	2218.061	2292.992
118.249	24.964	2215.785	2289.113
119.264	25.172	2214.684	2290.368
120.279	25.326	2212.669	2289.995
121.293	25.258	2209.817	2285.898
122.308	25.090	2209.497	2283.141
123.322	24.876	2207.828	2278.404
124.337	24.574	2204.151	2270.479
125.352	23.637	2201.102	2255.104
126.366	23.477	2200.129	2251.790
127.381	24.205	2199.888	2260.570
128.395	24.699	2198.415	2265.077
129.410	25.073	2196.348	2267.428
130.424	25.208	2195.978	2268.493
131.439	25.234	2193.437	2265.931
132.454	25.168	2191.715	2263.042
133.468	25.192	2190.455	2261.772
134.483	25.131	2188.291	2258.499
135.497	24.958	2186.288	2253.975
136.512	25.110	2184.175	2253.445
137.527	24.975	2182.994	2250.245
138.541	24.997	2181.249	2248.455
139.556	24.783	2180.138	2244.340
140.570	24.861	2178.366	2243.241
141.585	25.007	2177.018	2243.411
142.600	25.046	2175.369	2241.943
143.614	25.105	2173.860	2240.853
144.629	25.099	2172.487	2239.104
145.643	24.871	2169.725	2233.129
146.658	24.791	2167.462	2229.533
147.673	24.863	2166.323	2228.987
148.687	24.898	2164.846	2227.645
149.702	24.720	2163.164	2223.418
150.716	24.615	2161.050	2219.667
151.731	24.653	2161.823	2220.670
152.746	25.187	2160.918	2226.133
153.760	24.621	2158.365	2216.184
154.775	23.178	2154.082	2193.563
155.789	22.562	2151.074	2182.571
156.804	23.655	2149.811	2194.618
157.819	24.577	2149.104	2205.070
158.833	24.763	2146.777	2204.735
159.848	24.843	2145.536	2204.184
160.862	25.069	2144.817	2205.975
161.877	25.221	2144.840	2207.610
162.892	25.195	2143.267	2205.415
163.906	25.323	2141.762	2205.179
164.921	25.266	2139.738	2202.132
165.935	25.391	2137.307	2200.905
166.950	25.226	2135.618	2196.869
167.964	25.045	2133.474	2192.174
168.979	24.947	2131.867	2189.061
169.994	25.266	2129.917	2190.708
171.008	25.199	2128.575	2188.246
172.023	25.129	2126.585	2185.080
173.037	25.087	2125.629	2183.314
174.052	25.121	2124.650	2182.475
175.067	25.055	2122.878	2179.576
176.081	25.205	2121.637	2179.876
177.096	25.123	2121.137	2178.100
178.110	25.056	2118.231	2174.038
179.125	24.969	2116.633	2171.084
180.140	25.336	2115.589	2174.218
181.154	25.149	2114.874	2170.944
182.169	24.863	2112.817	2165.100
183.183	24.331	2109.759	2155.243
184.198	23.045	2104.608	2134.135
185.213	22.775	2103.894	2129.880
186.227	24.398	2104.462	2149.877
187.242	25.054	2105.391	2158.508
188.256	25.201	2104.262	2158.877
189.271	25.517	2103.381	2161.531
190.286	25.499	2101.875	2159.502
191.300	25.126	2098.242	2151.021
192.315	25.048	2097.124	2148.674
193.329	25.206	2095.498	2148.653
194.344	25.281	2094.782	2148.564
195.359	25.316	2093.066	2146.968
196.373	25.475	2091.403	2146.919
197.388	25.217	2089.250	2141.353
198.402	24.967	2086.057	2134.832
199.417	24.922	2083.746	2131.668
200.432	25.046	2082.378	2131.501
201.446	25.174	2083.117	2133.533
202.461	25.230	2080.397	2131.154
203.475	25.021	2078.764	2126.733
204.490	24.973	2076.488	2123.579
205.504	24.990	2073.467	2120.445
206.519	24.759	2071.051	2114.968
207.534	24.751	2069.790	2113.338
208.548	24.902	2068.385	2113.439
209.563	24.616	2067.499	2108.883
210.577	24.454	2065.646	2104.830
211.592	24.554	2064.922	2105.026
212.607	24.030	2061.873	2095.459
213.621	22.706	2057.398	2075.022
214.636	22.528	2056.299	2071.562
215.650	23.744	2058.083	2087.477
216.665	24.584	2057.218	2096.266
217.680	24.801	2056.931	2098.286
218.694	25.110	2054.287	2098.974
219.709	24.822	2053.416	2094.440
220.723	24.742	2051.998	2091.800
221.738	24.844	2050.678	2091.404
222.753	24.945	2048.025	2089.627
223.767	25.026	2046.544	2088.821
224.782	24.795	2044.178	2083.449
225.796	24.789	2043.273	2082.214
226.811	24.886	2042.531	2082.334
227.826	25.057	2041.767	2083.314
228.840	25.275	2041.063	2084.888
229.855	25.173	2038.183	2080.510
230.869	25.069	2036.415	2077.241
231.884	25.100	2034.719	2075.623
232.899	25.108	2033.003	2073.713
233.913	24.974	2032.589	2071.489
234.928	25.069	2031.689	2071.424
235.942	25.303	2029.551	2071.719
236.957	25.168	2028.092	2068.418
237.972	25.096	2026.909	2066.124
238.986	25.253	2026.993	2067.778
240.001	25.356	2024.902	2066.591
241.015	25.024	2022.194	2059.749
242.030	24.622	2019.425	2052.038
243.045	23.475	2015.373	2034.460
244.059	23.218	2014.825	2030.696
245.074	24.694	2014.350	2046.976
246.088	25.150	2013.438	2051.046
247.103	25.057	2011.845	2048.112
248.117	25.102	2011.181	2047.703
249.132	25.527	2010.200	2051.335
250.147	25.399	2007.277	2046.640
251.161	24.985	2005.318	2039.659
252.176	24.699	2003.796	2034.597
253.190	24.477	1999.994	2027.967
254.205	23.998	1996.483	2018.695
255.220	24.065	1996.611	2019.346
256.234	24.064	1995.294	2017.768
257.249	23.931	1994.835	2015.542
258.263	24.011	1993.246	2014.613
259.278	23.867	1991.619	2011.083
260.293	23.738	1989.273	2007.017
261.307	24.068	1988.957	2010.203
262.322	24.685	1988.722	2016.721
263.336	24.557	1986.683	2012.962
264.351	24.398	1984.968	2009.184
265.366	24.575	1984.429	2010.399
266.380	24.691	1982.198	2009.212
267.395	24.485	1980.716	2005.143
268.409	24.454	1979.002	2002.810
269.424	24.749	1977.864	2004.746
270.439	24.869	1977.161	2005.146
271.453	24.278	1974.493	1995.558
272.468	23.012	1969.392	1975.948
273.482	22.857	1967.846	1972.415
274.497	23.884	1967.928	1983.782
275.512	24.625	1967.193	1991.107
276.526	24.792	1965.889	1991.424
277.541	24.741	1963.401	1988.090
278.555	24.589	1962.378	1985.121
279.570	24.492	1960.291	1981.687
280.585	24.374	1959.098	1978.929
281.599	24.734	1958.700	1982.307
282.614	24.686	1956.851	1979.661
283.628	23.944	1953.562	1967.847
284.643	23.691	1952.312	1963.547
285.657	23.684	1950.128	1961.038
286.672	23.485	1947.680	1956.130
287.687	23.135	1946.099	1950.429
288.701	22.867	1945.443	1946.577
289.716	22.858	1942.967	1943.757
290.730	22.838	1941.035	1941.380
291.745	23.075	1940.547	1943.273
292.760	23.412	1939.591	1945.801
293.774	23.589	1940.141	1948.075
294.789	24.164	1939.136	1953.166
295.803	24.433	1938.679	1955.440
296.818	24.718	1938.499	1958.159
297.833	25.030	1937.529	1960.383
298.847	25.192	1936.201	1960.576
299.862	25.229	1934.193	1958.720
300.876	24.801	1931.861	1951.437
301.891	23.297	1927.281	1930.106
302.906	23.336	1927.048	1930.069
303.920	24.875	1929.115	1948.773
304.935	25.375	1926.905	1951.760
305.949	25.036	1924.530	1945.430
306.964	25.083	1923.022	1944.184
307.979	24.602	1920.031	1935.690
308.993	23.838	1916.412	1923.506
310.008	23.852	1915.190	1922.201
311.022	23.908	1913.799	1921.177
312.037	23.505	1911.244	1914.013
313.052	22.910	1907.929	1904.023
314.066	22.505	1905.115	1896.604
315.081	22.346	1905.324	1894.861
316.095	22.138	1903.437	1890.513
317.110	22.262	1900.564	1888.773
318.125	22.387	1901.119	1890.448
319.139	23.022	1901.927	1897.875
320.154	23.766	1900.975	1904.724
321.168	23.885	1899.970	1904.762
322.183	24.148	1900.272	1907.675
323.197	24.584	1899.617	1911.477
324.212	24.581	1897.763	1909.350
325.227	24.515	1895.362	1906.003
326.241	24.678	1895.321	1907.478
327.256	24.867	1893.626	1907.565
328.270	24.607	1892.444	1903.365
329.285	24.596	1891.672	1902.246
330.300	24.263	1889.800	1896.571
331.314	23.106	1885.789	1879.965
332.329	22.869	1884.816	1876.236
333.343	24.145	1884.779	1889.601
334.358	24.738	1883.732	1894.632
335.373	24.643	1883.045	1892.710
336.387	24.706	1880.284	1890.376
337.402	24.862	1879.244	1890.762
338.416	24.900	1877.999	1889.690
339.431	24.833	1876.587	1887.324
340.446	24.985	1875.115	1887.236
341.460	24.486	1871.567	1878.161
342.475	23.936	1869.407	1869.953
343.489	23.606	1867.160	1864.002
344.504	23.292	1865.809	1859.115
345.519	23.298	1863.102	1856.265
346.533	23.073	1861.325	1851.906
347.548	23.107	1861.239	1851.953
348.562	23.136	1860.800	1851.602
349.577	23.180	1859.060	1850.103
350.592	23.089	1857.368	1847.250
351.606	23.312	1856.291	1848.289
352.621	23.495	1854.917	1848.621
353.635	23.504	1853.150	1846.733
354.650	23.354	1852.648	1844.445
355.665	23.952	1852.246	1850.070
356.679	24.691	1851.660	1856.990
357.694	24.878	1851.769	1858.830
358.708	25.203	1851.510	1861.739
359.723	24.759	1848.592	1853.950
360.738	23.305	1844.018	1834.019
361.752	23.320	1843.584	1833.522
362.767	24.259	1843.375	1842.867
363.781	24.412	1841.110	1841.964
364.796	24.274	1840.232	1839.436
365.810	24.106	1838.884	1836.127
366.825	24.027	1837.326	1833.529
367.840	24.233	1836.247	1834.372
368.854	24.361	1835.921	1835.151
369.869	24.333	1834.422	1833.143
370.883	23.832	1831.771	1825.103
371.898	23.518	1829.924	1819.807
372.913	23.235	1827.593	1814.353
373.927	23.171	1825.065	1810.970
374.942	23.258	1824.650	1811.231
375.956	23.592	1824.212	1814.013
376.971	24.024	1821.475	1815.511
377.986	23.768	1820.625	1811.818
379.000	24.166	1820.187	1815.245
380.015	24.646	1818.672	1818.423
381.029	24.583	1817.633	1816.525
382.044	24.543	1816.322	1814.592
383.059	24.624	1814.235	1813.111
384.073	24.499	1812.972	1810.364
385.088	24.197	1811.662	1805.759
386.102	24.208	1809.686	1803.681
387.117	24.257	1807.053	1801.343
388.132	24.169	1807.054	1800.230
389.146	24.066	1807.094	1799.014
390.161	22.995	1804.726	1785.570
391.175	23.002	1801.908	1782.635
392.190	23.870	1801.165	1790.482
393.205	24.139	1799.675	1791.503
394.219	24.399	1798.763	1793.013
395.234	24.517	1797.544	1792.773
396.248	24.521	1796.160	1791.220
397.263	24.356	1794.378	1787.569
398.278	24.281	1792.345	1784.569
399.292	24.193	1790.362	1781.493
400.307	24.184	1790.061	1780.895
401.321	24.094	1788.742	1778.463
402.336	23.471	1785.704	1768.990
403.350	22.946	1783.105	1760.941
404.365	23.561	1783.111	1766.898
405.380	23.884	1782.181	1768.996
406.394	23.959	1781.868	1769.224
407.409	23.874	1779.755	1766.061
408.423	23.692	1777.084	1761.382
409.438	23.515	1775.753	1758.096
410.453	23.687	1774.682	1758.539
411.467	23.643	1774.071	1757.277
412.482	23.889	1773.786	1759.237
413.496	24.568	1773.741	1765.727
414.511	24.616	1772.113	1764.372
415.526	24.631	1769.543	1761.750
416.540	24.611	1768.194	1760.001
417.555	24.532	1767.507	1758.327
418.569	24.348	1767.457	1756.242
419.584	24.626	1768.048	1759.373
420.599	25.009	1766.675	1761.585
421.613	24.889	1766.495	1760.000
422.628	24.911	1765.570	1759.088
423.642	25.058	1763.767	1758.533
424.657	24.973	1761.939	1755.657
425.672	24.643	1759.589	1749.862
426.686	24.700	1758.069	1748.697
427.701	24.541	1756.224	1745.093
428.715	24.276	1755.015	1741.082
429.730	24.575	1753.627	1742.432
430.745	24.581	1752.337	1741.003
431.759	24.251	1750.524	1735.759
432.774	23.540	1747.036	1725.151
433.788	22.779	1744.821	1715.319
434.803	22.634	1743.839	1712.737
435.818	22.638	1743.772	1712.501
436.832	22.668	1742.968	1711.803
437.847	21.384	1734.844	1691.144
438.861	12.045	1709.592	1576.433
439.876	2.129	1691.291	1464.167
440.890	0.311	1687.106	1442.878
441.905	0.212	1686.241	1441.017
442.920	0.260	1685.004	1440.249
443.934	0.068	1683.465	1436.922
444.949	0.110	1682.167	1436.039
445.963	-0.029	1681.601	1434.052
446.978	0.016	1681.695	1434.388
447.993	0.070	1680.194	1433.459
449.007	0.085	1677.163	1430.845
450.022	0.091	1675.652	1429.441
451.036	0.153	1673.761	1428.245
452.051	0.534	1677.533	1434.938
453.066	8.571	1696.762	1528.662
454.080	18.875	1714.006	1643.544
455.095	21.629	1719.110	1674.754
456.109	22.518	1719.275	1683.256
457.124	22.568	1718.590	1682.860
458.139	22.580	1717.521	1681.726
459.153	22.498	1716.435	1679.673
460.168	22.649	1713.983	1678.524
461.182	22.608	1713.411	1677.369
462.197	22.682	1711.482	1675.987
463.212	22.782	1710.012	1675.296
464.226	22.991	1709.082	1676.181
465.241	22.930	1707.324	1673.671
466.255	22.647	1706.695	1670.159
467.270	22.766	1705.525	1669.949
468.285	22.827	1704.624	1669.452
469.299	22.706	1704.111	1667.597
470.314	22.704	1701.517	1664.838
471.328	22.664	1699.496	1662.288
472.343	22.568	1698.877	1660.570
473.358	22.521	1696.340	1657.451
474.372	22.276	1695.300	1653.920
475.387	22.358	1694.362	1653.581
476.401	22.258	1692.344	1650.471
477.416	22.285	1690.680	1648.901
478.430	22.144	1689.212	1645.950
479.445	22.196	1688.597	1645.636
480.460	22.431	1687.359	1646.444
481.474	22.467	1687.025	1646.256
482.489	22.288	1685.295	1642.699
483.503	22.118	1682.756	1638.428
484.518	21.903	1681.592	1635.086
485.533	22.038	1680.011	1634.618
486.547	21.988	1677.540	1631.554
487.562	21.524	1677.190	1626.677
488.576	21.587	1676.304	1626.218
489.591	21.764	1674.803	1626.218
490.606	22.040	1673.690	1627.506
491.620	22.021	1672.302	1625.792
492.635	21.827	1670.140	1621.691
493.649	21.594	1668.445	1617.687
494.664	21.978	1668.214	1620.835
495.679	22.416	1668.108	1624.595
496.693	22.461	1667.249	1623.985
497.708	22.640	1665.296	1623.542
498.722	22.251	1664.320	1618.803
499.737	22.356	1662.462	1617.768
500.752	22.637	1661.345	1619.079
501.766	22.691	1660.400	1618.467
502.781	22.591	1659.018	1616.006
503.795	22.594	1657.619	1614.476
504.810	22.679	1656.154	1613.634
505.825	22.502	1655.130	1610.822
506.839	22.649	1654.937	1611.785
507.854	22.447	1653.462	1608.307
508.868	22.476	1651.026	1606.012
509.883	22.347	1649.668	1603.319
510.898	22.147	1648.463	1600.125
511.912	22.223	1647.570	1599.756
512.927	22.385	1645.509	1599.049
513.941	22.506	1643.839	1598.338
514.956	22.418	1643.747	1597.248
515.971	22.487	1641.630	1595.632
516.985	22.468	1640.980	1594.638
518.000	22.249	1640.050	1591.552
519.014	22.084	1639.007	1588.851
520.029	22.139	1636.238	1586.474
521.043	22.096	1636.156	1585.808
522.058	22.328	1634.285	1585.909
523.073	22.268	1633.346	1584.263
524.087	21.888	1632.257	1579.582
525.102	22.058	1631.256	1579.964
526.116	22.617	1630.952	1584.528
527.131	22.584	1630.195	1583.308
528.146	22.356	1628.635	1579.542
529.160	22.119	1627.121	1575.748
530.175	22.088	1625.655	1573.865
531.189	22.235	1623.405	1572.823
532.204	22.150	1621.033	1569.574
533.219	22.144	1621.377	1569.664
534.233	22.169	1621.358	1569.682
535.248	21.920	1619.444	1565.404
536.262	21.394	1616.968	1558.119
537.277	21.416	1615.413	1556.623
538.292	21.598	1614.241	1556.935
539.306	21.424	1612.631	1553.647
540.321	21.405	1611.310	1552.017
541.335	21.543	1609.925	1551.729
542.350	21.541	1608.621	1550.267
543.365	21.453	1606.760	1547.506
544.379	21.370	1605.184	1545.066
545.394	21.317	1604.196	1543.459
546.408	21.720	1603.507	1546.186
547.423	21.993	1604.014	1548.910
548.438	22.264	1603.284	1550.420
549.452	22.038	1600.777	1545.813
550.467	21.801	1599.650	1542.449
551.481	21.939	1599.139	1542.983
552.496	21.809	1598.072	1540.629
553.511	21.673	1597.149	1538.348
554.525	21.752	1595.815	1537.579
555.540	21.674	1594.914	1535.836
556.554	21.851	1593.387	1535.737
557.569	21.805	1591.836	1533.659
558.583	22.057	1590.712	1534.607
559.598	22.006	1590.328	1533.606
560.613	22.149	1588.446	1532.857
561.627	21.935	1586.408	1528.837
562.642	21.623	1584.898	1524.466
563.656	21.266	1583.520	1519.839
564.671	21.388	1582.185	1519.441
565.686	21.477	1580.882	1518.783
566.700	21.596	1579.960	1518.754
567.715	21.667	1579.238	1518.498
568.729	21.796	1578.053	1518.297
569.744	22.050	1576.444	1518.775
570.759	21.828	1575.758	1516.005
571.773	21.851	1574.059	1514.387
572.788	21.728	1572.999	1512.121
573.802	21.614	1570.315	1508.375
574.817	21.437	1568.737	1505.145
575.832	21.166	1568.133	1502.039
576.846	21.453	1567.539	1503.773
577.861	21.756	1566.408	1505.128
578.875	21.702	1565.538	1503.642
579.890	21.606	1564.177	1501.327
580.905	21.457	1563.177	1498.910
581.919	21.377	1562.544	1497.431
582.934	21.349	1561.376	1495.895
583.948	21.296	1559.587	1493.545
584.963	21.198	1558.780	1491.749
585.978	21.504	1557.002	1492.498
586.992	21.162	1556.416	1488.825
588.007	20.688	1555.518	1483.725
589.021	21.163	1554.302	1486.452
590.036	21.441	1551.841	1486.294
591.051	21.157	1550.640	1482.545
592.065	21.039	1548.791	1479.588
593.080	20.828	1546.978	1475.889
594.094	20.954	1545.969	1475.816
595.109	21.167	1545.866	1477.352
596.123	21.700	1544.837	1480.726
597.138	21.466	1543.772	1477.537
598.153	21.299	1541.589	1473.856
599.167	21.290	1540.372	1472.439
600.182	21.129	1539.110	1469.695
601.196	21.055	1538.263	1468.091
602.211	21.075	1537.181	1467.048
603.226	21.126	1535.603	1465.797
604.240	21.052	1533.846	1463.319
605.255	20.966	1532.730	1461.355
606.269	21.103	1532.489	1462.103
607.284	21.233	1532.086	1462.635
608.299	21.272	1530.280	1461.065
609.313	21.457	1529.482	1461.682
610.328	21.488	1527.547	1459.925
611.342	21.417	1526.207	1457.872
612.357	21.019	1525.466	1453.652
613.372	21.054	1524.649	1452.993
614.386	21.181	1523.504	1452.790
615.401	20.852	1522.242	1448.669
616.415	21.069	1521.316	1449.426
617.430	21.044	1519.418	1447.236
618.445	20.653	1518.890	1443.294
619.459	20.762	1518.379	1443.542
620.474	21.089	1517.943	1445.682
621.488	21.365	1517.099	1446.999
622.503	21.535	1515.626	1446.837
623.518	21.032	1514.375	1441.296
624.532	20.855	1512.209	1437.592
625.547	20.855	1510.206	1435.511
626.561	20.600	1509.049	1432.134
627.576	20.311	1508.712	1429.248
628.591	20.821	1508.320	1432.926
629.605	21.066	1506.459	1433.013
630.620	21.158	1505.597	1432.777
631.634	21.357	1504.890	1433.572
632.649	21.108	1504.086	1430.583
633.663	20.857	1501.774	1426.148
634.678	20.490	1500.140	1421.413
635.693	20.381	1498.291	1418.590
636.707	20.372	1496.554	1416.702
637.722	20.301	1495.263	1414.730
638.736	20.505	1494.696	1415.692
639.751	20.575	1494.373	1415.795
640.766	20.684	1493.330	1415.528
641.780	20.654	1492.223	1414.066
642.795	20.787	1491.347	1414.149
643.809	20.851	1490.498	1413.701
644.824	20.884	1489.405	1412.757
645.839	20.934	1488.921	1412.537
646.853	20.766	1487.294	1409.460
647.868	20.789	1485.340	1407.628
648.882	20.728	1484.136	1405.819
649.897	20.757	1482.808	1404.627
650.912	20.562	1481.882	1402.006
651.926	20.459	1480.318	1399.526
652.941	20.464	1479.184	1398.327
653.955	20.739	1478.455	1399.692
654.970	21.096	1476.627	1400.677
655.985	21.038	1475.365	1398.839
656.999	20.925	1474.127	1396.589
658.014	20.649	1472.847	1392.988
659.028	20.488	1471.453	1390.212
660.043	20.486	1470.762	1389.373
661.058	20.629	1468.740	1388.446
662.072	20.415	1468.455	1386.294
663.087	20.415	1467.594	1385.313
664.101	20.648	1467.107	1386.555
665.116	20.505	1465.879	1384.087
666.131	20.478	1464.747	1382.636
667.145	20.646	1463.229	1382.373
668.160	20.522	1461.731	1379.806
669.174	20.398	1460.147	1377.159
670.189	20.424	1458.964	1376.086
671.204	20.689	1458.529	1377.621
672.218	20.697	1457.434	1376.486
673.233	20.677	1456.059	1374.864
674.247	20.473	1454.945	1372.025
675.262	20.158	1454.574	1369.013
676.276	20.310	1452.919	1368.496
677.291	20.547	1452.727	1370.028
678.306	20.889	1451.829	1371.721
679.320	20.816	1449.915	1369.172
680.335	20.543	1448.669	1365.679
681.349	20.435	1448.382	1364.392
682.364	20.515	1446.712	1363.286
683.379	20.386	1445.695	1361.151
684.393	20.269	1444.829	1359.247
685.408	20.110	1443.206	1356.310
686.422	20.194	1442.041	1355.714
687.437	20.168	1441.356	1354.698
688.452	20.009	1440.322	1352.320
689.466	20.114	1438.524	1351.296
690.481	20.117	1437.131	1349.847
691.495	20.115	1437.678	1350.179
692.510	20.527	1436.848	1352.467
693.525	20.886	1435.063	1353.423
694.539	20.533	1433.301	1348.848
695.554	20.147	1432.280	1344.715
696.568	20.060	1430.783	1342.474
697.583	19.926	1430.207	1340.730
698.598	19.924	1429.882	1340.249
699.612	19.945	1428.077	1338.557
700.627	20.072	1427.032	1338.409
701.641	20.258	1426.377	1339.076
702.656	20.190	1425.372	1337.444
703.671	19.963	1424.822	1335.005
704.685	20.128	1423.753	1335.124
705.700	20.206	1422.463	1334.356
706.714	20.371	1420.468	1333.602
707.729	20.302	1420.255	1332.708
708.744	20.212	1418.526	1330.233
709.758	20.087	1417.251	1327.913
710.773	20.426	1416.897	1330.038
711.787	20.474	1415.222	1328.672
712.802	20.199	1413.761	1325.031
713.816	20.132	1413.670	1324.274
714.831	20.145	1412.619	1323.227
715.846	19.993	1410.813	1320.216
716.860	20.065	1408.846	1318.764
717.875	20.068	1408.385	1318.202
718.889	20.189	1407.421	1318.065
719.904	20.029	1406.547	1315.869
720.919	20.059	1405.656	1315.104
721.933	19.885	1405.105	1313.101
722.948	20.038	1403.296	1312.418
723.962	20.017	1401.934	1310.829
724.977	19.839	1401.165	1308.600
725.992	19.921	1400.110	1308.079
727.006	19.870	1398.637	1306.163
728.021	19.949	1397.194	1305.256
729.035	19.990	1396.276	1304.555
730.050	20.037	1395.237	1303.784
731.065	20.102	1394.759	1303.674
732.079	19.986	1393.209	1301.187
733.094	20.124	1392.473	1301.389
734.108	20.265	1391.257	1301.163
735.123	20.069	1389.708	1298.077
736.138	20.108	1388.662	1297.240
737.152	19.951	1387.935	1295.225
738.167	20.096	1385.877	1294.237
739.181	19.850	1385.544	1291.930
740.196	19.890	1384.754	1291.331
741.211	19.847	1383.832	1290.000
742.225	19.887	1383.279	1289.630
743.240	19.883	1381.919	1288.175
744.254	19.802	1379.474	1285.135
745.269	19.768	1378.493	1283.815
746.284	19.731	1377.781	1282.723
747.298	19.688	1378.034	1282.482
748.313	19.854	1376.849	1282.468
749.327	20.183	1376.010	1283.980
750.342	20.363	1376.252	1285.393
751.356	20.747	1375.153	1287.065
752.371	20.426	1373.770	1283.232
753.386	19.894	1371.328	1276.853
754.400	19.841	1370.411	1275.459
755.415	19.948	1369.319	1275.076
756.429	19.893	1368.119	1273.400
757.444	19.857	1366.693	1271.653
758.459	19.789	1365.498	1269.890
759.473	19.782	1364.778	1269.015
760.488	19.705	1363.348	1266.964
761.502	19.875	1361.783	1266.615
762.517	19.863	1360.934	1265.584
763.532	20.016	1359.418	1265.144
764.546	19.853	1358.684	1263.112
765.561	19.983	1359.409	1264.590
766.575	20.410	1358.723	1266.932
767.590	20.568	1356.733	1266.084
768.605	20.165	1355.437	1261.778
769.619	19.964	1353.813	1258.646
770.634	19.911	1352.304	1256.702
771.648	19.781	1351.192	1254.569
772.663	19.694	1350.602	1253.240
773.678	19.845	1350.189	1253.808
774.692	19.829	1349.403	1252.814
775.707	19.687	1349.157	1251.399
776.721	19.663	1348.055	1250.049
777.736	19.625	1346.765	1248.430
778.751	19.763	1345.643	1248.240
779.765	19.734	1344.466	1246.788
780.780	19.709	1344.625	1246.607
781.794	19.704	1343.775	1245.632
782.809	19.552	1342.324	1243.038
783.824	19.600	1340.503	1241.550
784.838	19.699	1339.558	1241.242
785.853	20.078	1339.330	1243.614
786.867	19.835	1338.720	1241.147
787.882	19.649	1338.186	1239.167
788.897	19.528	1337.192	1237.225
789.911	19.457	1335.580	1235.072
790.926	19.544	1334.231	1234.303
791.940	19.423	1332.742	1231.912
792.955	19.467	1330.996	1230.463
793.969	19.449	1330.173	1229.427
794.984	19.482	1329.178	1228.593
795.999	19.616	1327.938	1228.259
797.013	19.517	1327.020	1226.557
798.028	19.399	1325.534	1224.199
799.042	19.491	1324.530	1223.779
800.057	19.652	1323.670	1223.985
801.072	19.536	1322.246	1221.697
802.086	19.688	1321.076	1221.551
803.101	19.614	1320.341	1220.197
804.115	19.600	1319.244	1218.941
805.130	19.605	1318.358	1218.006
806.145	19.730	1316.993	1217.487
807.159	19.670	1315.349	1215.397
808.174	19.607	1314.965	1214.452
809.188	19.737	1313.714	1214.067
810.203	19.813	1311.727	1212.623
811.218	19.821	1310.656	1211.547
812.232	20.072	1309.685	1212.266
813.247	20.150	1308.565	1211.633
814.261	19.916	1308.416	1209.704
815.276	19.636	1307.591	1206.836
816.291	19.641	1306.114	1205.362
817.305	19.702	1304.559	1204.206
818.320	19.431	1303.964	1201.617
819.334	19.580	1302.559	1201.219
820.349	19.600	1300.693	1199.495
821.364	19.540	1299.498	1197.833
822.378	19.387	1298.261	1195.479
823.393	19.413	1296.386	1193.795
824.407	19.283	1295.750	1192.164
825.422	19.351	1295.249	1192.027
826.437	19.376	1294.072	1190.978
827.451	19.447	1292.756	1190.116
828.466	19.544	1292.021	1189.969
829.480	19.990	1289.997	1191.046
830.495	19.728	1287.645	1186.924
831.509	19.419	1286.771	1183.844
832.524	19.390	1286.184	1182.962
833.539	19.476	1285.465	1182.754
834.553	19.495	1283.703	1181.122
835.568	19.394	1282.558	1179.231
836.582	19.492	1281.847	1179.112
837.597	19.483	1280.620	1177.779
838.612	19.493	1279.423	1176.606
839.626	19.516	1278.999	1176.233
840.641	19.687	1278.160	1176.493
841.655	19.713	1277.516	1175.936
842.670	20.068	1277.075	1177.814
843.685	20.283	1276.108	1178.252
844.699	20.000	1273.940	1174.178
845.714	19.769	1272.238	1170.900
846.728	19.784	1271.327	1170.019
847.743	19.727	1269.944	1168.218
848.758	19.590	1268.735	1166.037
849.772	19.422	1267.885	1163.978
850.787	19.410	1266.267	1162.274
851.801	19.345	1265.340	1160.846
852.816	19.365	1263.759	1159.388
853.831	19.464	1262.298	1158.577
854.845	19.452	1260.734	1156.924
855.860	19.405	1258.580	1154.492
856.874	19.502	1257.451	1153.970
857.889	19.596	1257.280	1154.303
858.904	19.781	1256.324	1154.530
859.918	19.980	1255.169	1154.664
860.933	20.078	1254.209	1154.304
861.947	19.912	1252.844	1151.799
862.962	19.725	1251.322	1149.011
863.977	19.528	1249.905	1146.253
864.991	19.434	1249.053	1144.709
866.006	19.460	1248.760	1144.477
867.020	19.415	1247.489	1142.877
868.035	19.327	1246.020	1140.809
869.049	19.419	1245.678	1140.974
870.064	19.371	1245.176	1140.057
871.079	19.501	1244.507	1140.172
872.093	19.570	1243.515	1139.582
873.108	19.766	1242.618	1139.921
874.122	19.796	1241.606	1139.057
875.137	19.972	1241.311	1139.814
876.152	19.919	1240.845	1138.896
877.166	19.990	1238.409	1136.999
878.181	19.832	1237.198	1134.708
879.195	19.793	1236.634	1133.796
880.210	19.779	1235.063	1132.129
881.225	19.673	1234.163	1130.469
882.239	19.612	1233.440	1129.269
883.254	19.524	1232.574	1127.769
884.268	19.469	1231.686	1126.461
885.283	19.576	1229.972	1125.457
886.298	19.508	1228.532	1123.557
887.312	19.575	1227.564	1122.975
888.327	19.804	1226.196	1123.088
889.341	19.641	1225.090	1120.875
890.356	19.451	1225.158	1119.563
891.371	19.495	1225.133	1119.694
892.385	19.409	1224.308	1118.248
893.400	19.479	1223.209	1117.562
894.414	19.555	1222.029	1116.846
895.429	19.590	1220.757	1115.779
896.444	20.042	1220.025	1117.910
897.458	20.325	1218.622	1118.321
898.473	20.146	1217.347	1115.858
899.487	19.905	1216.064	1112.995
900.502	19.850	1214.736	1111.289
901.517	19.730	1213.447	1109.202
902.531	19.596	1212.996	1107.794
903.546	19.633	1212.170	1107.143
904.560	19.597	1211.505	1106.176
905.575	19.713	1210.790	1106.133
906.589	19.761	1209.917	1105.517
907.604	19.851	1209.101	1105.213
