DTS Sentinel unit serial number:	SN409020Multiplexer serial number:	ORYXHardware model number:	OX4-SRSoftware version number:	ORYX F/W v3.00 Oryx Data Collector v3.7.2.0data status	okinstallation	HaddamTimeLapsedifferential loss correction	single-endedforward channel	channel 3reverse channel	N/Adate	2011/06/21time	16:36:17forward acquisition time	30.00reverse acquisition time	0.00gamma	498.7831k internal	0.1785k external	0.1785temperature offset calibration	1.0074default loss term (dB/km)	0.3790temperature slope calibration	1.3530multiplexer offset coefficient	1.0000multiplexer slope coefficient	1.0000fibre end	0.00T internal ref (°C)	32.81T ext. ref 1 (°C)	26.90T ext. ref 2 (°C)	0.22length (m)	temperature (°C)	Stokes	anti-Stokes-747.200	-16.236	0.134	-0.110
-746.185	233.826	0.143	0.309
-745.171	-130.867	0.327	-0.057
-744.156	-119.619	0.078	-0.017
-743.142	-129.872	0.307	-0.054
-742.127	712.325	-0.100	0.348
-741.112	19.653	0.093	-0.097
-740.098	-132.806	0.189	0.031
-739.083	-190.655	0.263	0.004
-738.069	158.198	-0.145	0.263
-737.054	800.000	-0.068	-0.278
-736.039	-116.755	-0.282	-0.067
-735.025	82.696	-0.125	-0.177
-734.010	-70.054	0.349	0.172
-732.996	-200.000	-0.012	-0.172
-731.981	83.253	0.097	0.138
-730.966	41.154	-0.469	-0.552
-729.952	-200.000	-0.045	-0.762
-728.937	576.112	-0.133	0.426
-727.923	800.000	0.161	0.752
-726.908	-161.505	-0.366	0.024
-725.894	46.323	-0.439	0.530
-724.879	29.070	0.058	-0.065
-723.864	-105.856	0.501	-0.146
-722.850	-149.152	0.297	0.031
-721.835	-200.000	-0.043	-0.273
-720.821	28.552	-0.154	-0.169
-719.806	1.381	-0.131	0.122
-718.791	335.031	0.119	-0.302
-717.777	88.719	0.310	-0.450
-716.762	-200.000	-0.021	0.215
-715.748	-70.518	-0.363	-0.178
-714.733	-37.061	0.339	-0.236
-713.718	-110.722	-0.367	-0.098
-712.704	-117.926	-0.480	0.111
-711.689	-45.144	0.517	-0.333
-710.675	138.449	-0.142	-0.244
-709.660	-141.768	-0.146	-0.019
-708.645	71.435	-0.178	0.241
-707.631	-128.584	-0.340	0.062
-706.616	-68.781	-0.475	-0.238
-705.602	193.646	0.173	-0.342
-704.587	-9.922	-0.098	-0.085
-703.572	241.062	-0.195	-0.425
-702.558	800.000	-0.008	-0.044
-701.543	131.724	0.158	0.266
-700.529	434.970	0.166	0.472
-699.514	92.325	0.116	0.170
-698.499	800.000	-0.044	-0.242
-697.485	2.501	-0.193	-0.182
-696.470	-200.000	0.011	0.319
-695.456	64.649	-0.197	-0.259
-694.441	-131.921	-0.660	-0.111
-693.426	-168.923	0.289	0.014
-692.412	-200.000	-0.017	-0.206
-691.397	-4.490	0.269	-0.241
-690.383	38.650	0.258	0.300
-689.368	-86.974	-0.187	0.074
-688.354	-17.600	-0.251	0.205
-687.339	160.087	0.167	0.303
-686.324	96.487	0.075	-0.111
-685.310	341.130	-0.075	-0.192
-684.295	560.625	-0.220	-0.693
-683.281	373.244	-0.119	-0.317
-682.266	16.850	-0.198	-0.204
-681.251	-176.310	-0.293	0.010
-680.237	-146.209	-0.248	-0.028
-679.222	-24.523	-0.506	0.391
-678.208	-27.839	-0.244	0.184
-677.193	-127.595	-0.627	-0.117
-676.178	-91.785	0.184	0.068
-675.164	-88.252	0.177	0.069
-674.149	-200.000	0.034	-0.335
-673.135	297.010	-0.088	-0.210
-672.120	-51.210	0.121	-0.074
-671.105	-102.971	0.045	0.014
-670.091	202.865	-0.081	-0.162
-669.076	25.604	-0.233	-0.252
-668.062	77.189	0.313	0.433
-667.047	133.123	-0.079	-0.133
-666.032	49.382	-0.351	-0.429
-665.018	-200.000	-0.036	-0.266
-664.003	-5.952	0.655	0.581
-662.989	-138.051	-0.434	-0.062
-661.974	-98.475	-0.521	-0.172
-660.959	-50.029	0.269	0.165
-659.945	-103.419	0.336	0.102
-658.930	-121.092	0.415	0.090
-657.916	-200.000	0.023	-0.464
-656.901	133.011	0.310	-0.521
-655.886	-26.349	0.125	0.095
-654.872	663.503	0.134	0.450
-653.857	-200.000	0.017	0.330
-652.843	-39.231	-0.277	-0.189
-651.828	39.144	0.394	-0.457
-650.814	-200.000	0.031	0.240
-649.799	651.609	-0.093	0.310
-648.784	40.583	-0.160	0.187
-647.770	-130.656	0.298	-0.052
-646.755	-174.518	0.141	0.005
-645.741	-23.871	-0.411	-0.318
-644.726	284.770	-0.215	-0.505
-643.711	-24.708	0.211	-0.162
-642.697	331.072	0.249	0.626
-641.682	-161.129	0.271	0.018
-640.668	-38.375	0.362	-0.248
-639.653	83.532	0.113	0.160
-638.638	-135.631	-0.305	0.046
-637.624	-88.864	-0.631	-0.242
-636.609	-142.554	-0.281	-0.035
-635.595	439.869	0.191	0.543
-634.580	9.750	0.338	-0.332
-633.565	-97.049	0.337	-0.114
-632.551	-41.704	0.570	-0.379
-631.536	138.302	-0.180	0.306
-630.522	-62.367	-0.463	0.249
-629.507	-87.270	0.103	-0.040
-628.492	-93.674	0.140	0.050
-627.478	227.572	-0.134	0.284
-626.463	158.024	-0.125	0.225
-625.449	325.733	-0.069	-0.171
-624.434	601.880	0.108	-0.349
-623.419	-5.273	-0.116	0.103
-622.405	800.000	-0.126	0.564
-621.390	-200.000	0.021	0.308
-620.376	-131.515	0.066	0.011
-619.361	113.088	-0.310	0.488
-618.346	-18.697	-0.299	-0.241
-617.332	33.187	-0.076	-0.085
-616.317	204.111	-0.123	-0.248
-615.303	800.000	0.052	0.224
-614.288	-16.536	0.508	-0.416
-613.273	-134.306	0.232	0.037
-612.259	12.344	-0.206	-0.206
-611.244	320.416	0.074	-0.183
-610.230	-56.280	-0.211	-0.121
-609.215	-68.617	0.393	0.197
-608.201	-136.943	-0.163	-0.024
-607.186	280.586	0.111	0.259
-606.171	1.414	0.198	0.184
-605.157	355.473	-0.214	0.553
-604.142	-39.932	-0.322	-0.217
-603.128	-49.336	-0.182	-0.112
-602.113	342.885	-0.043	0.109
-601.098	-183.585	0.386	-0.008
-600.084	112.932	0.141	-0.222
-599.069	6.642	0.232	0.224
-598.055	73.519	0.136	-0.184
-597.040	800.000	-0.027	-0.119
-596.025	-16.684	-0.327	-0.268
-595.011	649.226	-0.110	0.366
-593.996	-200.000	0.010	-0.198
-592.982	388.705	-0.199	-0.537
-591.967	-122.723	-0.247	0.051
-590.952	-56.689	-0.259	-0.148
-589.938	-159.084	-0.176	0.013
-588.923	-65.628	-0.198	0.102
-587.909	-80.979	-0.440	-0.188
-586.894	94.022	0.116	0.171
-585.879	-177.876	0.212	0.006
-584.865	-175.253	0.206	0.007
-583.850	-70.853	-0.103	0.050
-582.836	295.414	0.198	0.472
-581.821	-130.126	-0.217	-0.038
-580.806	116.437	0.187	-0.298
-579.792	-87.691	0.343	-0.133
-578.777	-200.000	-0.005	0.054
-577.763	-134.013	0.181	0.029
-576.748	-65.193	0.207	0.107
-575.733	-33.306	0.117	-0.084
-574.719	21.508	-0.190	-0.199
-573.704	-46.884	-0.095	0.060
-572.690	-115.309	0.291	-0.071
-571.675	-84.019	-0.585	-0.239
-570.661	540.971	0.140	-0.432
-569.646	85.599	-0.175	0.250
-568.631	-94.877	-0.522	-0.182
-567.617	387.587	0.190	0.510
-566.602	-6.245	0.054	0.047
-565.588	443.227	-0.128	0.364
-564.573	91.662	-0.229	-0.334
-563.558	-110.787	-0.469	-0.124
-562.544	-38.883	0.281	0.191
-561.529	800.000	-0.096	0.364
-560.515	6.784	0.187	-0.180
-559.500	-7.992	0.175	0.153
-558.485	18.378	-0.260	0.269
-557.471	-161.883	-0.280	-0.018
-556.456	-27.377	0.453	0.340
-555.442	-111.566	-0.299	0.078
-554.427	304.920	0.208	-0.501
-553.412	-3.111	0.161	-0.145
-552.398	-56.950	-0.067	0.038
-551.383	-64.239	0.322	0.169
-550.369	-3.426	-0.276	0.248
-549.354	-200.000	-0.010	0.163
-548.339	-177.640	-0.309	0.010
-547.325	727.238	-0.019	0.066
-546.310	23.378	0.244	0.259
-545.296	-68.731	-0.257	-0.128
-544.281	-134.278	-0.090	0.014
-543.266	18.357	-0.089	0.092
-542.252	-60.852	0.322	-0.176
-541.237	-165.635	0.305	0.017
-540.223	-41.587	0.270	-0.179
-539.208	-72.703	-0.633	-0.300
-538.193	-122.453	-0.613	0.128
-537.179	124.079	0.241	-0.393
-536.164	58.641	-0.459	-0.583
-535.150	-21.328	0.291	-0.229
-534.135	30.770	-0.167	0.185
-533.121	-135.253	0.352	0.054
-532.106	14.269	0.375	0.378
-531.091	-36.835	0.369	0.255
-530.077	-78.341	0.280	-0.123
-529.062	-25.287	0.405	0.309
-528.048	-200.000	-0.016	0.184
-527.033	298.266	-0.194	-0.462
-526.018	352.773	0.102	-0.263
-525.004	588.468	-0.091	-0.290
-523.989	149.967	0.204	-0.358
-522.975	-200.000	0.031	0.293
-521.960	-20.709	0.253	-0.200
-520.945	-80.967	-0.320	-0.136
-519.931	-31.242	-0.151	-0.109
-518.916	77.786	-0.015	0.021
-517.902	-90.558	0.230	0.085
-516.887	141.402	0.252	0.432
-515.872	153.404	-0.068	-0.121
-514.858	-0.909	-0.293	-0.268
-513.843	-200.000	-0.013	-0.439
-512.829	-174.496	0.119	0.004
-511.814	187.065	0.215	-0.415
-510.799	-125.068	-0.078	-0.015
-509.785	-92.182	0.509	0.185
-508.770	-192.005	-0.334	-0.004
-507.756	27.735	-0.079	0.086
-506.741	81.063	-0.314	0.438
-505.726	-74.870	-0.518	-0.239
-504.712	16.717	0.037	-0.038
-503.697	0.777	0.163	-0.151
-502.683	72.759	-0.110	-0.148
-501.668	-153.417	0.438	-0.039
-500.653	-26.650	0.386	-0.291
-499.639	-36.014	0.154	-0.107
-498.624	-133.189	-0.024	0.004
-497.610	-56.739	-0.757	0.430
-496.595	291.847	-0.038	0.089
-495.581	-43.046	-0.066	-0.043
-494.566	-140.738	0.132	-0.017
-493.551	800.000	-0.035	-0.148
-492.537	51.353	-0.072	0.089
-491.522	-158.222	0.811	0.060
-490.508	800.000	-0.034	-0.171
-489.493	357.345	0.126	0.325
-488.478	-75.222	0.302	0.138
-487.464	68.956	-0.129	0.171
-486.449	-40.967	0.227	0.151
-485.435	6.361	0.072	-0.069
-484.420	-112.626	-0.655	0.167
-483.405	-200.000	-0.030	0.638
-482.391	800.000	-0.129	0.468
-481.376	-108.104	-0.346	0.096
-480.362	-6.764	-0.029	0.025
-479.347	-123.902	-0.558	0.112
-478.332	-110.128	0.281	0.075
-477.318	-81.229	0.566	0.240
-476.303	800.000	0.017	-0.061
-475.289	157.812	-0.160	0.286
-474.274	-59.709	-0.322	-0.177
-473.259	17.307	0.446	-0.456
-472.245	112.259	0.150	-0.234
-471.230	-175.575	0.392	0.013
-470.216	-121.023	0.549	-0.118
-469.201	-132.540	0.669	0.110
-468.186	800.000	0.040	-0.199
-467.172	-125.627	-0.522	-0.101
-466.157	-0.684	0.268	-0.244
-465.143	303.713	0.224	-0.537
-464.128	81.991	-0.378	0.529
-463.113	-152.872	0.449	0.040
-462.099	171.041	-0.237	0.440
-461.084	-200.000	-0.716	-0.003
-460.070	800.000	0.064	-0.239
-459.055	231.536	-0.049	-0.104
-458.040	-53.204	0.291	-0.172
-457.026	-200.000	0.035	0.271
-456.011	-30.792	0.232	0.168
-454.997	622.142	0.126	0.412
-453.982	-98.081	0.350	-0.115
-452.968	205.456	-0.087	0.175
-451.953	-0.031	0.377	0.345
-450.938	8.827	-0.146	0.142
-449.924	-190.832	0.622	0.008
-448.909	254.548	-0.114	0.251
-447.895	-200.000	0.018	-0.111
-446.880	-63.944	0.341	0.179
-445.865	-45.490	-0.332	-0.211
-444.851	-200.000	-0.040	-0.242
-443.836	-200.000	0.016	-0.154
-442.822	118.908	-0.199	-0.317
-441.807	-21.001	-0.221	-0.174
-440.792	49.755	0.089	0.108
-439.778	124.584	0.106	0.172
-438.763	281.492	0.155	0.359
-437.749	-138.580	-0.658	0.092
-436.734	-91.441	-0.183	0.067
-435.719	-94.863	0.249	0.086
-434.705	-48.748	0.139	-0.085
-433.690	-34.801	-0.110	0.077
-432.676	204.431	-0.369	-0.739
-431.661	29.089	-0.375	0.409
-430.646	800.000	-0.087	0.422
-429.632	93.175	0.322	0.469
-428.617	346.310	-0.114	0.290
-427.603	-117.425	0.185	0.043
-426.588	59.112	0.260	0.329
-425.573	-149.249	-0.552	0.056
-424.559	-1.458	-0.379	-0.344
-423.544	-94.082	-0.324	-0.114
-422.530	-13.744	-0.141	-0.117
-421.515	-200.000	0.018	0.203
-420.500	-163.893	0.698	0.041
-419.486	-48.004	-0.356	0.221
-418.471	-90.676	-0.465	-0.172
-417.457	-167.212	-0.491	-0.025
-416.442	515.539	-0.067	0.203
-415.428	-33.250	0.113	-0.081
-414.413	55.414	-0.231	0.288
-413.398	-52.596	-0.377	0.224
-412.384	-53.742	-0.255	-0.149
-411.369	-200.000	-0.045	-0.280
-410.355	-55.306	-0.248	0.143
-409.340	-148.083	0.422	-0.044
-408.325	-102.337	0.477	-0.146
-407.311	-102.052	-0.105	-0.032
-406.296	544.280	0.161	-0.497
-405.282	-93.440	0.176	0.062
-404.267	-103.544	-0.279	-0.084
-403.252	6.368	-0.439	-0.419
-402.238	-200.000	0.015	0.423
-401.223	-170.727	-0.195	-0.009
-400.209	-65.130	-0.323	-0.167
-399.194	149.083	0.155	-0.270
-398.179	-139.372	-0.433	-0.059
-397.165	-133.297	-0.339	-0.054
-396.150	55.021	-0.180	-0.223
-395.136	-134.442	0.196	-0.031
-394.121	-134.717	-0.168	-0.026
-393.106	800.000	0.146	0.545
-392.092	3.214	-0.349	-0.326
-391.077	-200.000	-0.031	0.223
-390.063	-109.037	0.211	-0.057
-389.048	-61.033	0.601	0.325
-388.033	647.858	0.058	-0.193
-387.019	-67.440	0.277	0.139
-386.004	-72.205	0.218	0.103
-384.990	-51.295	-0.173	-0.104
-383.975	-134.517	0.868	0.135
-382.960	800.000	-0.056	-0.218
-381.946	24.139	0.445	-0.472
-380.931	736.868	-0.069	0.238
-379.917	28.079	-0.152	-0.165
-378.902	-93.896	-0.668	0.235
-377.888	103.243	-0.216	0.326
-376.873	-44.760	0.446	0.285
-375.858	-200.000	-0.014	0.167
-374.844	-93.143	0.107	0.038
-373.829	-70.242	0.366	0.178
-372.815	-0.594	-0.208	-0.189
-371.800	61.219	0.079	-0.101
-370.785	-123.502	-0.098	0.020
-369.771	6.915	-0.451	-0.431
-368.756	576.403	0.055	-0.174
-367.742	-15.087	-0.239	-0.196
-366.727	800.000	-0.137	-0.554
-365.712	-160.568	-0.031	0.002
-364.698	593.276	0.046	0.147
-363.683	-36.124	-0.571	0.395
-362.669	485.012	0.074	0.218
-361.654	800.000	-0.032	-0.149
-360.639	71.352	0.274	-0.365
-359.625	196.738	0.115	0.226
-358.610	-73.576	-0.177	0.083
-357.596	-20.365	-0.076	0.060
-356.581	149.877	-0.186	0.324
-355.566	-6.858	-0.145	0.126
-354.552	-200.000	0.018	0.396
-353.537	-200.000	-0.277	-0.001
-352.523	-27.130	0.415	0.310
-351.508	149.623	0.110	0.192
-350.493	125.691	-0.141	-0.229
-349.479	800.000	-0.117	-0.440
-348.464	-200.000	-0.004	0.211
-347.450	66.904	0.088	0.115
-346.435	800.000	-0.045	0.246
-345.420	-64.266	0.359	-0.187
-344.406	-173.046	0.739	0.029
-343.391	-114.342	-0.142	0.035
-342.377	-93.348	0.305	-0.108
-341.362	-113.487	0.179	-0.045
-340.348	-92.456	0.092	-0.033
-339.333	800.000	-0.117	-0.615
-338.318	105.447	0.169	-0.256
-337.304	-95.624	-0.155	0.053
-336.289	-115.353	-0.507	0.122
-335.275	-73.102	-0.286	-0.134
-334.260	76.054	-0.267	-0.362
-333.245	13.389	0.366	-0.363
-332.231	-107.426	-0.427	-0.119
-331.216	-58.181	-0.293	-0.163
-330.202	-153.733	-0.327	-0.028
-329.187	-126.002	-0.226	-0.043
-328.172	-24.461	0.277	0.211
-327.158	-200.000	-0.038	-0.368
-326.143	161.235	0.039	-0.070
-325.129	-129.053	-0.019	-0.003
-324.114	110.263	0.184	0.284
-323.099	244.381	-0.068	-0.148
-322.085	285.314	-0.076	0.176
-321.070	726.862	-0.060	0.207
-320.056	607.909	-0.062	-0.200
-319.041	800.000	0.015	0.057
-318.026	40.055	0.124	0.143
-317.012	800.000	-0.079	0.324
-315.997	-17.294	0.303	0.244
-314.983	447.312	0.174	0.494
-313.968	800.000	0.061	0.302
-312.953	104.756	0.277	0.419
-311.939	504.035	-0.028	0.084
-310.924	-20.681	0.722	-0.566
-309.910	-69.194	-0.365	-0.179
-308.895	-88.065	-0.483	-0.185
-307.880	-3.123	-0.336	-0.300
-306.866	-200.000	0.083	-0.485
-305.851	180.920	0.015	-0.029
-304.837	-103.581	0.392	0.117
-303.822	20.583	-0.073	-0.075
-302.807	133.122	0.171	0.284
-301.793	-200.000	0.016	0.167
-300.778	13.548	-0.128	0.127
-299.764	-117.165	0.331	0.076
-298.749	800.000	0.045	0.233
-297.735	107.035	-0.069	-0.105
-296.720	11.957	-0.249	-0.244
-295.705	800.000	-0.103	-0.565
-294.691	-109.555	0.481	0.129
-293.676	800.000	0.063	0.232
-292.662	789.022	-0.046	-0.161
-291.647	220.637	0.105	0.215
-290.632	800.000	-0.057	0.320
-289.618	-149.122	-0.114	0.012
-288.603	800.000	-0.114	0.412
-287.589	81.996	0.102	-0.142
-286.574	-51.397	-0.403	0.241
-285.559	64.794	0.079	0.102
-284.545	333.989	0.076	0.189
-283.530	-77.505	-0.405	-0.179
-282.516	-200.000	0.081	-0.625
-281.501	-160.220	0.169	0.012
-280.486	-89.689	0.678	0.253
-279.472	2.922	-0.246	-0.229
-278.457	-116.803	-0.607	0.141
-277.443	-79.071	0.375	0.162
-276.428	-200.000	0.017	0.102
-275.413	-95.452	0.178	-0.061
-274.399	-55.079	0.056	-0.032
-273.384	-200.000	0.009	0.067
-272.370	33.707	-0.194	-0.216
-271.355	313.136	0.088	0.212
-270.340	-114.942	0.356	-0.086
-269.326	102.602	0.272	0.408
-268.311	99.409	0.089	0.132
-267.297	-127.520	0.223	0.041
-266.282	-65.535	-0.453	0.232
-265.267	-52.306	0.337	0.199
-264.253	-27.779	-0.077	-0.057
-263.238	800.000	0.140	-0.584
-262.224	33.696	0.242	0.269
-261.209	148.370	-0.187	0.324
-260.195	17.300	-0.153	-0.155
-259.180	31.934	0.131	-0.144
-258.165	-166.174	-0.192	-0.010
-257.151	125.984	-0.187	0.303
-256.136	800.000	0.056	-0.200
-255.122	670.247	-0.087	-0.290
-254.107	-155.178	0.156	0.013
-253.092	-150.836	0.335	-0.032
-252.078	-69.325	-0.355	-0.173
-251.063	76.520	-0.200	-0.271
-250.049	143.455	-0.073	0.125
-249.034	-21.059	-0.224	0.175
-248.019	154.751	-0.197	-0.346
-247.005	129.592	-0.061	-0.099
-245.990	800.000	0.090	-0.406
-244.976	48.783	0.051	0.061
-243.961	40.512	-0.247	-0.284
-242.946	15.497	-0.218	-0.218
-241.932	141.199	0.189	-0.320
-240.917	-200.000	0.021	-0.191
-239.903	-80.903	0.371	0.157
-238.888	36.378	0.471	0.530
-237.873	-153.602	0.530	-0.046
-236.859	-12.597	0.022	0.019
-235.844	98.874	-0.139	0.205
-234.830	-33.961	0.337	-0.236
-233.815	-94.181	0.402	0.140
-232.800	800.000	0.058	0.236
-231.786	-64.784	0.122	0.063
-230.771	67.763	0.186	-0.243
-229.757	-45.817	-0.232	-0.146
-228.742	-142.247	-0.286	-0.036
-227.727	-200.000	-0.013	0.197
-226.713	-200.000	-0.044	0.309
-225.698	-130.876	-0.047	0.008
-224.684	91.883	-0.065	-0.093
-223.669	9.176	-0.404	0.390
-222.655	-44.560	0.044	0.028
-221.640	-54.245	-0.093	-0.054
-220.625	-132.497	0.291	0.047
-219.611	575.802	0.106	0.332
-218.596	-128.767	0.077	0.014
-217.582	-45.014	0.203	-0.129
-216.567	-113.593	0.504	-0.125
-215.552	-28.485	-0.222	0.163
-214.538	-125.131	-0.176	-0.034
-213.523	-108.274	0.585	0.160
-212.509	202.784	-0.156	0.309
-211.494	-200.000	-0.049	-0.599
-210.479	-70.840	0.077	-0.037
-209.465	-90.741	-0.062	-0.023
-208.450	127.245	-0.052	0.084
-207.436	-200.000	0.043	0.533
-206.421	-76.043	0.251	-0.112
-205.406	11.913	-0.259	-0.254
-204.392	800.000	0.059	-0.261
-203.377	800.000	0.101	-0.454
-202.363	-121.194	0.606	0.128
-201.348	-100.354	0.349	0.110
-200.333	9.442	0.233	0.225
-199.319	251.322	0.093	0.203
-198.304	-140.683	0.465	-0.061
-197.290	478.185	-0.154	0.446
-196.275	-110.761	-0.114	0.030
-195.260	274.750	0.183	-0.415
-194.246	-49.910	-0.178	-0.108
-193.231	-121.444	-0.506	-0.106
-192.217	-145.823	-0.108	-0.012
-191.202	659.038	0.094	-0.310
-190.187	-200.000	0.024	-0.588
-189.173	-134.485	0.359	0.055
-188.158	800.000	0.020	0.101
-187.144	64.055	0.068	-0.087
-186.129	-125.810	0.300	0.057
-185.114	62.329	0.227	0.290
-184.100	-145.264	-0.265	-0.030
-183.085	234.449	-0.089	-0.187
-182.071	-59.098	0.281	-0.154
-181.056	99.649	0.281	0.416
-180.042	-86.959	0.194	0.075
-179.027	-185.345	-0.058	0.001
-178.012	-18.659	0.293	-0.232
-176.998	-121.702	-0.248	-0.052
-175.983	-200.000	-0.033	-0.363
-174.969	-200.000	0.026	-0.193
-173.954	-87.824	0.141	-0.054
-172.939	-56.752	0.170	0.095
-171.925	-38.277	-0.448	-0.302
-170.910	190.474	-0.186	-0.357
-169.896	-75.045	-0.139	-0.063
-168.881	20.071	0.025	-0.025
-167.866	-200.000	-0.010	0.366
-166.852	-140.635	0.204	0.027
-165.837	-1.254	0.214	-0.192
-164.823	-200.000	-0.036	-0.355
-163.808	800.000	0.090	0.471
-162.793	34.022	0.370	-0.410
-161.779	-133.347	-0.847	-0.135
-160.764	-200.000	-0.683	-0.002
-159.750	-92.121	-0.294	-0.105
-158.735	-135.096	-0.469	-0.071
-157.720	738.979	0.061	-0.209
-156.706	-105.792	-0.705	0.201
-155.691	-200.000	-0.037	-0.237
-154.677	-11.324	-0.244	0.204
-153.662	-200.000	-0.016	0.215
-152.647	191.759	-0.187	0.359
-151.633	148.170	-0.319	-0.550
-150.618	-103.107	0.348	0.104
-149.604	-200.000	0.028	0.365
-148.589	-108.884	0.320	-0.087
-147.574	-2.715	0.109	-0.097
-146.560	-90.211	0.321	0.118
-145.545	43.080	0.169	-0.196
-144.531	-170.290	-0.509	-0.022
-143.516	-42.889	-0.316	0.204
-142.502	53.559	0.513	-0.626
-141.487	-156.608	0.526	-0.041
-140.472	800.000	0.175	-0.709
-139.458	-76.894	0.378	0.167
-138.443	-200.000	0.050	0.281
-137.429	234.952	-0.188	-0.397
-136.414	8.469	-0.076	0.073
-135.399	-200.000	0.015	0.392
-134.385	246.969	-0.110	0.236
-133.370	800.000	-0.208	0.798
-132.356	-1.543	0.331	-0.296
-131.341	175.124	0.125	-0.230
-130.326	292.005	0.107	-0.248
-129.312	-19.380	-0.031	-0.024
-128.297	-4.628	-0.262	0.229
-127.283	248.139	-0.217	0.469
-126.268	450.848	0.186	0.526
-125.253	-1.880	0.191	-0.171
-124.239	-200.000	-0.061	-0.362
-123.224	178.362	0.230	-0.429
-122.210	800.000	0.066	-0.249
-121.195	-100.835	0.102	-0.032
-120.180	257.295	-0.211	0.464
-119.166	-200.000	0.025	0.368
-118.151	118.491	0.091	0.144
-117.137	253.392	0.090	0.197
-116.122	-73.566	0.085	0.039
-115.107	17.955	0.232	-0.234
-114.093	-107.038	0.670	-0.187
-113.078	30.059	-0.201	-0.218
-112.064	351.585	-0.089	-0.225
-111.049	-104.665	-0.266	0.077
-110.034	-130.181	-0.467	-0.080
-109.020	-105.995	-0.575	-0.164
-108.005	468.994	-0.225	-0.644
-106.991	-200.000	0.032	-0.357
-105.976	-120.510	0.473	0.101
-104.962	-200.000	-0.001	0.375
-103.947	-125.974	0.647	-0.123
-102.932	-112.094	0.065	-0.017
-101.918	-200.000	-0.028	0.358
-100.903	315.630	-0.203	0.488
-99.889	-200.000	-0.007	-0.182
-98.874	36.460	-0.324	-0.363
-97.859	-121.873	-0.622	-0.129
-96.845	-10.685	-0.110	0.093
-95.830	69.650	-0.341	0.447
-94.816	415.055	0.063	0.171
-93.801	-39.390	-0.206	-0.137
-92.786	-77.501	0.166	-0.073
-91.772	-113.722	-0.594	0.146
-90.757	-91.578	0.148	0.053
-89.743	14.873	0.082	0.081
-88.728	-139.118	0.171	0.023
-87.713	345.773	0.134	-0.337
-86.699	386.616	-0.196	-0.517
-85.684	-191.475	0.379	0.005
-84.670	-127.133	0.145	-0.027
-83.655	180.464	-0.134	0.250
-82.640	-138.641	0.242	0.033
-81.626	500.988	0.029	0.086
-80.611	-153.906	0.428	0.037
-79.597	-84.083	0.078	0.031
-78.582	-114.467	0.356	-0.086
-77.567	412.100	0.028	0.075
-76.553	-110.189	0.321	-0.084
-75.538	429.687	0.075	0.208
-74.524	117.929	0.203	-0.318
-73.509	737.695	0.187	-0.641
-72.494	326.839	0.141	-0.344
-71.480	411.445	0.051	0.139
-70.465	-105.147	0.328	-0.094
-69.451	-80.271	-0.565	-0.239
-68.436	186.249	-0.178	-0.336
-67.422	4.953	-0.322	0.300
-66.407	52.516	0.327	0.396
-65.392	37.364	0.142	0.160
-64.378	19.917	-0.169	-0.173
-63.363	-116.106	0.310	0.073
-62.349	275.925	-0.153	0.347
-61.334	13.806	-1.413	-1.393
-60.319	116.697	0.483	0.753
-59.305	268.757	-2.931	-6.544
-58.290	-16.082	3.539	2.850
-57.276	396.868	3.879	10.327
-56.261	-200.000	16.186	249.342
-55.246	414.167	1221.606	3313.562
-54.232	56.987	2850.540	3526.068
-53.217	60.690	2726.405	3429.372
-52.203	38.777	2454.626	2779.779
-51.188	38.927	2106.393	2387.150
-50.173	35.050	1979.756	2198.887
-49.159	33.635	1967.801	2169.278
-48.144	33.112	1963.877	2158.854
-47.130	33.164	1961.336	2156.578
-46.115	33.177	1959.462	2154.576
-45.100	33.246	1958.024	2153.695
-44.086	33.089	1956.259	2149.880
-43.071	32.980	1955.767	2148.009
-42.057	32.997	1953.715	2145.862
-41.042	33.033	1952.145	2144.461
-40.027	33.116	1950.529	2143.554
-39.013	33.008	1948.910	2140.457
-37.998	33.003	1947.434	2138.691
-36.984	32.954	1946.413	2136.925
-35.969	32.985	1945.132	2135.786
-34.954	32.854	1944.393	2133.410
-33.940	32.954	1943.030	2132.958
-32.925	32.922	1942.130	2131.527
-31.911	33.004	1939.659	2129.656
-30.896	32.981	1938.931	2128.511
-29.881	32.980	1937.740	2127.108
-28.867	32.982	1935.768	2124.886
-27.852	32.914	1934.510	2122.644
-26.838	32.925	1932.921	2120.945
-25.823	32.809	1932.466	2119.049
-24.809	32.884	1930.574	2117.736
-23.794	32.764	1929.720	2115.363
-22.779	32.785	1928.198	2113.851
-21.765	32.952	1926.482	2113.762
-20.750	32.768	1926.003	2111.082
-19.736	32.738	1924.229	2108.721
-18.721	32.759	1923.898	2108.509
-17.706	32.740	1921.969	2106.096
-16.692	32.723	1920.173	2103.859
-15.677	32.673	1920.342	2103.396
-14.663	32.705	1918.998	2102.196
-13.648	32.666	1917.428	2099.959
-12.633	32.764	1915.370	2098.718
-11.619	32.711	1914.854	2097.480
-10.604	32.603	1913.571	2094.786
-9.590	32.684	1912.275	2094.181
-8.575	32.717	1911.120	2093.209
-7.560	32.730	1909.428	2091.408
-6.546	32.637	1908.613	2089.406
-5.531	32.564	1907.366	2087.145
-4.517	32.685	1905.783	2086.673
-3.502	32.715	1904.022	2084.997
-2.487	32.711	1903.565	2084.368
-1.473	32.763	1900.082	2081.047
-0.458	32.398	1879.752	2054.697
0.556	28.557	2017.697	2147.481
1.571	26.807	2231.798	2352.272
2.586	28.077	2275.894	2415.343
3.600	28.103	2279.132	2418.834
4.615	28.002	2279.113	2417.182
5.629	28.120	2275.965	2415.116
6.644	28.044	2274.708	2412.481
7.659	28.055	2272.598	2410.102
8.673	28.044	2270.772	2407.734
9.688	27.748	2276.820	2409.927
10.702	25.936	2353.267	2465.663
11.717	23.386	2418.992	2498.133
12.731	11.797	2388.678	2303.447
13.746	1.834	2360.678	2136.300
14.761	0.379	2356.879	2112.128
15.775	0.201	2355.368	2108.009
16.790	0.197	2353.470	2106.013
17.804	0.169	2352.088	2104.120
18.819	0.229	2350.487	2103.290
19.834	0.165	2348.885	2100.705
20.848	0.140	2346.978	2098.392
21.863	0.145	2346.765	2098.026
22.877	0.174	2344.506	2096.160
23.892	0.108	2342.354	2093.060
24.907	0.093	2340.075	2090.557
25.921	0.127	2338.535	2089.405
26.936	0.120	2336.362	2087.117
27.950	0.104	2332.923	2083.573
28.965	0.137	2331.615	2082.623
29.980	0.132	2329.926	2080.795
30.994	0.340	2328.493	2082.154
32.009	6.401	2349.576	2185.490
33.023	20.532	2390.920	2423.017
34.038	27.187	2405.615	2531.096
35.053	28.295	2405.350	2546.013
36.067	28.425	2403.546	2545.612
37.082	28.263	2400.402	2539.715
38.096	28.226	2398.532	2536.916
39.111	28.598	2397.510	2540.716
40.126	28.747	2395.816	2540.687
41.140	28.875	2395.135	2541.437
42.155	28.612	2391.274	2533.383
43.169	28.270	2389.294	2526.245
44.184	28.421	2386.249	2524.814
45.199	28.290	2384.525	2520.874
46.213	28.253	2383.270	2518.739
47.228	28.242	2382.330	2517.282
48.242	28.212	2380.603	2514.745
49.257	28.313	2377.937	2513.018
50.271	28.542	2375.573	2513.378
51.286	28.635	2374.256	2512.959
52.301	28.389	2371.723	2506.597
53.315	27.862	2369.701	2496.920
54.330	28.216	2369.689	2501.470
55.344	28.567	2367.663	2503.853
56.359	28.676	2364.030	2501.208
57.374	28.632	2362.236	2498.405
58.388	28.571	2358.207	2493.011
59.403	28.332	2354.810	2485.858
60.417	28.257	2352.418	2482.024
61.432	28.398	2350.441	2481.548
62.447	28.357	2349.194	2479.380
63.461	28.333	2346.484	2475.904
64.476	28.246	2344.372	2472.197
65.490	28.499	2344.049	2474.992
66.505	28.600	2343.597	2475.591
67.520	28.333	2340.748	2468.658
68.534	27.619	2338.029	2455.834
69.549	27.788	2333.906	2453.503
70.563	27.830	2331.876	2451.635
71.578	27.889	2330.390	2450.576
72.593	28.075	2328.605	2450.915
73.607	28.432	2326.768	2453.484
74.622	28.389	2325.255	2451.016
75.636	28.098	2321.807	2443.192
76.651	28.148	2319.840	2441.498
77.666	28.272	2317.874	2440.801
78.680	28.114	2316.169	2436.599
79.695	28.150	2314.948	2435.505
80.709	28.094	2313.711	2433.151
81.724	28.191	2311.820	2432.171
82.739	28.287	2308.353	2429.514
83.753	28.314	2307.081	2428.242
84.768	28.244	2305.337	2425.181
85.782	28.178	2303.763	2422.363
86.797	28.114	2302.597	2420.001
87.812	27.965	2299.632	2414.612
88.826	27.836	2297.908	2410.798
89.841	27.944	2295.915	2409.856
90.855	28.241	2293.345	2410.793
91.870	27.981	2291.152	2404.766
92.884	28.008	2289.176	2402.758
93.899	28.087	2289.207	2403.547
94.914	27.973	2288.227	2400.722
95.928	27.664	2287.000	2395.077
96.943	27.692	2284.205	2392.226
97.957	27.705	2283.167	2391.029
98.972	27.968	2280.008	2390.893
99.987	27.835	2276.092	2384.758
101.001	27.822	2273.911	2382.017
102.016	27.828	2272.458	2380.283
103.030	27.894	2270.544	2378.853
104.045	28.131	2268.383	2379.404
105.060	28.348	2266.678	2380.174
106.074	28.322	2264.489	2377.248
107.089	28.112	2262.905	2372.557
108.103	28.050	2261.318	2369.800
109.118	28.249	2259.479	2370.188
110.133	28.164	2258.660	2367.943
111.147	28.131	2256.837	2365.308
112.162	28.174	2254.462	2363.099
113.176	28.221	2251.192	2359.997
114.191	28.005	2251.013	2356.727
115.206	28.004	2248.758	2354.077
116.220	28.102	2246.599	2352.801
117.235	28.093	2243.523	2349.184
118.249	28.046	2242.536	2347.260
119.264	28.186	2241.732	2347.941
120.279	28.085	2240.351	2344.915
121.293	28.137	2237.958	2342.796
122.308	27.959	2236.030	2338.210
123.322	27.960	2234.846	2336.704
124.337	27.694	2232.329	2330.377
125.352	27.891	2233.720	2334.082
126.366	28.133	2232.712	2335.850
127.381	27.913	2228.614	2328.471
128.395	28.020	2225.146	2325.939
129.410	28.208	2224.104	2326.967
130.424	28.178	2222.733	2324.877
131.439	28.053	2220.899	2321.087
132.454	27.968	2219.440	2318.193
133.468	28.196	2216.185	2317.416
134.483	28.293	2214.794	2316.923
135.497	28.284	2213.293	2314.957
136.512	28.477	2210.764	2314.482
137.527	28.229	2209.771	2310.028
138.541	28.107	2209.073	2307.477
139.556	27.953	2207.333	2303.429
140.570	27.943	2205.436	2301.047
141.585	27.991	2203.317	2299.165
142.600	28.110	2202.472	2299.520
143.614	28.065	2200.031	2296.118
144.629	28.231	2199.043	2296.910
145.643	28.128	2197.636	2293.873
146.658	28.157	2195.659	2291.901
147.673	28.059	2192.056	2286.628
148.687	28.048	2192.124	2286.282
149.702	28.120	2190.329	2285.042
150.716	28.110	2189.664	2283.950
151.731	28.202	2188.493	2283.604
152.746	28.291	2187.987	2283.920
153.760	27.859	2186.614	2276.800
154.775	27.804	2185.015	2274.181
155.789	27.779	2183.597	2272.121
156.804	27.759	2179.609	2267.447
157.819	27.716	2176.787	2263.700
158.833	27.781	2174.388	2261.751
159.848	28.209	2173.080	2265.442
160.862	28.430	2172.101	2266.904
161.877	28.443	2170.729	2265.356
162.892	28.593	2171.009	2267.245
163.906	28.786	2170.155	2268.473
164.921	28.834	2168.310	2266.871
165.935	28.682	2164.859	2261.103
166.950	28.589	2162.741	2257.480
167.964	28.338	2160.607	2251.873
168.979	28.154	2158.882	2247.541
169.994	28.230	2157.542	2246.814
171.008	28.243	2155.725	2244.812
172.023	28.085	2154.477	2241.294
173.037	28.300	2153.895	2243.065
174.052	28.233	2152.284	2240.298
175.067	28.144	2149.932	2236.491
176.081	28.204	2148.074	2235.025
177.096	28.179	2147.200	2233.545
178.110	28.117	2144.763	2229.982
179.125	28.135	2143.784	2228.911
180.140	28.241	2142.965	2229.094
181.154	28.352	2141.155	2228.296
182.169	28.143	2139.289	2223.541
183.183	28.015	2137.953	2220.328
184.198	28.187	2137.044	2221.216
185.213	27.995	2135.891	2217.402
186.227	28.005	2133.323	2214.601
187.242	27.971	2131.303	2211.816
188.256	27.830	2130.053	2208.548
189.271	28.245	2128.711	2211.929
190.286	28.353	2127.114	2211.319
191.300	28.085	2123.473	2204.014
192.315	28.008	2121.628	2200.908
193.329	28.352	2120.770	2203.920
194.344	28.524	2120.910	2205.873
195.359	28.575	2119.946	2205.226
196.373	28.673	2117.727	2203.838
197.388	28.645	2115.266	2200.680
198.402	28.615	2112.475	2197.147
199.417	28.425	2111.121	2193.186
200.432	28.550	2109.667	2192.916
201.446	28.499	2108.132	2190.453
202.461	28.245	2106.396	2185.338
203.475	28.046	2103.868	2180.070
204.490	28.046	2101.498	2177.345
205.504	28.068	2099.174	2174.941
206.519	28.131	2096.980	2173.167
207.534	28.269	2096.232	2173.773
208.548	28.339	2094.040	2172.078
209.563	27.979	2091.684	2165.091
210.577	28.009	2091.236	2164.718
211.592	28.280	2091.079	2167.522
212.607	27.947	2090.225	2162.416
213.621	27.461	2088.921	2155.036
214.636	27.387	2086.444	2151.344
215.650	27.782	2084.741	2154.006
216.665	28.032	2083.908	2155.858
217.680	28.252	2082.731	2156.988
218.694	28.393	2081.767	2157.403
219.709	28.271	2080.029	2153.901
220.723	28.415	2080.082	2155.396
221.738	28.574	2078.036	2154.891
222.753	28.511	2075.447	2151.206
223.767	28.355	2072.622	2146.188
224.782	28.126	2071.866	2142.455
225.796	28.313	2069.338	2141.782
226.811	28.392	2069.047	2142.146
227.826	28.705	2067.301	2143.762
228.840	28.624	2065.164	2140.344
229.855	28.535	2063.491	2137.304
230.869	28.299	2061.640	2132.367
231.884	27.953	2059.731	2126.100
232.899	28.150	2059.387	2127.792
233.913	28.209	2058.974	2127.797
234.928	28.384	2057.953	2128.528
235.942	28.330	2056.185	2125.814
236.957	28.234	2053.479	2121.646
237.972	28.176	2052.392	2119.601
238.986	28.209	2051.571	2118.873
240.001	28.139	2049.427	2115.597
241.015	27.961	2048.158	2111.963
242.030	28.010	2047.309	2111.407
243.045	28.335	2045.843	2113.416
244.059	28.246	2045.274	2111.540
245.074	28.553	2041.296	2110.736
246.088	28.326	2039.666	2106.168
247.103	28.367	2037.415	2104.064
248.117	28.437	2036.080	2103.247
249.132	28.378	2034.656	2100.838
250.147	28.265	2032.488	2097.053
251.161	28.237	2030.380	2094.301
252.176	28.246	2028.763	2092.492
253.190	28.280	2026.181	2089.963
254.205	28.234	2024.212	2087.158
255.220	28.356	2024.133	2088.221
256.234	28.295	2023.424	2086.540
257.249	28.140	2021.632	2082.674
258.263	28.142	2021.258	2082.062
259.278	28.395	2020.224	2083.639
260.293	28.398	2018.721	2081.874
261.307	28.373	2015.782	2078.304
262.322	28.271	2015.214	2076.307
263.336	28.085	2012.661	2071.306
264.351	28.039	2010.755	2068.577
265.366	28.048	2009.712	2067.357
266.380	28.261	2008.411	2068.195
267.395	27.945	2007.306	2063.227
268.409	28.099	2005.757	2063.126
269.424	28.222	2004.430	2062.912
270.439	28.376	2003.797	2063.755
271.453	28.218	2002.181	2060.062
272.468	28.052	1999.831	2055.517
273.482	27.847	1998.430	2051.511
274.497	27.935	1995.419	2049.176
275.512	28.119	1993.201	2048.717
276.526	28.125	1991.271	2046.565
277.541	28.062	1989.006	2043.279
278.555	27.870	1988.465	2040.326
279.570	27.698	1986.230	2035.859
280.585	27.803	1984.036	2034.539
281.599	27.921	1982.908	2034.462
282.614	28.059	1982.584	2035.432
283.628	28.384	1981.916	2038.133
284.643	28.062	1979.000	2031.293
285.657	26.917	1975.489	2014.678
286.672	25.960	1971.066	1999.266
287.687	25.396	1967.649	1989.286
288.701	25.743	1967.602	1992.860
289.716	26.166	1967.904	1997.634
290.730	26.530	1966.251	1999.755
291.745	26.919	1966.926	2004.531
292.760	27.607	1967.959	2012.978
293.774	28.034	1968.217	2017.745
294.789	28.294	1966.245	2018.364
295.803	28.457	1964.311	2017.933
296.818	28.350	1963.929	2016.116
297.833	28.354	1962.536	2014.496
298.847	28.496	1961.076	2014.318
299.862	28.566	1959.493	2013.226
300.876	28.323	1957.864	2008.632
301.891	28.294	1957.256	2007.446
302.906	28.400	1955.666	2006.742
303.920	28.407	1954.389	2005.267
304.935	28.534	1952.227	2004.210
305.949	28.604	1949.603	2002.040
306.964	28.680	1949.003	2002.023
307.979	28.404	1947.165	1996.869
308.993	27.457	1942.636	1981.632
310.008	26.248	1938.601	1964.078
311.022	26.374	1936.629	1963.223
312.037	26.665	1935.053	1964.553
313.052	25.982	1932.007	1953.799
314.066	25.100	1928.600	1940.529
315.081	24.979	1926.769	1937.135
316.095	25.181	1926.033	1938.353
317.110	25.412	1926.608	1941.212
318.125	25.784	1924.773	1943.170
319.139	25.689	1923.136	1940.251
320.154	25.351	1921.484	1934.695
321.168	26.118	1922.457	1943.742
322.183	27.836	1924.788	1964.469
323.197	28.378	1924.974	1970.281
324.212	28.380	1923.004	1968.052
325.227	28.124	1921.438	1963.452
326.241	28.077	1919.361	1960.596
327.256	28.135	1918.712	1960.322
328.270	28.277	1917.350	1960.221
329.285	28.217	1916.747	1958.720
330.300	28.023	1916.373	1956.019
331.314	27.853	1914.413	1951.953
332.329	28.005	1911.682	1950.569
333.343	27.904	1909.857	1947.389
334.358	28.222	1909.517	1950.216
335.373	28.444	1907.404	1950.203
336.387	28.412	1905.938	1948.133
337.402	28.317	1904.252	1945.153
338.416	28.205	1903.190	1942.648
339.431	28.291	1901.770	1941.875
340.446	28.518	1899.796	1942.053
341.460	28.388	1898.031	1938.624
342.475	28.073	1895.011	1931.969
343.489	26.771	1890.353	1913.189
344.504	26.236	1887.872	1904.780
345.519	25.891	1885.111	1898.112
346.533	25.370	1882.679	1889.930
347.548	25.201	1881.124	1886.356
348.562	25.110	1879.891	1883.928
349.577	25.060	1879.460	1882.746
350.592	25.461	1878.317	1885.599
351.606	25.819	1878.562	1889.402
352.621	25.802	1876.692	1887.110
353.635	26.049	1876.067	1888.857
354.650	26.934	1877.922	1899.814
355.665	27.979	1877.845	1910.500
356.679	28.398	1876.923	1913.732
357.694	28.499	1876.378	1914.004
358.708	28.493	1875.843	1913.166
359.723	28.557	1874.686	1912.429
360.738	28.188	1872.904	1906.523
361.752	28.040	1870.487	1902.284
362.767	28.343	1869.229	1903.940
363.781	28.566	1867.458	1904.241
364.796	28.652	1866.430	1903.860
365.810	28.663	1865.017	1902.304
366.825	28.408	1862.004	1896.350
367.840	27.632	1858.939	1884.941
368.854	26.291	1855.067	1866.879
369.869	25.659	1852.096	1857.107
370.883	25.542	1850.415	1853.986
371.898	25.332	1849.064	1850.237
372.913	25.239	1847.296	1847.281
373.927	25.506	1845.556	1848.081
374.942	25.304	1844.555	1844.777
375.956	25.730	1844.727	1849.124
376.971	26.165	1843.505	1852.165
377.986	26.047	1842.012	1849.228
379.000	26.664	1842.201	1855.547
380.015	27.325	1842.328	1862.256
381.029	28.166	1842.208	1870.565
382.044	28.465	1841.495	1872.689
383.059	28.558	1840.181	1872.082
384.073	28.231	1839.167	1867.466
385.088	28.043	1839.120	1865.269
386.102	28.300	1837.732	1866.271
387.117	28.515	1835.563	1866.048
388.132	28.436	1834.762	1864.198
389.146	28.177	1834.221	1860.781
390.161	27.846	1832.304	1855.236
391.175	27.859	1828.491	1851.282
392.190	27.969	1826.110	1849.766
393.205	28.226	1823.976	1850.002
394.219	28.302	1822.891	1849.442
395.234	28.120	1821.600	1846.073
396.248	28.035	1819.653	1843.010
397.263	27.969	1817.477	1839.918
398.278	27.782	1815.332	1835.640
399.292	27.797	1814.064	1834.285
400.307	28.226	1814.058	1838.395
401.321	28.232	1812.221	1836.373
402.336	27.387	1808.853	1824.238
403.350	26.556	1805.807	1812.580
404.365	26.700	1804.662	1812.664
405.380	26.554	1802.010	1808.317
406.394	25.816	1800.054	1798.737
407.409	25.581	1799.225	1795.335
408.423	25.772	1797.882	1795.693
409.438	25.814	1796.223	1794.239
410.453	26.109	1795.417	1796.170
411.467	26.364	1796.266	1799.359
412.482	27.477	1796.619	1810.621
413.496	28.338	1798.172	1820.579
414.511	28.471	1796.922	1820.424
415.526	28.639	1794.079	1818.995
416.540	28.740	1792.015	1817.694
417.555	28.800	1791.378	1817.431
418.569	28.437	1791.191	1813.408
419.584	28.653	1790.920	1815.064
420.599	28.620	1790.967	1814.570
421.613	28.475	1789.586	1811.511
422.628	28.400	1788.433	1809.386
423.642	28.649	1786.318	1809.494
424.657	28.349	1784.145	1804.109
425.672	27.925	1782.588	1798.124
426.686	28.057	1781.236	1797.854
427.701	28.003	1779.914	1795.769
428.715	28.169	1778.153	1795.415
429.730	28.536	1777.235	1797.889
430.745	28.724	1776.117	1798.396
431.759	28.457	1775.164	1794.585
432.774	27.854	1772.689	1785.939
433.788	26.498	1769.335	1769.031
434.803	25.782	1766.841	1759.305
435.818	25.635	1766.168	1756.972
436.832	25.527	1765.676	1755.219
437.847	24.931	1758.474	1742.026
438.861	15.551	1731.240	1624.096
439.876	3.389	1707.841	1484.739
440.890	0.550	1701.590	1451.715
441.905	0.304	1700.587	1448.311
442.920	0.146	1699.899	1446.023
443.934	0.227	1699.053	1445.916
444.949	0.174	1697.939	1444.283
445.963	0.061	1697.235	1442.416
446.978	0.137	1695.661	1441.641
447.993	0.123	1694.121	1440.030
449.007	0.227	1691.600	1438.712
450.022	0.212	1689.679	1436.757
451.036	0.161	1688.969	1435.493
452.051	1.430	1696.047	1453.544
453.066	12.322	1721.289	1580.854
454.080	23.498	1738.388	1704.992
455.095	25.927	1743.797	1733.602
456.109	27.077	1745.084	1745.788
457.124	27.533	1744.350	1749.248
458.139	27.583	1743.313	1748.480
459.153	27.651	1742.389	1748.000
460.168	27.790	1739.640	1746.366
461.182	27.638	1738.628	1743.680
462.197	27.629	1737.157	1741.914
463.212	27.547	1735.701	1739.459
464.226	27.574	1734.599	1738.405
465.241	27.783	1733.399	1738.993
466.255	27.917	1732.328	1738.994
467.270	27.907	1731.173	1737.531
468.285	27.848	1729.951	1735.535
469.299	27.857	1729.399	1734.859
470.314	28.071	1727.359	1734.647
471.328	27.966	1726.233	1732.310
472.343	27.993	1725.359	1731.484
473.358	27.934	1723.473	1728.823
474.372	27.995	1721.944	1727.658
475.387	27.852	1720.765	1724.913
476.401	27.620	1718.900	1720.635
477.416	27.286	1716.646	1715.010
478.430	27.328	1715.912	1714.467
479.445	27.464	1715.291	1714.925
480.460	27.577	1713.631	1714.133
481.474	27.557	1713.045	1713.152
482.489	27.818	1712.154	1714.517
483.503	27.748	1709.905	1711.399
484.518	27.796	1708.834	1710.577
485.533	27.914	1706.803	1709.452
486.547	27.659	1705.512	1705.553
487.562	27.506	1704.693	1703.092
488.576	27.687	1703.790	1703.692
489.591	27.864	1701.887	1703.241
490.606	27.933	1701.220	1703.018
491.620	28.058	1698.822	1701.581
492.635	27.978	1697.962	1699.770
493.649	27.880	1696.554	1697.237
494.664	27.715	1694.923	1693.866
495.679	27.631	1693.622	1691.575
496.693	27.739	1693.356	1692.121
497.708	27.953	1692.534	1693.084
498.722	28.115	1691.230	1693.088
499.737	28.266	1690.517	1693.573
500.752	28.114	1688.158	1689.593
501.766	28.054	1686.508	1687.190
502.781	28.088	1684.980	1685.771
503.795	28.171	1683.275	1684.633
504.810	28.130	1682.108	1682.885
505.825	28.102	1682.028	1682.343
506.839	28.078	1680.537	1680.432
507.854	28.036	1679.156	1678.464
508.868	28.149	1676.725	1676.870
509.883	27.974	1675.956	1674.291
510.898	27.988	1674.708	1672.974
511.912	27.824	1673.145	1669.704
512.927	27.781	1671.615	1667.576
513.941	27.795	1670.021	1665.914
514.956	27.773	1668.787	1664.282
515.971	27.684	1667.648	1662.136
516.985	27.871	1667.024	1663.030
518.000	28.036	1666.126	1663.441
519.014	27.953	1665.656	1662.009
520.029	27.952	1664.288	1660.438
521.043	27.978	1662.378	1658.569
522.058	27.786	1661.054	1655.300
523.073	28.020	1660.499	1656.686
524.087	28.228	1659.674	1657.560
525.102	28.139	1658.308	1655.180
526.116	27.963	1656.242	1651.330
527.131	28.066	1654.818	1650.641
528.146	28.334	1654.812	1652.866
529.160	28.286	1654.038	1651.463
530.175	28.362	1652.576	1650.497
531.189	28.326	1651.607	1649.006
532.204	28.379	1650.310	1647.988
533.219	28.135	1648.383	1643.669
534.233	28.043	1647.050	1641.309
535.248	27.822	1646.027	1638.100
536.262	28.058	1644.872	1638.885
537.277	28.039	1644.264	1637.908
538.292	28.178	1642.075	1636.784
539.306	28.154	1640.237	1634.537
540.321	28.007	1638.546	1631.337
541.335	27.645	1636.597	1625.961
542.350	27.932	1635.961	1627.709
543.365	28.201	1635.573	1629.527
544.379	28.442	1634.560	1630.477
545.394	28.237	1633.372	1627.267
546.408	28.149	1630.852	1623.782
547.423	27.863	1629.907	1620.096
548.438	27.978	1629.647	1620.666
549.452	28.141	1628.479	1620.767
550.467	28.140	1626.754	1618.846
551.481	28.201	1626.241	1618.684
552.496	28.329	1624.738	1618.127
553.511	28.445	1624.202	1618.426
554.525	28.458	1623.420	1617.574
555.540	28.501	1622.553	1616.893
556.554	28.563	1621.519	1616.219
557.569	28.535	1619.200	1613.471
558.583	28.349	1617.027	1609.468
559.598	28.221	1616.052	1607.175
560.613	28.305	1615.689	1607.360
561.627	28.270	1614.379	1605.558
562.642	28.294	1612.712	1603.922
563.656	28.425	1611.366	1603.540
564.671	28.325	1610.094	1601.202
565.686	28.393	1609.248	1600.773
566.700	28.261	1607.922	1598.103
567.715	28.241	1606.383	1596.202
568.729	28.064	1604.767	1592.854
569.744	27.995	1602.899	1590.207
570.759	28.116	1602.328	1590.508
571.773	28.251	1601.442	1590.620
572.788	28.282	1600.699	1589.966
573.802	28.565	1598.853	1590.404
574.817	28.587	1597.324	1588.881
575.832	28.412	1596.017	1585.869
576.846	28.434	1594.478	1584.348
577.861	28.439	1592.899	1582.631
578.875	28.475	1592.766	1582.618
579.890	28.718	1592.035	1583.812
580.905	28.705	1590.881	1582.365
581.919	28.605	1591.433	1581.858
582.934	28.738	1590.547	1581.933
583.948	28.902	1588.017	1580.650
584.963	28.736	1586.296	1577.316
585.978	28.413	1585.541	1573.584
586.992	28.342	1584.490	1571.745
588.007	28.452	1583.383	1571.400
589.021	28.042	1581.314	1565.630
590.036	27.313	1579.281	1557.167
591.051	27.868	1578.771	1561.247
592.065	28.375	1577.874	1564.526
593.080	28.529	1576.662	1564.460
594.094	28.681	1574.916	1563.840
595.109	28.388	1572.753	1558.994
596.123	28.296	1571.384	1556.664
597.138	28.478	1571.336	1557.992
598.153	28.348	1569.941	1555.315
599.167	28.288	1568.790	1553.473
600.182	28.458	1567.173	1553.135
601.196	28.581	1566.178	1553.005
602.211	28.548	1566.098	1552.465
603.226	28.610	1564.699	1551.418
604.240	28.860	1563.503	1552.165
605.255	29.109	1562.395	1552.996
606.269	28.940	1561.609	1550.592
607.284	28.779	1560.732	1548.173
608.299	28.735	1558.669	1545.572
609.313	28.607	1556.957	1542.603
610.328	28.662	1555.941	1541.879
611.342	28.741	1554.484	1540.913
612.357	28.824	1553.974	1540.928
613.372	28.862	1552.340	1539.439
614.386	28.663	1551.438	1536.688
615.401	28.923	1550.500	1537.760
616.415	28.672	1550.639	1535.602
617.430	28.842	1549.185	1535.407
618.445	28.763	1547.827	1533.212
619.459	28.852	1545.996	1531.966
620.474	28.724	1544.921	1529.641
621.488	28.503	1543.025	1525.737
622.503	28.310	1542.348	1523.270
623.518	28.702	1541.836	1525.853
624.532	29.058	1540.933	1527.753
625.547	28.960	1539.303	1525.136
626.561	29.045	1539.046	1525.405
627.576	29.142	1537.776	1524.772
628.591	28.999	1536.323	1521.960
629.605	28.804	1535.199	1519.046
630.620	28.709	1533.697	1516.588
631.634	28.582	1532.140	1513.815
632.649	28.525	1531.935	1512.962
633.663	28.976	1530.410	1515.002
634.678	29.161	1529.449	1515.404
635.693	29.289	1528.085	1514.924
636.707	29.352	1526.598	1513.790
637.722	29.266	1526.201	1512.510
638.736	29.248	1524.793	1510.784
639.751	29.184	1523.560	1508.849
640.766	29.147	1522.513	1507.327
641.780	29.207	1521.220	1506.367
642.795	29.090	1519.944	1503.956
643.809	29.166	1518.631	1503.103
644.824	29.214	1518.097	1502.789
645.839	29.189	1517.288	1501.599
646.853	29.279	1516.026	1500.908
647.868	29.202	1514.145	1498.236
648.882	28.836	1513.213	1494.150
649.897	28.827	1511.344	1492.054
650.912	28.781	1510.367	1490.535
651.926	28.980	1508.676	1490.302
652.941	28.744	1507.561	1487.109
653.955	28.317	1505.483	1481.406
654.970	28.006	1502.825	1476.092
655.985	27.984	1501.341	1474.281
656.999	27.760	1501.205	1472.151
658.014	28.099	1499.813	1473.352
659.028	28.564	1499.738	1476.868
660.043	28.758	1499.851	1478.370
661.058	28.994	1498.481	1478.750
662.072	29.061	1497.486	1478.135
663.087	28.773	1496.459	1474.621
664.101	28.718	1495.040	1472.600
665.116	28.980	1493.870	1473.388
666.131	29.086	1492.859	1473.063
667.145	29.165	1491.663	1472.342
668.160	29.175	1491.327	1471.912
669.174	29.299	1489.646	1471.071
670.189	29.157	1489.005	1469.125
671.204	29.083	1488.331	1467.689
672.218	29.057	1487.977	1466.957
673.233	29.423	1485.847	1467.606
674.247	29.599	1484.609	1467.621
675.262	29.649	1483.642	1466.884
676.276	29.598	1482.386	1465.061
677.291	29.342	1481.849	1462.316
678.306	29.122	1480.613	1459.169
679.320	29.219	1478.391	1457.577
680.335	29.181	1478.711	1457.410
681.349	29.215	1478.575	1457.372
682.364	29.410	1476.528	1456.730
683.379	29.339	1475.219	1454.702
684.393	29.307	1473.212	1452.299
685.408	29.429	1471.899	1451.790
686.422	29.276	1471.102	1449.620
687.437	29.174	1471.040	1448.583
688.452	29.355	1470.999	1449.798
689.466	29.477	1469.098	1448.712
690.481	29.389	1467.360	1446.135
691.495	29.368	1466.510	1444.959
692.510	29.180	1464.278	1441.107
693.525	29.026	1461.705	1437.192
694.539	29.022	1461.979	1437.262
695.554	29.256	1462.784	1439.719
696.568	29.400	1462.169	1440.067
697.583	29.380	1460.869	1438.461
698.598	29.424	1459.955	1437.735
699.612	29.563	1458.403	1437.119
700.627	29.533	1456.962	1435.292
701.641	29.496	1455.650	1433.535
702.656	29.458	1454.434	1431.877
703.671	29.716	1454.675	1433.949
704.685	29.697	1454.633	1433.590
705.700	29.518	1452.758	1430.176
706.714	29.432	1449.731	1426.353
707.729	29.226	1448.018	1422.905
708.744	29.199	1447.329	1421.842
709.758	29.193	1446.370	1420.687
710.773	28.817	1444.375	1415.647
711.787	28.732	1442.135	1412.624
712.802	28.939	1441.411	1413.346
713.816	29.118	1441.260	1414.407
714.831	29.330	1441.216	1415.835
715.846	29.490	1440.205	1415.903
716.860	29.792	1438.420	1416.306
717.875	29.562	1437.247	1413.210
718.889	29.312	1436.274	1410.168
719.904	29.375	1435.407	1409.632
720.919	29.445	1434.391	1408.997
721.933	29.400	1433.811	1407.916
722.948	29.509	1433.060	1407.844
723.962	29.408	1432.182	1406.042
724.977	29.668	1431.008	1406.710
725.992	29.608	1429.661	1404.759
727.006	29.769	1428.251	1404.433
728.021	29.733	1427.026	1402.787
729.035	29.774	1425.603	1401.530
730.050	29.732	1424.865	1400.318
731.065	29.707	1424.050	1399.158
732.079	29.852	1423.227	1399.290
733.094	29.731	1422.023	1397.013
734.108	29.697	1420.341	1394.936
735.123	29.630	1418.520	1392.473
736.138	29.526	1418.048	1391.062
737.152	29.591	1417.234	1390.588
738.167	29.823	1415.556	1390.529
739.181	29.915	1414.624	1390.136
740.196	29.689	1414.245	1387.891
741.211	29.737	1413.533	1387.393
742.225	29.810	1412.596	1386.856
743.240	29.604	1411.878	1384.429
744.254	29.719	1409.497	1382.797
745.269	29.623	1408.747	1381.173
746.284	29.714	1408.050	1381.007
747.298	29.638	1406.876	1379.125
748.313	29.681	1405.561	1377.989
749.327	29.560	1403.959	1375.352
750.342	29.240	1403.276	1372.121
751.356	28.940	1402.102	1368.562
752.371	29.036	1400.866	1367.915
753.386	29.400	1400.445	1370.056
754.400	29.625	1399.613	1370.757
755.415	29.787	1399.035	1371.232
756.429	29.995	1397.811	1371.419
757.444	29.901	1396.141	1368.916
758.459	29.811	1395.054	1367.015
759.473	29.762	1394.338	1365.787
760.488	29.747	1393.387	1364.582
761.502	29.865	1391.092	1363.046
762.517	29.735	1390.682	1361.515
763.532	29.751	1389.371	1360.192
764.546	29.593	1387.752	1357.276
765.561	29.204	1385.893	1352.429
766.575	28.297	1384.289	1344.007
767.590	28.304	1383.788	1343.412
768.605	29.002	1383.262	1347.889
769.619	29.500	1382.694	1350.837
770.634	29.651	1381.620	1350.731
771.648	29.797	1380.610	1350.658
772.663	29.732	1380.088	1349.507
773.678	29.764	1378.987	1348.504
774.692	30.019	1378.399	1349.632
775.707	29.902	1378.584	1348.796
776.721	29.926	1377.760	1348.008
777.736	29.917	1376.075	1346.130
778.751	29.936	1375.138	1345.192
779.765	29.918	1374.026	1343.809
780.780	29.789	1373.342	1342.037
781.794	29.896	1371.974	1341.321
782.809	29.741	1371.135	1339.215
783.824	29.569	1369.996	1336.692
784.838	29.577	1368.161	1334.794
785.853	29.085	1367.757	1330.671
786.867	29.348	1367.084	1331.766
787.882	29.562	1366.443	1332.533
788.897	29.625	1365.242	1331.661
789.911	29.543	1364.292	1329.978
790.926	29.740	1362.487	1329.483
791.940	29.881	1360.599	1328.498
792.955	29.851	1360.070	1327.608
793.969	29.890	1359.020	1326.702
794.984	29.752	1358.419	1324.964
795.999	30.008	1357.835	1326.079
797.013	30.013	1356.681	1324.832
798.028	29.997	1354.718	1322.640
799.042	29.997	1353.679	1321.464
800.057	29.920	1353.075	1320.172
801.072	29.924	1351.785	1318.782
802.086	29.932	1350.490	1317.419
803.101	30.145	1349.444	1317.760
804.115	30.008	1349.020	1316.211
805.130	29.823	1348.096	1313.834
806.145	29.959	1346.413	1313.001
807.159	29.862	1344.633	1310.416
808.174	29.940	1343.531	1309.743
809.188	29.877	1342.830	1308.453
810.203	29.757	1341.002	1305.667
811.218	29.473	1339.074	1301.616
812.232	29.043	1336.974	1296.378
813.247	28.719	1336.243	1293.223
814.261	29.126	1337.058	1296.735
815.276	29.705	1336.192	1299.834
816.291	29.738	1334.535	1298.302
817.305	29.890	1333.958	1298.657
818.320	29.798	1332.933	1296.858
819.334	29.807	1332.177	1296.026
820.349	29.932	1331.219	1295.818
821.364	29.871	1329.439	1293.505
822.378	30.060	1327.766	1293.047
823.393	30.067	1326.025	1291.243
824.407	30.046	1324.805	1289.754
825.422	29.888	1324.621	1288.318
826.437	29.898	1324.177	1287.804
827.451	29.633	1322.197	1283.872
828.466	29.437	1320.589	1280.792
829.480	29.568	1318.336	1279.361
830.495	29.729	1316.709	1278.751
831.509	29.660	1316.358	1277.775
832.524	29.613	1316.514	1277.446
833.539	29.642	1315.567	1276.575
834.553	30.024	1312.901	1276.483
835.568	29.931	1311.986	1274.797
836.582	29.861	1310.901	1273.108
837.597	29.995	1309.847	1272.855
838.612	29.834	1308.026	1269.826
839.626	29.819	1306.985	1268.558
840.641	29.693	1306.280	1266.852
841.655	29.319	1305.484	1263.358
842.670	28.854	1303.830	1258.406
843.685	28.421	1301.462	1252.996
844.699	28.917	1301.375	1256.169
845.714	29.551	1301.261	1260.259
846.728	29.490	1300.266	1258.722
847.743	29.631	1298.770	1258.090
848.758	29.603	1298.195	1257.189
849.772	29.867	1296.619	1257.317
850.787	29.916	1295.786	1256.696
851.801	29.637	1295.522	1254.382
852.816	29.735	1293.821	1253.259
853.831	29.794	1291.596	1251.354
854.845	29.804	1290.501	1250.206
855.860	29.632	1288.906	1247.349
856.874	29.626	1287.168	1245.477
857.889	29.538	1286.248	1243.839
858.904	29.544	1285.470	1242.979
859.918	29.458	1283.606	1240.450
860.933	29.251	1281.686	1237.049
861.947	29.429	1281.132	1237.562
862.962	29.642	1280.266	1238.013
863.977	29.526	1279.619	1236.457
864.991	29.523	1279.210	1235.894
866.006	29.567	1278.753	1235.601
867.020	29.719	1276.973	1234.754
868.035	29.809	1275.144	1233.442
869.049	29.855	1274.623	1233.097
870.064	29.834	1274.331	1232.527
871.079	29.845	1273.532	1231.679
872.093	29.615	1272.648	1229.144
873.108	29.739	1271.292	1228.515
874.122	29.699	1269.211	1226.086
875.137	29.160	1268.542	1221.704
876.152	29.064	1267.830	1220.228
877.166	29.169	1266.493	1219.496
878.181	29.296	1265.233	1218.982
879.195	29.478	1264.788	1219.616
880.210	29.684	1264.052	1220.130
881.225	29.780	1262.900	1219.507
882.239	29.697	1262.091	1218.027
883.254	29.786	1261.080	1217.500
884.268	29.731	1260.004	1215.946
885.283	29.848	1258.669	1215.286
886.298	29.769	1257.141	1213.144
887.312	29.739	1256.288	1211.977
888.327	29.810	1255.310	1211.357
889.341	29.611	1254.475	1209.096
890.356	29.482	1253.800	1207.452
891.371	29.396	1254.180	1207.112
892.385	29.280	1253.193	1205.256
893.400	29.516	1251.399	1204.931
894.414	29.415	1249.563	1202.357
895.429	29.519	1247.826	1201.226
896.444	29.203	1246.044	1197.301
897.458	28.903	1244.686	1193.895
898.473	29.144	1244.415	1195.061
899.487	29.348	1243.833	1195.694
900.502	29.371	1242.639	1194.548
901.517	29.450	1241.611	1193.934
902.531	29.495	1240.734	1193.241
903.546	29.345	1240.559	1191.953
904.560	29.456	1239.608	1191.619
905.575	29.566	1239.050	1191.649
906.589	29.513	1238.286	1190.434
907.604	29.505	1237.156	1189.154
