DTS Sentinel unit serial number:	SN409020Multiplexer serial number:	ORYXHardware model number:	OX4-SRSoftware version number:	ORYX F/W v3.00 Oryx Data Collector v3.7.2.0data status	okinstallation	HaddamTimeLapsedifferential loss correction	single-endedforward channel	channel 3reverse channel	N/Adate	2011/06/21time	19:41:17forward acquisition time	30.00reverse acquisition time	0.00gamma	498.7831k internal	0.1795k external	0.1795temperature offset calibration	1.0074default loss term (dB/km)	0.3790temperature slope calibration	1.3530multiplexer offset coefficient	1.0000multiplexer slope coefficient	1.0000fibre end	0.00T internal ref (°C)	33.50T ext. ref 1 (°C)	25.32T ext. ref 2 (°C)	0.25length (m)	temperature (°C)	Stokes	anti-Stokes-747.200	-29.018	-0.510	-0.379
-746.185	-200.000	-0.031	0.252
-745.171	-200.000	0.018	-0.178
-744.156	472.307	0.129	0.379
-743.142	-152.752	0.080	0.007
-742.127	-31.970	0.298	0.216
-741.112	-85.349	0.052	0.021
-740.098	379.724	0.244	0.651
-739.083	-24.081	-0.109	0.084
-738.069	381.877	0.040	-0.107
-737.054	493.865	0.045	-0.136
-736.039	-71.778	0.455	-0.219
-735.025	-36.778	-0.062	0.043
-734.010	800.000	-0.088	-0.363
-732.996	-200.000	-0.019	-0.194
-731.981	-155.531	0.237	-0.020
-730.966	43.522	0.295	-0.350
-729.952	-93.017	0.027	0.010
-728.937	3.711	-0.164	-0.155
-727.923	-116.965	0.284	0.067
-726.908	-200.000	-0.007	-0.137
-725.894	800.000	-0.074	-0.312
-724.879	-122.354	-0.282	-0.059
-723.864	263.736	0.115	-0.260
-722.850	-200.000	0.034	-0.199
-721.835	321.465	0.051	-0.126
-720.821	-28.875	-0.380	0.282
-719.806	89.707	-0.217	0.314
-718.791	153.427	-0.104	0.185
-717.777	-49.850	-0.145	0.089
-716.762	-200.000	0.033	0.335
-715.748	-70.051	-0.208	0.102
-714.733	800.000	-0.074	-0.326
-713.718	-200.000	-0.020	0.559
-712.704	557.659	-0.123	0.385
-711.689	7.860	-0.215	0.208
-710.675	67.650	-0.222	-0.294
-709.660	-97.130	0.247	-0.083
-708.645	800.000	0.049	0.222
-707.631	44.511	0.120	0.143
-706.616	-125.518	-0.200	0.039
-705.602	86.839	0.046	-0.066
-704.587	83.938	0.253	-0.357
-703.572	-56.112	-0.440	-0.253
-702.558	56.195	-0.148	-0.186
-701.543	-43.593	-0.362	0.236
-700.529	-200.000	-0.098	0.565
-699.514	-200.000	-0.006	0.273
-698.499	-83.591	-0.206	-0.085
-697.485	-124.168	-0.295	-0.059
-696.470	-95.997	-0.330	0.113
-695.456	-26.966	-0.122	-0.092
-694.441	-2.265	0.353	-0.320
-693.426	60.415	-0.173	0.221
-692.412	63.660	0.109	-0.142
-691.397	-117.980	-0.331	-0.076
-690.383	-49.357	0.418	-0.257
-689.368	-73.261	-0.125	-0.059
-688.354	-54.794	-0.384	-0.224
-687.339	-138.882	0.531	0.074
-686.324	-133.915	-0.507	-0.081
-685.310	-30.562	0.166	-0.122
-684.295	-83.081	-0.159	0.066
-683.281	457.343	0.169	-0.488
-682.266	67.828	0.248	-0.328
-681.251	-53.426	0.395	-0.233
-680.237	800.000	-0.054	-0.281
-679.222	-71.173	-0.225	0.109
-678.208	-2.135	-0.154	-0.140
-677.193	246.787	0.057	-0.125
-676.178	-55.602	0.206	0.119
-675.164	140.261	0.078	-0.134
-674.149	-200.000	-0.075	0.000
-673.135	-200.000	0.006	-0.090
-672.120	-200.000	-0.087	-0.645
-671.105	106.984	0.101	0.156
-670.091	800.000	-0.130	-0.650
-669.076	10.780	-0.136	-0.134
-668.062	-76.955	-0.036	0.016
-667.047	-200.000	0.339	0.001
-666.032	500.448	-0.091	-0.271
-665.018	46.765	-0.190	0.228
-664.003	-59.561	0.125	-0.069
-662.989	-12.850	0.358	0.301
-661.974	-131.764	0.230	0.039
-660.959	243.918	-0.104	0.227
-659.945	226.336	-0.122	-0.256
-658.930	476.606	-0.122	-0.358
-657.916	457.151	-0.036	-0.105
-656.901	-140.892	0.284	0.037
-655.886	-40.433	-0.248	-0.166
-654.872	-43.374	0.418	-0.272
-653.857	-167.963	0.321	0.016
-652.843	-144.235	-0.097	-0.012
-651.828	-200.000	-0.012	-0.290
-650.814	-54.828	0.455	0.265
-649.799	147.132	-0.041	-0.072
-648.784	165.039	0.134	-0.244
-647.770	-157.089	-0.206	0.016
-646.755	-52.573	-0.331	-0.197
-645.741	-64.055	0.087	0.046
-644.726	-62.400	-0.152	0.081
-643.711	-35.767	-0.177	-0.123
-642.697	-20.713	-0.268	-0.212
-641.682	-141.130	0.096	0.013
-640.668	352.395	0.120	0.307
-639.653	104.683	-0.021	0.032
-638.638	-51.890	-0.116	0.069
-637.624	-69.885	-0.291	0.142
-636.609	-86.989	0.156	0.061
-635.595	-88.300	-0.187	0.072
-634.580	-16.554	-0.028	0.023
-633.565	-165.233	-0.188	0.011
-632.551	-25.959	0.480	0.364
-631.536	-79.611	0.262	-0.113
-630.522	-200.000	-0.051	-0.639
-629.507	256.514	-0.153	0.341
-628.492	-200.000	0.016	-0.218
-627.478	-66.824	-0.576	-0.293
-626.463	-120.670	0.164	0.036
-625.449	-61.786	-0.141	0.076
-624.434	-118.812	-0.576	0.130
-623.419	800.000	0.076	0.318
-622.405	-7.055	0.407	-0.356
-621.390	-200.000	0.023	0.201
-620.376	-147.425	-0.352	0.038
-619.361	-154.105	0.172	-0.015
-618.346	-101.598	0.163	-0.051
-617.332	184.127	0.021	-0.041
-616.317	-90.646	-0.145	0.054
-615.303	-76.934	0.249	0.111
-614.288	-41.791	-0.365	0.241
-613.273	216.681	0.132	-0.272
-612.259	15.115	0.258	-0.260
-611.244	-102.035	0.090	-0.028
-610.230	-181.556	-0.399	0.010
-609.215	-99.901	-0.263	0.084
-608.201	-97.710	-0.396	0.131
-607.186	-185.758	-0.435	0.008
-606.171	-165.336	-0.527	0.029
-605.157	134.027	-0.028	-0.047
-604.142	800.000	0.031	-0.115
-603.128	-196.958	0.200	0.002
-602.113	-4.935	0.241	-0.214
-601.098	-108.434	-0.354	-0.098
-600.084	-123.370	0.162	0.033
-599.069	-24.901	0.388	0.296
-598.055	221.987	0.094	-0.196
-597.040	-63.032	0.087	-0.046
-596.025	-74.533	0.416	-0.192
-595.011	99.585	-0.093	0.139
-593.996	3.742	0.418	0.393
-592.982	-130.423	0.047	0.008
-591.967	290.873	0.139	-0.328
-590.952	92.833	-0.196	-0.285
-589.938	-137.034	0.172	0.025
-588.923	60.143	0.129	-0.165
-587.909	-99.651	0.098	-0.031
-586.894	-200.000	0.001	-0.254
-585.879	-30.812	0.140	-0.102
-584.865	94.201	-0.209	-0.306
-583.850	-80.214	-0.021	0.009
-582.836	-200.000	0.009	0.429
-581.821	-46.760	-0.613	0.386
-580.806	-83.825	-0.357	0.146
-579.792	-144.134	0.245	-0.029
-578.777	7.002	-0.028	-0.027
-577.763	-82.341	0.123	-0.051
-576.748	-200.000	-0.050	-0.287
-575.733	314.700	-0.124	-0.303
-574.719	-200.000	0.020	0.234
-573.704	-129.439	-0.087	-0.015
-572.690	-200.000	0.012	-0.238
-571.675	-56.945	0.121	0.068
-570.661	-103.183	0.474	0.143
-569.646	70.087	-0.166	-0.220
-568.631	-28.922	0.199	-0.147
-567.617	120.168	-0.164	0.262
-566.602	-63.057	-0.159	-0.084
-565.588	-52.390	-0.145	0.086
-564.573	218.882	-0.044	-0.091
-563.558	114.461	-0.109	-0.171
-562.544	800.000	-0.024	-0.107
-561.529	-64.280	0.238	-0.124
-560.515	699.535	-0.148	0.504
-559.500	-77.135	-0.215	0.096
-558.485	-95.708	0.314	0.107
-557.471	-56.298	-0.319	0.182
-556.456	77.960	-0.308	0.423
-555.442	-177.924	-0.281	0.008
-554.427	-63.375	0.324	-0.171
-553.412	-76.306	0.423	-0.191
-552.398	86.979	-0.246	-0.350
-551.383	-97.724	-0.181	0.060
-550.369	-200.000	-0.023	-0.636
-549.354	-200.000	0.036	0.443
-548.339	-92.983	-0.111	-0.040
-547.325	342.417	-0.077	-0.195
-546.310	7.150	0.527	0.506
-545.296	206.421	0.110	0.220
-544.281	-57.773	-0.632	0.354
-543.266	-52.020	-0.362	0.215
-542.252	-114.206	-0.396	0.097
-541.237	128.833	-0.101	-0.167
-540.223	7.419	0.188	0.181
-539.208	161.815	-0.185	-0.334
-538.193	458.158	0.038	0.109
-537.179	146.460	0.029	0.051
-536.164	-92.409	-0.184	-0.066
-535.150	171.016	-0.077	0.142
-534.135	234.706	0.041	0.087
-533.121	103.749	0.096	0.146
-532.106	-51.799	-0.166	-0.099
-531.091	-200.000	-0.024	-0.179
-530.077	-78.082	-0.065	-0.029
-529.062	41.252	0.384	-0.446
-528.048	140.596	-0.197	0.335
-527.033	-200.000	0.064	-0.373
-526.018	-139.802	0.333	0.045
-525.004	-22.768	0.148	0.115
-523.989	-200.000	0.020	-0.118
-522.975	-52.260	-0.143	-0.085
-521.960	210.416	-0.205	-0.415
-520.945	-102.175	0.419	0.129
-519.931	123.757	0.236	0.381
-518.916	123.710	0.255	0.411
-517.902	-112.678	-0.149	-0.038
-516.887	753.138	-0.105	-0.366
-515.872	800.000	0.077	0.395
-514.858	33.232	0.207	-0.230
-513.843	15.119	0.266	0.267
-512.829	-200.000	0.047	-0.324
-511.814	28.064	-0.140	-0.152
-510.799	181.207	0.217	0.411
-509.785	128.466	-0.220	-0.360
-508.770	388.279	0.064	0.172
-507.756	-200.000	0.013	-0.156
-506.741	-8.156	0.305	-0.263
-505.726	210.088	0.076	-0.153
-504.712	-186.116	0.389	-0.007
-503.697	167.173	0.128	0.235
-502.683	198.469	-0.178	0.350
-501.668	61.065	0.252	-0.321
-500.653	-141.459	-0.107	0.014
-499.639	154.068	-0.211	0.373
-498.624	222.730	0.076	-0.159
-497.610	-172.471	0.223	-0.009
-496.595	-162.394	-0.371	-0.023
-495.581	18.493	0.141	-0.144
-494.566	-120.151	-0.345	0.075
-493.551	-102.309	-0.038	-0.012
-492.537	4.190	0.376	-0.354
-491.522	110.882	-0.063	-0.097
-490.508	-65.664	0.266	0.136
-489.493	-200.000	-0.034	0.436
-488.478	-190.085	0.405	-0.006
-487.464	424.683	0.100	0.277
-486.449	-200.000	0.035	0.242
-485.435	-200.000	-0.063	-0.743
-484.420	-156.274	-0.658	0.052
-483.405	-54.550	0.110	0.064
-482.391	61.034	-0.288	0.367
-481.376	349.558	0.064	-0.162
-480.362	356.250	-0.022	-0.058
-479.347	367.822	-0.021	-0.055
-478.332	-112.316	-0.176	-0.045
-477.318	73.817	0.046	-0.062
-476.303	-158.029	0.306	-0.023
-475.289	-191.342	-0.363	-0.005
-474.274	-56.101	0.291	-0.166
-473.259	-200.000	0.008	0.090
-472.245	-102.347	0.282	-0.086
-471.230	-75.505	-0.164	0.075
-470.216	58.978	0.306	0.387
-469.201	-200.000	0.072	0.692
-468.186	221.803	0.077	0.158
-467.172	333.898	0.101	0.253
-466.157	395.406	0.102	0.274
-465.143	207.340	0.226	-0.454
-464.128	800.000	-0.064	0.324
-463.113	-10.684	0.245	0.207
-462.099	-90.156	0.236	-0.088
-461.084	-63.960	-0.319	-0.166
-460.070	-9.336	-0.376	-0.322
-459.055	-184.006	0.243	-0.005
-458.040	286.812	-0.139	-0.322
-457.026	130.075	0.272	-0.447
-456.011	-89.171	-0.429	0.161
-454.997	-38.506	-0.132	-0.089
-453.982	3.767	0.320	0.299
-452.968	584.286	-0.006	-0.020
-451.953	800.000	0.030	0.116
-450.938	64.564	0.342	0.443
-449.924	41.516	-0.239	0.277
-448.909	800.000	-0.038	0.206
-447.895	800.000	-0.085	0.458
-446.880	43.326	-0.172	-0.201
-445.865	187.961	-0.141	-0.270
-444.851	-66.869	-0.556	0.280
-443.836	-110.951	0.446	-0.117
-442.822	-200.000	-0.063	-0.638
-441.807	-19.634	0.394	0.312
-440.792	-200.000	-0.018	-0.304
-439.778	-56.393	-0.266	0.151
-438.763	729.990	0.093	0.319
-437.749	247.188	0.098	-0.214
-436.734	-200.000	0.030	-0.205
-435.719	-71.074	-0.226	-0.108
-434.705	236.695	0.027	0.057
-433.690	-109.993	-0.578	0.154
-432.676	-200.000	-0.009	0.260
-431.661	-150.857	0.147	-0.014
-430.646	-200.000	0.023	0.388
-429.632	800.000	0.022	-0.100
-428.617	800.000	0.033	0.118
-427.603	26.962	0.205	-0.220
-426.588	-97.246	-0.088	0.029
-425.573	364.691	0.130	-0.335
-424.559	49.017	0.163	-0.196
-423.544	-105.135	-0.149	-0.043
-422.530	9.588	0.326	-0.316
-421.515	112.858	0.047	-0.072
-420.500	800.000	-0.082	-0.307
-419.486	-48.678	0.161	-0.099
-418.471	659.774	0.113	0.374
-417.457	-39.981	0.103	-0.069
-416.442	-135.864	-0.244	-0.036
-415.428	18.450	-0.129	0.132
-414.413	-154.711	0.236	-0.020
-413.398	-18.281	-0.081	0.064
-412.384	81.660	0.180	-0.250
-411.369	-200.000	0.028	-0.204
-410.355	-153.825	0.394	-0.034
-409.340	-200.000	-0.044	0.289
-408.325	155.776	-0.178	0.315
-407.311	-92.024	0.445	-0.160
-406.296	8.335	0.245	-0.235
-405.282	84.575	0.094	-0.131
-404.267	-103.137	-0.460	-0.138
-403.252	132.093	0.116	0.191
-402.238	800.000	0.037	0.204
-401.223	800.000	0.119	0.473
-400.209	-200.000	0.008	0.156
-399.194	-70.279	-0.659	-0.319
-398.179	372.357	-0.064	-0.166
-397.165	-200.000	0.063	0.394
-396.150	-134.117	-0.265	-0.041
-395.136	-0.352	0.224	-0.203
-394.121	-155.053	0.306	0.025
-393.106	121.167	-0.263	-0.419
-392.092	433.453	0.085	0.238
-391.077	-53.120	0.323	-0.189
-390.063	19.609	-0.175	0.180
-389.048	-200.000	0.017	-0.114
-388.033	196.532	-0.179	-0.349
-387.019	57.277	-0.171	0.214
-386.004	257.800	-0.167	-0.370
-384.990	-139.527	0.381	0.051
-383.975	-19.705	0.155	-0.123
-382.960	101.947	0.176	-0.262
-381.946	229.122	-0.090	0.187
-380.931	-44.486	0.380	-0.242
-379.917	-200.000	0.016	0.298
-378.902	192.438	-0.213	-0.412
-377.888	-160.533	0.227	0.015
-376.873	800.000	-0.073	0.315
-375.858	149.799	-0.105	-0.182
-374.844	233.896	-0.226	-0.476
-373.829	57.263	-0.151	-0.188
-372.815	800.000	-0.125	0.486
-371.800	-2.914	-0.167	-0.149
-370.785	67.425	-0.169	0.220
-369.771	-200.000	-0.027	0.169
-368.756	138.873	0.191	-0.321
-367.742	-109.530	0.172	-0.046
-366.727	-108.319	0.447	0.122
-365.712	-90.321	0.316	-0.117
-364.698	-107.389	0.297	0.083
-363.683	-49.993	-0.079	0.047
-362.669	29.005	-0.354	-0.383
-361.654	196.392	-0.196	-0.382
-360.639	-159.816	0.332	-0.023
-359.625	23.607	0.324	0.340
-358.610	-200.000	-0.081	0.464
-357.596	-200.000	-0.000	-0.265
-356.581	8.854	-0.016	0.015
-355.566	-80.606	-0.074	-0.031
-354.552	30.621	0.262	0.286
-353.537	-29.155	-0.230	-0.168
-352.523	177.579	0.181	-0.338
-351.508	-200.000	-0.005	-0.187
-350.493	-200.000	-0.019	0.143
-349.479	-159.319	0.222	-0.016
-348.464	-77.118	-0.180	0.080
-347.450	725.647	0.099	0.338
-346.435	800.000	0.105	-0.377
-345.420	-160.469	-0.594	-0.040
-344.406	-124.926	-0.451	-0.088
-343.391	-200.000	0.022	0.181
-342.377	722.719	0.114	0.390
-341.362	-100.230	0.355	-0.112
-340.348	162.924	0.026	0.047
-339.333	-17.608	-0.182	-0.145
-338.318	-41.383	-0.173	0.113
-337.304	330.322	-0.106	-0.260
-336.289	-54.402	-0.211	-0.121
-335.275	17.626	0.255	0.259
-334.260	11.487	-0.323	0.316
-333.245	-20.171	-0.055	-0.043
-332.231	613.649	0.020	0.065
-331.216	-62.676	0.333	-0.175
-330.202	-144.411	-0.206	0.024
-329.187	-21.153	0.378	-0.294
-328.172	-99.326	0.544	0.174
-327.158	73.912	-0.225	0.301
-326.143	-0.098	-0.205	0.186
-325.129	-200.000	-0.010	0.129
-324.114	112.205	0.165	0.254
-323.099	-200.000	0.022	-0.230
-322.085	-66.714	-0.302	-0.152
-321.070	-200.000	0.015	0.221
-320.056	-200.000	0.017	-0.393
-319.041	-61.655	0.133	-0.071
-318.026	-106.476	-0.404	-0.114
-317.012	178.926	-0.069	0.129
-315.997	-200.000	0.017	-0.290
-314.983	-78.382	0.449	-0.195
-313.968	254.079	-0.095	0.209
-312.953	-112.303	0.322	-0.082
-311.939	-70.896	0.135	0.065
-310.924	800.000	-0.058	0.306
-309.910	24.389	0.221	0.233
-308.895	-59.430	-0.196	0.107
-307.880	-99.869	0.060	0.019
-306.866	-131.959	-0.334	-0.055
-305.851	-138.697	0.758	0.105
-304.837	-116.162	-0.346	-0.081
-303.822	267.990	-0.067	-0.151
-302.807	44.660	0.136	0.159
-301.793	394.056	-0.177	-0.472
-300.778	36.413	0.074	-0.084
-299.764	88.523	0.098	-0.140
-298.749	800.000	0.037	0.205
-297.735	87.519	-0.156	0.221
-296.720	-24.581	-0.220	0.167
-295.705	71.204	0.267	0.353
-294.691	-200.000	-0.041	0.311
-293.676	-200.000	0.043	0.250
-292.662	-53.004	-0.099	-0.058
-291.647	237.657	-0.102	-0.216
-290.632	-178.065	0.172	0.005
-289.618	39.178	-0.305	0.348
-288.603	-59.936	-0.315	-0.171
-287.589	-200.000	0.108	0.621
-286.574	-64.537	0.104	-0.054
-285.559	-70.972	-0.385	0.184
-284.545	-200.000	-0.023	0.488
-283.530	-157.837	0.548	0.041
-282.516	-200.000	-0.022	-0.195
-281.501	337.180	-0.056	0.140
-280.486	-45.978	0.308	0.193
-279.472	-33.675	0.236	-0.166
-278.457	-200.000	0.013	0.424
-277.443	-181.398	0.232	-0.006
-276.428	237.041	0.227	-0.481
-275.413	515.793	0.130	0.389
-274.399	-166.249	0.713	-0.038
-273.384	-124.121	-0.463	0.092
-272.370	-64.250	-0.531	-0.274
-271.355	-25.620	-0.025	0.019
-270.340	-97.862	-0.333	0.109
-269.326	75.201	-0.145	-0.195
-268.311	-199.783	-0.313	0.002
-267.297	-74.212	-0.298	-0.136
-266.282	800.000	0.080	-0.291
-265.267	-102.322	-0.298	0.091
-264.253	98.829	0.178	0.261
-263.238	-150.066	0.362	-0.035
-262.224	-164.369	-0.104	-0.006
-261.209	-107.252	-0.127	0.035
-260.195	127.499	-0.129	0.208
-259.180	202.072	-0.055	-0.109
-258.165	-51.902	-0.063	-0.037
-257.151	-180.663	0.216	0.006
-256.136	-200.000	-0.025	0.181
-255.122	511.600	-0.145	-0.432
-254.107	-179.839	0.270	0.007
-253.092	800.000	0.079	0.301
-252.078	53.460	-0.069	0.084
-251.063	576.308	0.047	0.146
-250.049	12.700	0.125	0.122
-249.034	-200.000	-0.033	-0.210
-248.019	800.000	-0.090	-0.338
-247.005	343.873	0.101	0.253
-245.990	800.000	0.048	0.186
-244.976	-34.312	-0.160	-0.111
-243.961	-75.012	-0.330	-0.150
-242.946	122.229	0.283	0.450
-241.932	16.065	0.276	0.276
-240.917	18.346	0.197	-0.200
-239.903	-64.266	0.078	0.040
-238.888	800.000	-0.046	-0.168
-237.873	351.699	-0.183	-0.462
-236.859	18.018	-0.358	-0.362
-235.844	-106.743	0.046	-0.013
-234.830	-60.374	0.171	0.092
-233.815	-137.965	-0.322	-0.045
-232.800	-200.000	0.011	0.388
-231.786	230.312	0.122	-0.255
-230.771	800.000	0.084	-0.419
-229.757	-145.102	0.229	0.026
-228.742	-72.730	0.128	-0.060
-227.727	-200.000	0.021	0.177
-226.713	15.249	-0.212	0.211
-225.698	-26.053	0.260	0.194
-224.684	163.839	0.092	0.165
-223.669	13.955	0.231	0.228
-222.655	-89.510	-0.676	0.251
-221.640	800.000	-0.069	-0.326
-220.625	1.816	-0.194	0.178
-219.611	217.156	-0.222	0.450
-218.596	-104.551	-0.436	0.127
-217.582	-62.300	-0.386	0.203
-216.567	45.461	-0.303	-0.355
-215.552	-98.277	0.515	0.167
-214.538	142.938	0.296	0.500
-213.523	-167.167	0.189	-0.010
-212.509	-200.000	0.050	0.299
-211.494	4.121	-0.381	0.354
-210.479	-169.046	0.147	-0.007
-209.465	-16.978	0.342	0.274
-208.450	800.000	-0.017	-0.077
-207.436	-135.584	0.436	-0.065
-206.421	268.384	-0.143	-0.319
-205.406	454.577	-0.050	0.141
-204.392	-64.813	0.322	-0.165
-203.377	-143.771	0.126	-0.015
-202.363	-123.326	-0.223	-0.045
-201.348	138.116	-0.205	0.341
-200.333	-124.124	-0.474	0.093
-199.319	-37.718	0.435	-0.293
-198.304	-52.173	-0.059	0.035
-197.290	68.946	0.098	-0.128
-196.275	800.000	0.017	-0.089
-195.260	-23.924	-0.226	-0.171
-194.246	-95.847	0.097	-0.033
-193.231	-61.431	-0.152	-0.081
-192.217	85.892	0.108	-0.151
-191.202	29.476	-0.072	-0.077
-190.187	-200.000	-0.035	-0.613
-189.173	62.319	0.073	0.092
-188.158	-186.245	-0.251	-0.005
-187.144	-126.698	-0.267	-0.050
-186.129	-104.131	-0.214	0.063
-185.114	769.368	0.099	-0.344
-184.100	-200.000	-0.038	-0.769
-183.085	-24.345	0.318	-0.240
-182.071	-157.088	0.485	-0.037
-181.056	98.967	-0.231	-0.339
-180.042	-153.749	-0.248	-0.021
-179.027	-200.000	0.110	-0.773
-178.012	-200.000	0.000	0.102
-176.998	-33.982	0.179	-0.125
-175.983	218.438	0.313	0.636
-174.969	-32.942	-0.433	-0.304
-173.954	80.369	0.209	-0.286
-172.939	40.619	0.140	-0.160
-171.925	800.000	-0.008	-0.031
-170.910	104.254	0.058	0.086
-169.896	39.339	-0.244	0.277
-168.881	12.237	-0.167	-0.163
-167.866	346.087	0.090	0.225
-166.852	128.857	0.189	0.306
-165.837	691.908	0.024	-0.081
-164.823	-49.164	0.339	0.205
-163.808	-158.213	0.121	-0.009
-162.793	463.938	0.046	0.132
-161.779	-58.565	0.178	0.097
-160.764	79.878	-0.267	0.364
-159.750	584.749	0.100	-0.312
-158.735	-105.840	-0.351	-0.100
-157.720	158.706	0.143	-0.252
-156.706	6.669	0.212	-0.199
-155.691	0.019	-0.522	0.470
-154.677	-77.890	0.148	-0.065
-153.662	543.518	-0.216	-0.655
-152.647	-152.904	-0.151	-0.013
-151.633	-81.213	0.146	0.061
-150.618	-131.648	-0.219	-0.036
-149.604	-116.172	0.335	0.078
-148.589	-200.000	-0.040	0.225
-147.574	173.674	-0.088	0.162
-146.560	-158.805	-0.452	0.032
-145.545	24.239	0.301	-0.315
-144.531	228.153	0.297	-0.614
-143.516	409.903	0.138	0.372
-142.502	-39.472	0.222	0.147
-141.487	461.764	-0.018	-0.052
-140.472	-145.216	0.164	0.019
-139.458	800.000	-0.083	0.330
-138.443	26.630	-0.058	-0.062
-137.429	-136.685	0.380	0.055
-136.414	-102.316	-0.353	-0.106
-135.399	-161.589	-0.112	-0.007
-134.385	-200.000	-0.061	0.392
-133.370	-12.380	-0.294	0.243
-132.356	-100.999	-0.217	0.067
-131.341	115.661	-0.241	0.374
-130.326	-26.741	0.282	0.209
-129.312	-200.000	-0.002	0.144
-128.297	11.440	-0.154	-0.149
-127.283	-200.000	-0.011	-0.309
-126.268	-21.898	0.258	0.198
-125.253	-127.496	0.304	0.055
-124.239	-51.889	-0.106	-0.062
-123.224	-66.230	-0.309	0.155
-122.210	-129.290	-0.210	-0.037
-121.195	-77.245	0.550	0.241
-120.180	-76.266	-0.306	-0.136
-119.166	-119.012	0.119	-0.026
-118.151	617.522	-0.246	-0.787
-117.137	-200.000	-0.041	-0.268
-116.122	-116.381	0.325	-0.075
-115.107	-34.501	-0.208	-0.144
-114.093	70.201	0.296	-0.387
-113.078	-23.016	-0.291	-0.221
-112.064	251.779	-0.184	-0.397
-111.049	-128.793	0.473	-0.083
-110.034	362.032	0.070	-0.178
-109.020	329.169	0.073	-0.178
-108.005	-21.487	0.138	0.106
-106.991	-118.428	0.136	-0.030
-105.976	249.073	-0.141	-0.303
-104.962	-113.662	-0.460	-0.113
-103.947	8.770	-0.197	0.187
-102.932	-200.000	-0.026	-0.509
-101.918	330.701	0.055	-0.134
-100.903	-200.000	-0.027	0.209
-99.889	129.728	0.285	-0.462
-98.874	-106.964	-0.511	-0.142
-97.859	72.717	-0.121	-0.160
-96.845	-200.000	0.043	-0.360
-95.830	573.527	0.155	0.481
-94.816	-63.417	0.196	0.101
-93.801	374.446	0.093	0.239
-92.786	800.000	0.091	0.346
-91.772	-137.181	0.224	0.032
-90.757	369.624	0.074	-0.190
-89.743	72.871	-0.099	-0.131
-88.728	320.372	0.105	0.252
-87.713	-9.089	0.018	0.015
-86.699	377.729	0.179	-0.464
-85.684	250.769	0.250	-0.539
-84.670	543.222	-0.061	0.184
-83.655	-140.135	0.152	-0.020
-82.640	321.274	0.114	-0.276
-81.626	-81.827	0.225	0.093
-80.611	-38.490	0.244	0.162
-79.597	-0.733	0.304	0.272
-78.582	-200.000	0.002	-0.039
-77.567	-138.060	-0.312	-0.043
-76.553	-1.205	-0.183	0.163
-75.538	-37.481	-0.369	0.248
-74.524	-39.975	0.100	-0.065
-73.509	-129.188	0.419	-0.073
-72.494	800.000	0.081	0.414
-71.480	119.470	0.284	0.446
-70.465	-6.438	-0.261	0.225
-69.451	-200.000	0.015	-0.144
-68.436	-121.256	-0.291	0.061
-67.422	-109.542	0.250	-0.066
-66.407	-21.008	-0.224	-0.173
-65.392	-37.524	0.328	0.220
-64.378	-8.425	-0.189	-0.160
-63.363	-155.198	0.079	0.006
-62.349	-84.278	-0.381	-0.151
-61.334	24.104	-1.222	-1.273
-60.319	-64.929	1.134	0.577
-59.305	356.186	-2.819	-7.116
-58.290	8.140	3.283	3.108
-57.276	461.482	3.746	10.594
-56.261	-200.000	16.117	234.357
-55.246	424.440	1205.539	3288.171
-54.232	58.710	2842.739	3525.949
-53.217	67.837	2725.700	3519.419
-52.203	42.430	2454.680	2817.251
-51.188	41.459	2104.476	2403.474
-50.173	35.527	1979.429	2192.729
-49.159	34.256	1967.309	2164.714
-48.144	33.874	1962.337	2154.800
-47.130	33.918	1960.493	2153.195
-46.115	33.866	1958.385	2150.198
-45.100	33.840	1957.260	2148.578
-44.086	33.777	1957.130	2147.641
-43.071	33.716	1955.202	2144.744
-42.057	33.783	1953.122	2143.133
-41.042	33.651	1952.040	2140.368
-40.027	33.697	1950.444	2139.051
-39.013	33.645	1949.516	2137.366
-37.998	33.688	1947.141	2135.167
-36.984	33.678	1946.361	2134.110
-35.969	33.732	1944.673	2132.785
-34.954	33.569	1943.915	2130.031
-33.940	33.601	1942.591	2128.853
-32.925	33.651	1941.143	2127.742
-31.911	33.713	1940.054	2127.166
-30.896	33.685	1937.982	2124.489
-29.881	33.859	1935.716	2123.878
-28.867	33.712	1935.726	2122.153
-27.852	33.567	1934.844	2119.475
-26.838	33.497	1933.393	2117.019
-25.823	33.539	1931.605	2115.444
-24.809	33.617	1930.330	2114.834
-23.794	33.528	1929.306	2112.631
-22.779	33.607	1927.339	2111.281
-21.765	33.548	1926.234	2109.327
-20.750	33.582	1924.540	2107.772
-19.736	33.565	1923.459	2106.306
-18.721	33.431	1922.549	2103.737
-17.706	33.338	1921.668	2101.654
-16.692	33.401	1920.305	2100.779
-15.677	33.356	1918.895	2098.654
-14.663	33.271	1917.530	2096.131
-13.648	33.262	1915.934	2094.206
-12.633	33.245	1915.796	2093.775
-11.619	33.294	1913.974	2092.247
-10.604	33.466	1911.943	2091.859
-9.590	33.301	1911.564	2089.524
-8.575	33.356	1909.693	2088.004
-7.560	33.340	1908.781	2086.751
-6.546	33.399	1906.797	2085.153
-5.531	33.187	1906.869	2082.797
-4.517	33.124	1905.975	2081.043
-3.502	33.281	1904.495	2081.083
-2.487	33.447	1902.076	2080.192
-1.473	33.388	1899.630	2076.777
-0.458	33.167	1878.979	2051.710
0.556	28.498	2012.938	2130.749
1.571	26.268	2225.854	2327.015
2.586	27.475	2271.788	2390.684
3.600	27.390	2274.556	2392.183
4.615	27.604	2273.337	2393.446
5.629	27.327	2271.584	2387.658
6.644	27.400	2269.214	2385.848
7.659	27.552	2267.304	2385.546
8.673	27.714	2266.053	2386.074
9.688	27.130	2271.452	2383.779
10.702	24.328	2344.058	2421.500
11.717	21.290	2409.199	2445.816
12.731	10.968	2382.321	2273.890
13.746	1.779	2357.148	2121.406
14.761	0.285	2352.776	2096.323
15.775	0.179	2349.494	2091.670
16.790	0.070	2348.733	2089.226
17.804	-0.052	2348.224	2086.812
18.819	0.079	2345.888	2086.322
19.834	0.084	2344.636	2085.021
20.848	0.064	2343.662	2083.630
21.863	0.052	2342.121	2081.846
22.877	0.006	2339.930	2079.013
23.892	0.070	2338.077	2077.998
24.907	0.094	2334.949	2075.302
25.921	-0.031	2334.282	2072.736
26.936	0.025	2330.894	2070.245
27.950	0.020	2329.211	2068.442
28.965	0.111	2326.506	2067.046
29.980	0.013	2325.153	2064.240
30.994	0.220	2323.458	2065.351
32.009	5.680	2341.914	2157.220
33.023	17.827	2378.143	2360.145
34.038	22.565	2386.430	2434.029
35.053	22.894	2383.035	2434.841
36.067	22.827	2380.193	2430.719
37.082	22.684	2378.016	2426.231
38.096	22.716	2376.746	2425.074
39.111	22.782	2374.519	2423.431
40.126	22.897	2372.319	2422.475
41.140	23.080	2370.672	2423.033
42.155	23.078	2368.533	2420.522
43.169	22.970	2367.121	2417.313
44.184	22.967	2363.327	2413.107
45.199	22.814	2361.618	2408.970
46.213	22.929	2360.223	2408.841
47.228	22.879	2360.097	2407.737
48.242	23.012	2358.487	2407.618
49.257	23.289	2357.603	2410.223
50.271	23.417	2355.773	2409.816
51.286	23.284	2353.020	2404.890
52.301	23.014	2350.508	2398.361
53.315	23.569	2352.588	2407.756
54.330	25.338	2356.419	2435.542
55.344	26.385	2356.681	2449.786
56.359	26.723	2352.389	2449.627
57.374	26.671	2351.658	2447.859
58.388	26.677	2347.827	2443.667
59.403	26.562	2343.793	2437.622
60.417	26.228	2340.406	2429.282
61.432	26.221	2340.477	2428.975
62.447	26.362	2338.189	2428.219
63.461	26.442	2336.924	2427.685
64.476	26.529	2334.708	2426.265
65.490	26.487	2333.249	2423.897
66.505	25.997	2329.583	2413.208
67.520	24.988	2326.149	2395.806
68.534	24.495	2320.818	2383.422
69.549	23.811	2317.305	2370.357
70.563	23.433	2313.810	2361.432
71.578	23.434	2312.781	2360.112
72.593	23.714	2310.389	2361.134
73.607	23.603	2308.071	2357.008
74.622	23.573	2306.416	2354.631
75.636	23.845	2303.954	2355.452
76.651	23.756	2302.944	2352.962
77.666	23.847	2301.082	2351.985
78.680	23.771	2297.710	2347.254
79.695	23.265	2294.394	2336.865
80.709	22.964	2292.215	2330.375
81.724	22.813	2290.080	2325.935
82.739	22.964	2288.360	2325.901
83.753	23.760	2287.684	2335.459
84.768	23.752	2285.974	2333.332
85.782	23.756	2285.387	2332.504
86.797	23.626	2283.066	2328.142
87.812	23.583	2280.480	2324.657
88.826	23.738	2280.271	2326.208
89.841	24.076	2277.373	2327.418
90.855	23.935	2274.478	2322.332
91.870	23.832	2273.393	2319.587
92.884	23.975	2271.544	2319.298
93.899	23.722	2271.018	2315.177
94.914	23.745	2271.629	2315.817
95.928	24.636	2274.079	2329.728
96.943	25.300	2271.358	2335.343
97.957	24.227	2264.498	2314.015
98.972	23.509	2261.631	2301.440
99.987	23.664	2258.374	2299.878
101.001	23.778	2256.371	2299.047
102.016	24.038	2254.928	2300.672
103.030	23.696	2251.665	2292.635
104.045	23.255	2248.497	2283.418
105.060	23.387	2247.099	2283.440
106.074	23.753	2245.214	2285.978
107.089	23.454	2243.807	2280.411
108.103	23.101	2241.451	2273.181
109.118	23.320	2240.630	2274.901
110.133	23.459	2239.280	2275.058
111.147	23.719	2238.268	2277.100
112.162	23.732	2236.585	2275.284
113.176	23.672	2233.971	2271.587
114.191	23.338	2231.550	2264.561
115.206	23.300	2229.796	2262.018
116.220	23.545	2228.817	2263.906
117.235	23.583	2225.941	2261.194
118.249	23.621	2224.606	2260.051
119.264	23.415	2222.687	2255.208
120.279	23.286	2220.710	2251.273
121.293	23.386	2219.558	2251.115
122.308	23.530	2218.018	2251.129
123.322	23.439	2215.677	2247.315
124.337	23.198	2214.753	2243.043
125.352	24.433	2218.740	2262.556
126.366	25.446	2219.349	2275.811
127.381	24.515	2213.213	2257.423
128.395	23.961	2208.901	2245.734
129.410	23.692	2206.322	2239.434
130.424	23.764	2205.133	2238.867
131.439	24.194	2203.752	2242.632
132.454	24.024	2202.431	2238.877
133.468	24.266	2199.268	2238.442
134.483	23.994	2197.591	2233.043
135.497	23.867	2195.752	2229.300
136.512	23.861	2194.464	2227.655
137.527	24.006	2193.164	2227.888
138.541	23.977	2191.832	2225.910
139.556	24.095	2191.528	2226.821
140.570	24.239	2188.651	2225.432
141.585	23.655	2186.310	2215.467
142.600	23.403	2183.648	2209.347
143.614	23.269	2183.296	2207.046
144.629	23.399	2180.272	2205.351
145.643	23.335	2177.707	2201.688
146.658	23.321	2176.061	2199.588
147.673	23.095	2173.792	2194.220
148.687	22.997	2172.765	2191.692
149.702	23.156	2172.771	2193.415
150.716	23.431	2172.268	2196.079
151.731	23.708	2170.656	2197.625
152.746	23.556	2169.184	2193.987
153.760	23.856	2170.952	2199.241
154.775	24.969	2173.447	2215.353
155.789	25.427	2172.590	2219.903
156.804	24.832	2166.665	2206.215
157.819	23.814	2160.975	2187.572
158.833	23.438	2156.172	2177.801
159.848	23.422	2153.852	2175.004
160.862	23.518	2153.211	2175.272
161.877	23.771	2152.135	2177.044
162.892	23.573	2152.567	2174.780
163.906	23.723	2150.961	2174.748
164.921	23.599	2147.980	2169.946
165.935	23.353	2144.394	2163.042
166.950	23.282	2143.676	2161.189
167.964	23.490	2142.021	2161.819
168.979	23.479	2139.876	2159.259
169.994	23.382	2138.501	2156.428
171.008	23.381	2136.737	2154.374
172.023	23.217	2135.536	2150.907
173.037	23.460	2135.351	2153.425
174.052	23.422	2133.935	2151.278
175.067	23.384	2131.898	2148.501
176.081	23.530	2129.883	2147.986
177.096	23.661	2130.129	2149.576
178.110	23.879	2128.741	2150.574
179.125	24.094	2126.660	2150.822
180.140	23.793	2125.531	2145.772
181.154	23.841	2124.200	2144.753
182.169	23.811	2124.385	2144.314
183.183	24.299	2124.428	2150.019
184.198	25.480	2125.877	2165.547
185.213	25.638	2124.665	2165.962
186.227	24.612	2118.748	2147.282
187.242	23.858	2114.716	2133.847
188.256	23.573	2113.541	2128.964
189.271	23.803	2112.524	2130.458
190.286	23.615	2110.430	2125.829
191.300	23.511	2107.049	2120.926
192.315	23.802	2106.023	2123.123
193.329	23.898	2105.445	2123.444
194.344	23.850	2103.141	2120.295
195.359	23.723	2101.900	2117.260
196.373	23.754	2100.207	2115.676
197.388	23.780	2096.917	2112.415
198.402	23.691	2095.244	2109.421
199.417	23.705	2093.158	2107.228
200.432	23.597	2092.210	2104.739
201.446	23.466	2090.031	2100.730
202.461	23.598	2088.443	2100.453
203.475	23.540	2086.724	2097.790
204.490	23.398	2084.978	2094.099
205.504	23.449	2082.786	2092.247
206.519	23.480	2080.676	2090.242
207.534	23.600	2078.808	2089.540
208.548	23.609	2077.281	2087.856
209.563	23.248	2075.628	2081.684
210.577	23.551	2075.727	2085.114
211.592	23.935	2075.317	2088.991
212.607	24.302	2076.275	2094.036
213.621	25.214	2078.889	2107.193
214.636	25.423	2076.122	2106.603
215.650	24.978	2073.126	2098.067
216.665	24.622	2068.967	2089.421
217.680	23.994	2065.472	2078.280
218.694	23.683	2063.367	2072.258
219.709	23.374	2061.926	2066.949
220.723	23.317	2060.847	2064.948
221.738	23.632	2059.799	2067.332
222.753	23.807	2057.491	2066.824
223.767	23.709	2056.341	2064.267
224.782	23.757	2054.092	2062.328
225.796	23.708	2051.637	2059.048
226.811	23.553	2050.876	2056.233
227.826	23.400	2049.157	2052.477
228.840	23.275	2046.788	2048.401
229.855	23.498	2045.769	2049.735
230.869	23.620	2045.412	2050.543
231.884	23.899	2044.838	2052.959
232.899	23.971	2043.704	2052.413
233.913	23.885	2042.054	2049.514
234.928	23.595	2041.019	2044.871
235.942	23.374	2037.681	2038.730
236.957	23.339	2036.453	2036.851
237.972	23.580	2035.739	2038.681
238.986	23.409	2034.199	2034.914
240.001	23.253	2033.112	2031.781
241.015	23.366	2031.932	2031.671
242.030	24.257	2032.973	2042.735
243.045	25.326	2033.963	2055.790
244.059	25.606	2033.144	2057.937
245.074	24.893	2027.831	2044.140
246.088	24.153	2023.103	2030.650
247.103	24.154	2022.220	2029.535
248.117	24.622	2022.112	2034.536
249.132	24.362	2020.183	2029.385
250.147	23.975	2016.973	2021.494
251.161	23.658	2014.862	2015.523
252.176	23.745	2013.893	2015.298
253.190	23.795	2010.829	2012.559
254.205	23.715	2008.744	2009.324
255.220	23.539	2007.284	2005.624
256.234	23.111	2005.219	1998.465
257.249	23.121	2004.157	1997.281
258.263	23.188	2003.797	1997.445
259.278	23.299	2002.112	1996.781
260.293	23.249	2001.320	1995.180
261.307	23.416	1999.569	1995.090
262.322	23.624	1998.784	1996.424
263.336	23.432	1995.437	1990.674
264.351	23.298	1994.389	1987.874
265.366	23.452	1994.003	1988.988
266.380	23.764	1992.182	1990.452
267.395	23.731	1991.326	1988.989
268.409	24.132	1990.216	1992.151
269.424	23.910	1988.463	1987.657
270.439	23.711	1988.190	1984.907
271.453	24.603	1988.952	1995.450
272.468	25.536	1989.196	2005.928
273.482	25.371	1987.452	2002.078
274.497	24.470	1982.462	1986.743
275.512	23.967	1978.249	1976.661
276.526	23.787	1975.884	1972.062
277.541	23.609	1972.787	1966.750
278.555	23.275	1972.256	1962.260
279.570	23.396	1970.365	1961.493
280.585	23.488	1968.591	1960.514
281.599	23.329	1967.391	1957.319
282.614	23.556	1965.756	1957.982
283.628	23.827	1965.884	1960.872
284.643	23.789	1963.598	1957.943
285.657	23.264	1962.161	1950.459
286.672	23.467	1960.334	1950.656
287.687	23.337	1958.706	1947.365
288.701	23.249	1957.276	1944.744
289.716	23.028	1955.437	1940.242
290.730	22.836	1954.212	1936.679
291.745	23.660	1952.899	1944.222
292.760	23.778	1952.481	1944.867
293.774	23.474	1952.191	1941.003
294.789	23.581	1950.328	1940.094
295.803	23.573	1948.272	1937.725
296.818	23.725	1948.046	1938.935
297.833	24.099	1948.026	1942.794
298.847	23.892	1944.660	1936.931
299.862	23.675	1942.623	1932.306
300.876	24.090	1943.763	1937.740
301.891	25.429	1946.895	1955.290
302.906	25.718	1944.971	1956.288
303.920	24.322	1939.737	1935.565
304.935	23.806	1936.862	1926.843
305.949	23.675	1934.498	1922.833
306.964	23.667	1932.477	1920.506
307.979	23.451	1929.490	1914.965
308.993	22.944	1927.031	1906.796
310.008	22.370	1924.293	1897.649
311.022	22.274	1922.228	1894.336
312.037	22.225	1921.358	1892.729
313.052	22.024	1919.192	1888.191
314.066	21.930	1917.509	1885.293
315.081	22.067	1916.639	1885.695
316.095	22.060	1915.096	1883.872
317.110	21.808	1912.951	1878.825
318.125	21.594	1911.201	1874.583
319.139	21.592	1909.824	1872.980
320.154	21.908	1908.608	1874.957
321.168	22.067	1907.659	1875.515
322.183	22.686	1908.648	1882.898
323.197	23.564	1909.069	1892.507
324.212	23.614	1907.408	1891.174
325.227	23.330	1905.118	1885.639
326.241	23.787	1904.459	1889.651
327.256	23.988	1903.216	1890.335
328.270	23.577	1902.057	1884.568
329.285	23.543	1901.344	1883.274
330.300	23.904	1902.484	1888.031
331.314	25.143	1904.755	1903.286
332.329	25.459	1901.859	1903.535
333.343	24.378	1896.567	1886.525
334.358	23.597	1893.282	1874.739
335.373	23.583	1891.064	1872.171
336.387	23.766	1890.588	1873.416
337.402	23.786	1889.143	1871.976
338.416	23.869	1888.055	1871.546
339.431	24.104	1884.885	1870.666
340.446	23.703	1883.923	1865.253
341.460	23.407	1881.234	1859.246
342.475	22.923	1879.699	1852.405
343.489	22.428	1876.141	1843.471
344.504	22.066	1874.088	1837.425
345.519	21.920	1873.059	1834.658
346.533	21.891	1870.263	1831.397
347.548	21.931	1869.815	1831.165
348.562	22.097	1868.913	1831.795
349.577	22.104	1868.523	1831.266
350.592	22.518	1867.477	1834.360
351.606	22.490	1865.795	1832.192
352.621	22.154	1863.395	1826.116
353.635	22.098	1862.423	1824.357
354.650	22.459	1863.076	1828.546
355.665	23.168	1862.624	1835.275
356.679	23.240	1862.254	1835.443
357.694	23.673	1861.285	1838.780
358.708	23.820	1860.481	1839.286
359.723	24.183	1861.462	1843.814
360.738	25.491	1863.430	1859.153
361.752	25.654	1861.225	1858.429
362.767	25.126	1857.725	1849.237
363.781	24.405	1853.474	1837.326
364.796	23.948	1851.070	1829.995
365.810	23.791	1850.665	1827.753
366.825	23.819	1848.438	1825.625
367.840	23.041	1844.654	1813.650
368.854	22.098	1842.509	1801.604
369.869	22.244	1840.332	1800.771
370.883	22.378	1840.049	1801.654
371.898	22.453	1839.834	1801.994
372.913	22.361	1837.173	1798.230
373.927	22.165	1835.134	1794.007
374.942	22.263	1834.369	1794.050
375.956	22.504	1834.343	1796.286
376.971	22.795	1832.846	1797.576
377.986	22.840	1831.108	1796.119
379.000	22.825	1829.096	1793.783
380.015	22.653	1828.457	1791.182
381.029	23.214	1827.536	1795.790
382.044	23.482	1826.222	1797.012
383.059	23.481	1824.732	1795.324
384.073	23.657	1824.806	1796.967
385.088	23.997	1824.064	1799.481
386.102	23.782	1822.732	1795.762
387.117	23.372	1819.609	1788.318
388.132	23.280	1820.139	1787.686
389.146	24.165	1821.667	1797.961
390.161	25.226	1822.568	1809.392
391.175	25.418	1818.158	1806.743
392.190	24.168	1812.684	1788.478
393.205	23.665	1809.895	1780.447
394.219	23.459	1807.234	1775.543
395.234	23.245	1806.451	1772.407
396.248	23.177	1805.127	1770.213
397.263	23.226	1802.795	1768.205
398.278	23.478	1801.737	1769.485
399.292	23.416	1800.591	1767.525
400.307	23.200	1799.240	1763.827
401.321	23.068	1798.030	1761.108
402.336	23.353	1797.305	1763.035
403.350	23.281	1795.406	1760.239
404.365	23.203	1794.169	1758.039
405.380	22.868	1791.040	1751.426
406.394	22.016	1788.490	1740.233
407.409	21.843	1786.342	1736.214
408.423	21.921	1785.709	1736.172
409.438	22.050	1783.542	1735.142
410.453	22.220	1782.883	1735.971
411.467	22.443	1782.153	1737.268
412.482	22.334	1782.169	1735.998
413.496	23.222	1782.607	1745.015
414.511	23.696	1781.854	1748.762
415.526	23.704	1779.330	1746.161
416.540	23.382	1778.144	1741.601
417.555	23.519	1777.925	1742.534
418.569	23.914	1778.019	1746.315
419.584	23.920	1777.037	1745.205
420.599	24.006	1777.587	1746.386
421.613	24.301	1776.723	1748.232
422.628	24.029	1773.853	1742.518
423.642	23.554	1770.930	1734.777
424.657	23.358	1769.730	1731.465
425.672	23.747	1768.173	1733.550
426.686	23.295	1766.580	1727.354
427.701	22.871	1763.908	1720.382
428.715	23.079	1762.632	1720.964
429.730	23.382	1762.056	1723.164
430.745	23.646	1761.053	1724.551
431.759	23.600	1760.554	1723.412
432.774	23.874	1760.319	1725.643
433.788	23.429	1758.820	1719.632
434.803	22.919	1757.039	1712.713
435.818	22.925	1756.630	1712.172
436.832	22.825	1755.698	1710.080
437.847	22.278	1749.064	1698.110
438.861	13.956	1724.477	1594.090
439.876	3.033	1703.677	1470.108
440.890	0.349	1698.336	1439.584
441.905	0.122	1697.413	1436.447
442.920	0.202	1696.002	1435.855
443.934	0.242	1693.983	1434.358
444.949	0.162	1693.829	1433.290
445.963	0.081	1692.898	1431.555
446.978	0.129	1693.047	1431.960
447.993	0.081	1691.235	1429.804
449.007	0.027	1688.895	1427.135
450.022	0.045	1686.598	1425.194
451.036	0.187	1685.339	1425.317
452.051	1.441	1692.341	1443.044
453.066	11.866	1716.030	1563.573
454.080	21.624	1730.429	1670.526
455.095	23.911	1736.439	1698.113
456.109	25.862	1738.615	1718.760
457.124	26.344	1738.463	1723.027
458.139	26.156	1737.661	1720.218
459.153	25.981	1736.619	1717.314
460.168	26.032	1734.402	1715.403
461.182	26.366	1733.806	1717.798
462.197	26.702	1732.181	1719.186
463.212	26.416	1730.666	1714.752
464.226	26.385	1730.038	1713.628
465.241	26.900	1728.903	1717.199
466.255	26.946	1728.179	1716.713
467.270	27.208	1726.012	1716.845
468.285	26.921	1724.164	1712.076
469.299	26.923	1724.162	1711.889
470.314	27.234	1722.219	1712.696
471.328	27.245	1721.332	1711.715
472.343	27.135	1721.202	1710.342
473.358	27.340	1718.501	1709.392
474.372	27.174	1718.495	1707.614
475.387	27.263	1717.205	1706.961
476.401	27.115	1715.085	1703.260
477.416	26.893	1713.493	1699.385
478.430	27.180	1712.290	1700.688
479.445	26.950	1711.281	1697.313
480.460	26.859	1708.922	1693.923
481.474	26.976	1708.544	1694.439
482.489	27.336	1708.483	1697.554
483.503	27.632	1706.782	1698.432
484.518	27.631	1705.004	1696.448
485.533	27.570	1703.850	1694.532
486.547	27.404	1702.448	1691.388
487.562	27.547	1701.581	1691.655
488.576	27.646	1700.668	1691.470
489.591	27.769	1699.351	1691.102
490.606	27.745	1697.074	1688.412
491.620	27.678	1696.496	1687.011
492.635	27.928	1695.116	1687.759
493.649	27.847	1694.250	1685.936
494.664	27.370	1691.020	1678.101
495.679	26.856	1689.014	1671.153
496.693	26.951	1688.185	1671.013
497.708	27.377	1688.185	1674.757
498.722	27.836	1687.216	1677.836
499.737	27.945	1685.988	1677.415
500.752	27.571	1684.499	1672.290
501.766	27.430	1683.055	1669.357
502.781	27.691	1680.476	1668.996
503.795	27.570	1679.678	1666.890
504.810	27.526	1678.505	1665.122
505.825	27.735	1678.120	1666.461
506.839	27.603	1675.724	1662.672
507.854	27.435	1674.555	1659.772
508.868	27.478	1673.253	1658.677
509.883	27.271	1671.667	1655.015
510.898	27.216	1670.556	1653.214
511.912	27.022	1667.724	1648.447
512.927	26.362	1665.838	1640.368
513.941	26.268	1664.194	1637.698
514.956	26.411	1663.002	1637.622
515.971	26.654	1662.515	1639.159
516.985	26.691	1661.172	1637.980
518.000	26.432	1660.441	1634.710
519.014	26.600	1659.462	1635.076
520.029	26.724	1658.267	1634.825
521.043	26.776	1656.700	1633.560
522.058	26.872	1655.518	1633.067
523.073	27.092	1655.005	1634.348
524.087	27.461	1654.669	1637.156
525.102	27.743	1652.653	1637.512
526.116	27.434	1652.073	1633.953
527.131	27.359	1651.844	1632.860
528.146	27.688	1651.240	1635.034
529.160	28.054	1650.309	1637.209
530.175	28.150	1649.874	1637.445
531.189	28.211	1648.703	1636.630
532.204	28.370	1646.931	1636.108
533.219	27.940	1645.377	1630.512
534.233	27.488	1644.307	1625.201
535.248	27.426	1643.560	1623.712
536.262	27.950	1643.214	1627.870
537.277	28.278	1641.957	1629.362
538.292	28.135	1640.268	1626.220
539.306	28.208	1638.291	1624.712
540.321	27.979	1635.561	1619.773
541.335	27.598	1634.157	1614.796
542.350	27.945	1633.431	1616.973
543.365	28.318	1632.698	1619.373
544.379	28.515	1631.798	1620.027
545.394	28.538	1630.532	1618.789
546.408	28.155	1627.813	1612.500
547.423	27.505	1626.225	1604.980
548.438	27.527	1625.093	1603.868
549.452	27.824	1624.588	1605.801
550.467	27.956	1623.654	1605.855
551.481	27.944	1622.703	1604.612
552.496	28.216	1622.324	1606.443
553.511	28.521	1621.974	1608.593
554.525	28.363	1620.651	1605.697
555.540	28.458	1619.890	1605.588
556.554	28.414	1618.943	1604.076
557.569	28.289	1616.748	1600.611
558.583	27.984	1614.818	1595.831
559.598	27.976	1612.900	1593.675
560.613	27.783	1612.273	1591.172
561.627	27.855	1611.132	1590.481
562.642	27.832	1609.618	1588.602
563.656	27.866	1607.916	1587.021
564.671	27.657	1606.025	1583.145
565.686	27.551	1604.590	1580.618
566.700	27.118	1603.060	1575.149
567.715	27.022	1601.012	1572.115
568.729	26.957	1599.422	1569.797
569.744	26.887	1598.675	1568.264
570.759	27.155	1597.354	1569.114
571.773	27.192	1596.341	1568.251
572.788	27.257	1594.844	1567.152
573.802	27.217	1593.629	1565.426
574.817	27.246	1592.230	1564.117
575.832	27.573	1591.927	1566.452
576.846	27.901	1591.549	1568.725
577.861	28.044	1590.188	1568.436
578.875	28.285	1589.978	1570.113
579.890	28.598	1589.550	1572.202
580.905	28.622	1588.692	1571.366
581.919	28.948	1588.095	1573.397
582.934	29.151	1587.169	1574.034
583.948	28.913	1586.297	1570.940
584.963	28.632	1584.392	1566.451
585.978	28.434	1582.449	1562.650
586.992	28.265	1581.981	1560.549
588.007	28.572	1581.291	1562.310
589.021	27.995	1577.644	1553.591
590.036	27.085	1575.980	1543.994
591.051	27.806	1576.545	1550.528
592.065	28.534	1575.697	1555.712
593.080	28.815	1574.794	1557.030
594.094	28.925	1573.069	1556.071
595.109	28.533	1569.967	1549.495
596.123	28.156	1568.982	1545.137
597.138	28.496	1568.952	1547.802
598.153	28.562	1567.159	1546.414
599.167	28.649	1565.067	1544.898
600.182	28.428	1564.874	1542.647
601.196	28.595	1564.535	1543.541
602.211	28.605	1563.614	1542.537
603.226	28.591	1562.556	1541.189
604.240	28.966	1561.030	1542.661
605.255	29.099	1560.202	1542.781
606.269	29.134	1559.176	1541.876
607.284	28.811	1558.229	1538.035
608.299	28.798	1555.710	1535.259
609.313	28.455	1554.255	1530.763
610.328	28.407	1553.080	1529.016
611.342	28.689	1551.596	1529.733
612.357	28.577	1550.504	1527.538
613.372	28.611	1549.886	1527.029
614.386	28.405	1548.398	1523.658
615.401	28.432	1547.839	1523.156
616.415	28.298	1546.980	1521.010
617.430	28.175	1545.645	1518.484
618.445	28.102	1543.678	1515.766
619.459	27.904	1541.187	1511.493
620.474	27.616	1540.613	1508.351
621.488	27.481	1539.127	1505.591
622.503	27.550	1537.586	1504.475
623.518	27.526	1537.092	1503.613
624.532	27.892	1536.387	1505.780
625.547	27.789	1535.763	1504.138
626.561	27.952	1535.026	1504.579
627.576	28.161	1533.751	1504.885
628.591	28.031	1531.486	1501.408
629.605	27.855	1530.145	1498.460
630.620	27.990	1529.225	1498.494
631.634	27.809	1528.344	1495.958
632.649	27.978	1527.895	1496.728
633.663	28.030	1526.898	1496.007
634.678	27.840	1526.125	1493.503
635.693	28.093	1524.423	1493.734
636.707	28.059	1522.612	1491.503
637.722	28.250	1521.848	1492.144
638.736	28.669	1521.026	1494.590
639.751	28.914	1520.464	1495.862
640.766	28.871	1518.815	1493.708
641.780	28.972	1517.554	1493.111
642.795	28.834	1517.418	1491.677
643.809	28.948	1517.071	1492.085
644.824	29.188	1516.249	1493.050
645.839	29.202	1515.397	1492.149
646.853	29.302	1514.157	1491.563
647.868	29.109	1512.241	1487.927
648.882	28.924	1510.487	1484.524
649.897	28.969	1509.160	1483.412
650.912	28.899	1507.137	1480.678
651.926	29.093	1506.508	1481.453
652.941	28.970	1505.219	1479.010
653.955	28.437	1502.201	1471.571
654.970	27.564	1499.369	1461.583
655.985	27.544	1497.845	1459.765
656.999	27.320	1496.975	1456.939
658.014	27.710	1496.760	1459.695
659.028	28.278	1497.677	1464.983
660.043	28.873	1497.162	1469.086
661.058	29.048	1496.466	1469.630
662.072	29.017	1495.155	1467.917
663.087	28.930	1493.616	1465.532
664.101	28.712	1492.252	1462.272
665.116	28.864	1491.455	1462.537
666.131	28.957	1491.010	1462.670
667.145	29.195	1489.687	1463.091
668.160	29.059	1489.185	1461.343
669.174	29.045	1487.658	1459.555
670.189	29.293	1486.566	1460.283
671.204	29.248	1485.403	1458.609
672.218	29.134	1484.884	1457.021
673.233	29.344	1484.066	1457.709
674.247	29.598	1482.375	1457.893
675.262	29.541	1481.654	1456.553
676.276	29.416	1480.485	1454.241
677.291	29.087	1479.572	1450.563
678.306	29.105	1477.822	1448.813
679.320	28.966	1476.657	1446.402
680.335	28.922	1475.762	1445.004
681.349	28.985	1475.408	1444.983
682.364	29.190	1473.624	1444.683
683.379	28.917	1472.427	1441.186
684.393	28.814	1470.829	1438.638
685.408	28.949	1469.044	1437.775
686.422	28.702	1468.078	1434.721
687.437	28.506	1467.633	1432.575
688.452	28.491	1466.456	1431.136
689.466	28.429	1464.178	1428.257
690.481	28.454	1462.549	1426.696
691.495	28.178	1462.614	1424.426
692.510	28.163	1461.577	1423.127
693.525	28.154	1459.502	1420.867
694.539	28.204	1458.989	1420.589
695.554	28.193	1458.578	1419.930
696.568	28.340	1457.020	1419.387
697.583	28.363	1456.650	1419.037
698.598	28.737	1455.662	1420.814
699.612	28.818	1454.911	1420.544
700.627	29.067	1454.102	1421.514
701.641	29.063	1453.467	1420.691
702.656	29.177	1452.524	1420.488
703.671	29.323	1452.169	1421.099
704.685	29.625	1451.563	1422.673
705.700	29.522	1448.860	1419.063
706.714	29.192	1447.122	1414.640
707.729	28.874	1445.973	1410.892
708.744	29.051	1444.134	1410.296
709.758	28.928	1442.970	1408.043
710.773	28.185	1441.321	1400.553
711.787	28.023	1439.823	1397.688
712.802	28.657	1439.544	1402.112
713.816	28.892	1439.208	1403.425
714.831	29.107	1438.487	1404.204
715.846	29.200	1437.473	1403.752
716.860	29.342	1435.702	1402.947
717.875	29.320	1434.353	1401.290
718.889	29.011	1433.791	1398.212
719.904	28.946	1432.532	1396.322
720.919	29.129	1431.481	1396.522
721.933	28.978	1430.926	1394.669
722.948	29.158	1429.560	1394.534
723.962	29.039	1428.494	1392.425
724.977	29.232	1427.948	1393.192
725.992	29.258	1427.260	1392.555
727.006	29.465	1425.899	1392.632
728.021	29.560	1424.031	1391.355
729.035	29.396	1423.100	1389.041
730.050	29.352	1422.795	1388.246
731.065	29.346	1421.539	1386.805
732.079	29.370	1419.670	1384.995
733.094	29.174	1419.492	1383.176
734.108	29.423	1416.990	1382.452
735.123	29.522	1415.235	1381.322
736.138	29.323	1414.388	1378.828
737.152	29.317	1414.156	1378.397
738.167	29.208	1413.535	1376.808
739.181	29.259	1412.532	1376.044
740.196	29.387	1411.700	1376.028
741.211	29.266	1410.461	1373.756
742.225	29.308	1408.994	1372.473
743.240	29.050	1408.055	1369.467
744.254	29.056	1406.052	1367.399
745.269	28.885	1404.688	1364.628
746.284	28.733	1403.171	1361.864
747.298	28.517	1402.624	1359.556
748.313	28.428	1400.799	1356.965
749.327	28.182	1401.138	1355.296
750.342	28.194	1400.005	1354.132
751.356	28.198	1398.734	1352.769
752.371	28.346	1397.166	1352.189
753.386	28.536	1395.908	1352.219
754.400	28.824	1396.242	1354.516
755.415	29.227	1396.244	1357.335
756.429	29.462	1395.147	1357.847
757.444	29.347	1394.741	1356.442
758.459	29.390	1393.224	1355.117
759.473	29.451	1391.532	1353.761
760.488	29.228	1389.826	1350.300
761.502	28.920	1388.519	1346.599
762.517	29.114	1387.662	1347.034
763.532	29.323	1386.550	1347.328
764.546	29.086	1384.558	1343.493
765.561	28.436	1382.565	1336.634
766.575	27.543	1380.929	1328.350
767.590	27.602	1380.055	1327.787
768.605	28.343	1379.846	1332.850
769.619	28.890	1379.344	1336.203
770.634	29.127	1378.751	1337.193
771.648	29.034	1377.443	1335.088
772.663	29.042	1376.639	1334.208
773.678	29.249	1376.636	1335.554
774.692	29.407	1375.660	1335.600
775.707	29.269	1375.624	1334.398
776.721	29.436	1374.348	1334.211
777.736	29.366	1373.407	1332.635
778.751	29.265	1372.436	1330.799
779.765	29.462	1370.858	1330.537
780.780	29.403	1370.264	1329.375
781.794	29.428	1369.267	1328.424
782.809	29.069	1366.797	1323.281
783.824	28.684	1365.339	1318.929
784.838	28.535	1363.800	1316.208
785.853	28.223	1363.500	1313.515
786.867	28.380	1362.788	1313.801
787.882	28.457	1362.409	1313.833
788.897	28.461	1361.074	1312.418
789.911	28.453	1360.279	1311.436
790.926	28.527	1358.976	1310.554
791.940	28.712	1357.523	1310.327
792.955	28.849	1356.804	1310.457
793.969	28.941	1355.692	1309.885
794.984	28.979	1355.030	1309.360
795.999	29.230	1354.231	1310.226
797.013	29.524	1352.821	1310.802
798.028	29.323	1351.745	1308.167
799.042	29.234	1351.217	1306.863
800.057	29.276	1350.344	1306.165
801.072	29.363	1348.581	1304.921
802.086	29.400	1347.170	1303.662
803.101	29.394	1346.126	1302.454
804.115	29.298	1346.061	1301.556
805.130	29.268	1344.616	1299.791
806.145	29.164	1343.106	1297.436
807.159	28.954	1341.997	1294.725
808.174	28.950	1341.224	1293.794
809.188	29.213	1339.682	1294.014
810.203	29.103	1337.368	1290.847
811.218	28.676	1335.444	1285.829
812.232	28.223	1334.074	1281.166
813.247	27.907	1332.791	1277.563
814.261	28.326	1333.499	1281.033
815.276	28.841	1333.494	1284.493
816.291	28.875	1332.163	1283.300
817.305	28.988	1330.841	1282.665
818.320	29.092	1329.823	1282.259
819.334	29.236	1328.454	1281.790
820.349	29.254	1327.533	1280.871
821.364	29.418	1326.093	1280.473
822.378	29.270	1325.176	1278.407
823.393	29.221	1323.197	1276.001
824.407	29.381	1321.838	1275.648
825.422	29.047	1321.950	1273.281
826.437	29.075	1320.069	1271.515
827.451	28.802	1317.835	1267.320
828.466	28.490	1316.308	1263.534
829.480	28.471	1314.881	1261.883
830.495	28.558	1312.816	1260.350
831.509	28.552	1312.598	1259.950
832.524	28.740	1312.229	1260.744
833.539	29.133	1311.281	1262.389
834.553	29.196	1310.318	1261.744
835.568	29.133	1309.312	1260.191
836.582	29.256	1308.604	1260.210
837.597	29.239	1307.112	1258.502
838.612	29.150	1305.507	1256.197
839.626	29.096	1303.846	1254.079
840.641	28.811	1302.835	1251.005
841.655	28.572	1302.018	1248.437
842.670	28.112	1299.800	1243.019
843.685	27.438	1298.390	1236.921
844.699	28.037	1298.302	1240.780
845.714	28.780	1297.286	1244.716
846.728	28.722	1296.505	1243.428
847.743	28.771	1295.919	1243.051
848.758	28.854	1295.312	1242.879
849.772	29.034	1294.461	1243.138
850.787	29.128	1292.884	1242.110
851.801	29.078	1291.450	1240.249
852.816	28.938	1290.539	1238.277
853.831	28.994	1288.754	1236.792
854.845	28.978	1286.509	1234.385
855.860	28.816	1284.526	1231.246
856.874	28.473	1284.640	1228.894
857.889	28.325	1282.949	1226.135
858.904	28.504	1281.703	1225.997
859.918	28.594	1279.863	1224.696
860.933	28.345	1279.099	1222.151
861.947	28.323	1278.610	1221.390
862.962	28.400	1277.089	1220.304
863.977	28.454	1275.456	1218.962
864.991	28.458	1275.545	1218.924
866.006	28.485	1275.006	1218.446
867.020	28.832	1273.405	1219.083
868.035	28.995	1273.072	1219.702
869.049	29.019	1272.080	1218.766
870.064	29.367	1271.216	1220.111
871.079	29.147	1270.558	1217.865
872.093	28.851	1269.874	1215.098
873.108	29.001	1268.167	1214.316
874.122	28.724	1265.801	1210.074
875.137	28.224	1265.524	1206.353
876.152	28.047	1264.530	1204.086
877.166	28.177	1263.202	1203.537
878.181	28.544	1261.950	1204.622
879.195	28.747	1261.168	1205.072
880.210	28.967	1260.845	1206.073
881.225	29.035	1260.017	1205.582
882.239	29.110	1259.234	1205.182
883.254	29.027	1258.834	1204.110
884.268	29.245	1257.219	1203.853
885.283	29.260	1255.445	1202.105
886.298	28.998	1254.301	1199.149
887.312	29.128	1253.478	1199.070
888.327	28.929	1252.513	1196.704
889.341	29.141	1251.190	1196.680
890.356	28.821	1250.517	1193.807
891.371	28.776	1250.505	1193.356
892.385	28.566	1249.547	1190.930
893.400	28.324	1248.809	1188.503
894.414	28.532	1247.076	1188.071
895.429	28.357	1245.353	1185.150
896.444	28.366	1243.729	1183.517
897.458	28.369	1242.181	1181.922
898.473	28.504	1240.920	1181.454
899.487	28.502	1240.123	1180.546
900.502	28.348	1239.889	1179.183
901.517	28.624	1238.447	1179.452
902.531	29.006	1237.287	1180.673
903.546	28.836	1237.617	1179.750
904.560	29.010	1237.222	1180.353
905.575	29.028	1235.692	1178.871
906.589	28.968	1234.460	1177.167
907.604	28.594	1233.922	1174.105
