DTS Sentinel unit serial number:	SN409020Multiplexer serial number:	ORYXHardware model number:	OX4-SRSoftware version number:	ORYX F/W v3.00 Oryx Data Collector v3.7.2.0data status	okinstallation	HaddamTimeLapsedifferential loss correction	single-endedforward channel	channel 3reverse channel	N/Adate	2011/06/22time	07:41:17forward acquisition time	30.00reverse acquisition time	0.00gamma	498.7831k internal	0.1760k external	0.1760temperature offset calibration	1.0074default loss term (dB/km)	0.3790temperature slope calibration	1.3530multiplexer offset coefficient	1.0000multiplexer slope coefficient	1.0000fibre end	0.00T internal ref (°C)	23.81T ext. ref 1 (°C)	21.61T ext. ref 2 (°C)	0.14length (m)	temperature (°C)	Stokes	anti-Stokes-747.200	-99.882	0.344	0.113
-746.185	3.170	-0.125	0.120
-745.171	-200.000	-0.040	0.310
-744.156	464.571	0.063	-0.189
-743.142	-10.483	0.263	-0.230
-742.127	-48.376	0.429	-0.272
-741.112	54.403	0.186	0.237
-740.098	-196.156	-0.187	-0.002
-739.083	-11.859	0.268	-0.232
-738.069	-200.000	-0.016	0.324
-737.054	308.717	0.059	0.146
-736.039	102.388	0.241	0.373
-735.025	-111.392	0.419	-0.112
-734.010	-200.000	0.054	-0.521
-732.996	276.179	-0.145	0.342
-731.981	800.000	0.141	-0.593
-730.966	-100.264	0.781	0.255
-729.952	38.080	-0.196	0.231
-728.937	-23.200	-0.048	0.038
-727.923	-200.000	-0.004	-0.156
-726.908	-62.393	-0.344	0.188
-725.894	-200.000	0.021	0.344
-724.879	-157.695	-0.457	0.035
-723.864	-35.322	0.096	-0.069
-722.850	-38.102	0.633	-0.442
-721.835	-200.000	-0.056	0.330
-720.821	-171.684	0.075	-0.003
-719.806	800.000	0.038	-0.193
-718.791	-93.388	-0.613	-0.223
-717.777	348.691	-0.150	-0.392
-716.762	25.317	0.318	-0.349
-715.748	61.550	-0.202	-0.266
-714.733	30.916	0.287	0.325
-713.718	63.962	0.065	0.086
-712.704	120.236	0.158	0.259
-711.689	-200.000	0.005	0.050
-710.675	-149.062	0.257	0.027
-709.660	-141.822	-0.321	-0.042
-708.645	149.386	-0.279	0.499
-707.631	80.627	0.187	0.266
-706.616	593.480	-0.102	0.334
-705.602	-100.187	0.185	0.060
-704.587	182.774	-0.149	0.291
-703.572	-94.776	-0.243	-0.086
-702.558	33.119	-0.342	-0.392
-701.543	800.000	-0.027	0.145
-700.529	109.424	0.146	0.231
-699.514	-99.847	-0.449	-0.147
-698.499	171.914	-0.289	0.550
-697.485	67.699	0.370	0.499
-696.470	-61.983	0.171	-0.094
-695.456	-165.009	-0.463	0.027
-694.441	-60.332	0.450	-0.252
-693.426	-117.764	0.138	0.032
-692.412	-200.000	0.013	-0.176
-691.397	-39.435	0.030	-0.021
-690.383	-123.881	0.331	-0.068
-689.368	-136.780	-0.198	0.030
-688.354	-43.124	-0.272	0.181
-687.339	-84.710	0.461	-0.191
-686.324	3.038	0.066	0.063
-685.310	-13.460	0.300	0.257
-684.295	800.000	0.061	-0.270
-683.281	-18.526	-0.130	0.107
-682.266	86.060	0.230	-0.334
-681.251	-135.313	0.633	0.099
-680.237	23.965	0.155	0.168
-679.222	-200.000	-0.014	0.240
-678.208	-200.000	0.060	0.458
-677.193	-13.829	0.260	0.221
-676.178	58.436	0.096	-0.124
-675.164	-74.219	-0.385	-0.183
-674.149	-41.056	-0.291	-0.198
-673.135	-4.974	0.183	-0.166
-672.120	-69.184	0.538	0.272
-671.105	-65.041	0.027	-0.014
-670.091	-16.712	-0.062	0.052
-669.076	-102.385	-0.254	-0.080
-668.062	-152.501	0.207	-0.019
-667.047	259.618	-0.147	-0.336
-666.032	16.203	-0.356	-0.370
-665.018	-121.288	-0.188	0.041
-664.003	-25.941	-0.171	0.132
-662.989	-39.806	-0.299	-0.205
-661.974	-56.696	0.415	-0.241
-660.959	800.000	0.111	-0.613
-659.945	-23.555	0.440	-0.347
-658.930	-106.287	-0.426	-0.125
-657.916	-108.957	0.294	0.082
-656.901	-5.332	0.080	0.072
-655.886	-121.158	0.354	0.077
-654.872	-200.000	0.054	-0.372
-653.857	28.607	-0.306	-0.341
-652.843	34.558	-0.184	-0.212
-651.828	-200.000	0.002	0.506
-650.814	39.917	-0.382	0.452
-649.799	11.030	0.025	-0.025
-648.784	190.670	-0.037	0.073
-647.770	-14.284	-0.302	0.256
-646.755	85.952	-0.138	-0.200
-645.741	800.000	-0.117	-0.465
-644.726	-103.806	-0.158	-0.048
-643.711	67.555	0.093	-0.125
-642.697	-91.325	-0.647	-0.242
-641.682	-162.918	0.088	0.006
-640.668	100.956	-0.061	0.094
-639.653	128.076	0.146	0.245
-638.638	-132.417	-0.181	0.030
-637.624	55.575	0.165	-0.211
-636.609	-118.984	-0.288	-0.066
-635.595	800.000	-0.039	-0.167
-634.580	-159.838	-0.222	-0.016
-633.565	-125.031	0.304	-0.061
-632.551	497.888	-0.056	-0.171
-631.536	-60.266	0.297	-0.166
-630.522	0.056	-0.075	0.070
-629.507	-67.023	0.079	0.041
-628.492	800.000	0.173	-0.694
-627.478	105.549	0.251	-0.391
-626.463	-110.342	0.353	0.096
-625.449	175.177	-0.120	-0.229
-624.434	158.256	0.052	-0.095
-623.419	672.535	-0.055	-0.189
-622.405	-52.893	-0.399	-0.241
-621.390	-47.411	-0.058	0.037
-620.376	275.964	-0.208	-0.487
-619.361	-38.904	-0.291	-0.201
-618.346	-60.842	0.278	-0.154
-617.332	473.486	0.084	-0.251
-616.317	-200.000	0.045	-0.518
-615.303	-137.334	-0.438	0.065
-614.288	162.728	-0.151	0.280
-613.273	5.920	0.061	-0.060
-612.259	-129.057	-0.375	0.068
-611.244	-172.028	-0.222	-0.009
-610.230	-200.000	0.023	-0.376
-609.215	76.204	-0.198	-0.276
-608.201	-200.000	0.008	0.157
-607.186	-4.603	-0.350	-0.318
-606.171	-76.601	0.231	-0.106
-605.157	148.110	-0.295	0.524
-604.142	-138.422	0.666	0.095
-603.128	70.738	0.294	-0.401
-602.113	-34.555	0.197	0.141
-601.098	-17.444	0.326	0.269
-600.084	-63.511	0.267	0.144
-599.069	229.668	0.087	-0.188
-598.055	678.185	0.059	-0.201
-597.040	-174.595	-0.436	0.016
-596.025	-200.000	-0.005	-0.524
-595.011	-4.105	0.235	-0.214
-593.996	-74.305	-0.259	0.123
-592.982	-1.829	-0.143	-0.132
-591.967	-46.617	0.336	-0.216
-590.952	-36.997	-0.159	0.112
-589.938	-2.279	-0.159	-0.146
-588.923	-134.770	-0.445	0.070
-587.909	483.718	-0.114	-0.343
-586.894	-200.000	-0.031	0.286
-585.879	-74.701	-0.440	-0.207
-584.865	-126.714	-0.238	0.046
-583.850	800.000	0.110	-0.431
-582.836	63.775	-0.314	-0.414
-581.821	-200.000	-0.039	0.367
-580.806	-9.100	0.187	-0.164
-579.792	-49.674	-0.129	0.080
-578.777	-138.109	-0.271	-0.039
-577.763	387.151	0.174	-0.474
-576.748	13.389	0.285	-0.290
-575.733	-200.000	-0.054	0.363
-574.719	-164.694	0.064	0.004
-573.704	-200.000	0.060	0.528
-572.690	121.336	-0.111	-0.183
-571.675	-83.792	0.232	0.096
-570.661	60.214	-0.192	0.249
-569.646	299.170	-0.094	0.227
-568.631	116.385	-0.075	-0.120
-567.617	-153.499	-0.320	-0.029
-566.602	800.000	0.023	0.126
-565.588	201.859	-0.214	0.434
-564.573	-87.861	0.280	0.110
-563.558	-80.946	0.215	-0.093
-562.544	-153.314	-0.464	-0.042
-561.529	-20.123	0.114	-0.092
-560.515	-200.000	0.038	-0.331
-559.500	-33.175	-0.147	-0.106
-558.485	-76.404	0.439	-0.202
-557.471	127.639	0.087	-0.146
-556.456	-60.258	0.598	0.333
-555.442	637.694	0.190	0.638
-554.427	121.546	-0.230	0.377
-553.412	-174.758	-0.399	-0.015
-552.398	-200.000	-0.018	-0.273
-551.383	-4.758	0.261	-0.236
-550.369	800.000	-0.086	0.337
-549.354	-108.323	-0.231	0.065
-548.339	310.236	0.159	-0.391
-547.325	-59.099	0.441	-0.249
-546.310	41.402	-0.311	-0.369
-545.296	-200.000	0.049	-0.403
-544.281	-179.518	-0.120	0.003
-543.266	36.543	0.227	-0.263
-542.252	-112.450	0.251	0.065
-541.237	-200.000	0.007	0.101
-540.223	-158.830	-0.414	-0.031
-539.208	-136.221	0.438	0.067
-538.193	69.019	-0.493	0.664
-537.179	800.000	0.098	-0.516
-536.164	-35.893	0.200	-0.142
-535.150	367.837	-0.025	-0.068
-534.135	24.423	0.133	-0.145
-533.121	-17.528	-0.132	-0.108
-532.106	-200.000	-0.008	-0.139
-531.091	733.956	0.057	-0.203
-530.077	-87.299	-0.453	-0.179
-529.062	800.000	-0.038	0.195
-528.048	-103.443	-0.202	0.062
-527.033	-94.573	-0.450	0.160
-526.018	79.976	0.199	0.281
-525.004	-27.511	-0.277	0.210
-523.989	-200.000	-0.023	0.262
-522.975	22.427	-0.119	0.127
-521.960	58.448	-0.080	0.104
-520.945	-200.000	-0.015	0.215
-519.931	-31.314	0.157	0.115
-518.916	-83.771	0.537	-0.223
-517.902	53.169	0.061	0.077
-516.887	-148.979	0.257	0.027
-515.872	-64.738	0.033	0.017
-514.858	-48.472	-0.359	0.226
-513.843	-1.073	0.073	-0.068
-512.829	-166.121	0.427	-0.023
-511.814	-152.911	-0.392	0.036
-510.799	-29.715	0.439	0.328
-509.785	73.927	0.121	0.166
-508.770	-121.611	0.274	0.059
-507.756	69.848	-0.205	-0.278
-506.741	111.320	0.128	0.202
-505.726	-46.454	-0.447	0.287
-504.712	-63.644	0.335	0.179
-503.697	64.707	0.175	-0.232
-502.683	-28.794	0.325	0.244
-501.668	-200.000	0.008	-0.143
-500.653	-200.000	0.051	0.525
-499.639	-117.538	-0.437	-0.103
-498.624	-200.000	-0.011	-0.591
-497.610	-159.370	0.118	0.008
-496.595	-151.272	0.433	0.042
-495.581	800.000	0.031	-0.162
-494.566	-104.849	-0.266	0.080
-493.551	-134.983	0.441	0.069
-492.537	208.871	-0.197	-0.406
-491.522	-128.885	0.425	0.077
-490.508	481.989	-0.038	0.112
-489.493	-73.364	-0.284	0.135
-488.478	27.340	0.079	-0.087
-487.464	63.692	-0.302	-0.397
-486.449	-112.715	0.172	-0.045
-485.435	70.526	-0.216	-0.292
-484.420	212.432	0.102	-0.210
-483.405	-107.259	-0.163	0.047
-482.391	278.821	-0.091	0.213
-481.376	-1.255	-0.045	-0.042
-480.362	-200.000	-0.039	0.445
-479.347	-59.517	-0.586	0.328
-478.332	502.599	0.033	-0.099
-477.318	154.109	-0.075	-0.135
-476.303	800.000	0.068	-0.304
-475.289	-200.000	-0.018	0.400
-474.274	-200.000	0.088	-0.591
-473.259	-167.794	0.455	-0.023
-472.245	-32.173	-0.123	0.090
-471.230	-79.456	0.425	0.187
-470.216	14.154	0.712	0.725
-469.201	-200.000	-0.051	0.399
-468.186	479.350	-0.218	0.650
-467.172	35.774	0.440	0.506
-466.157	-151.514	0.136	-0.013
-465.143	-130.274	-0.118	-0.021
-464.128	27.499	0.109	-0.119
-463.113	-200.000	-0.018	0.158
-462.099	621.293	0.035	0.116
-461.084	38.236	0.067	-0.078
-460.070	-118.613	0.357	-0.082
-459.055	8.615	0.234	-0.230
-458.040	-81.868	0.049	0.021
-457.026	-84.001	-0.188	0.078
-456.011	800.000	-0.040	-0.221
-454.997	84.004	-0.182	-0.260
-453.982	-200.000	-0.039	-0.306
-452.968	-9.603	0.388	-0.338
-451.953	-63.382	-0.323	-0.173
-450.938	-59.678	0.218	-0.122
-449.924	59.234	-0.258	-0.332
-448.909	-200.000	0.010	-0.139
-447.895	-114.477	-0.275	0.068
-446.880	145.005	-0.226	-0.395
-445.865	69.347	0.170	0.228
-444.851	-89.471	0.340	-0.130
-443.836	75.210	-0.074	0.101
-442.822	224.115	0.051	0.108
-441.807	-29.525	0.221	0.165
-440.792	-134.176	0.147	-0.023
-439.778	-200.000	0.023	-0.405
-438.763	237.874	0.120	0.261
-437.749	-48.099	0.315	-0.198
-436.734	26.968	-0.104	0.114
-435.719	-69.743	0.355	-0.177
-434.705	72.713	-0.144	-0.197
-433.690	-32.633	0.245	0.178
-432.676	-34.911	-0.354	0.251
-431.661	67.079	-0.117	0.155
-430.646	-60.493	-0.077	0.043
-429.632	133.563	-0.399	-0.676
-428.617	-132.313	-0.378	-0.063
-427.603	-64.941	0.490	-0.257
-426.588	-53.567	-0.122	-0.072
-425.573	-164.683	-0.127	0.007
-424.559	321.387	-0.063	-0.158
-423.544	-106.215	0.419	0.122
-422.530	-8.205	0.269	-0.236
-421.515	-116.953	0.188	-0.045
-420.500	-150.743	0.349	-0.034
-419.486	-118.561	-0.593	0.136
-418.471	42.333	0.077	-0.091
-417.457	613.891	0.090	0.295
-416.442	-45.499	-0.282	0.182
-415.428	84.034	0.133	0.190
-414.413	245.187	-0.084	0.185
-413.398	97.066	-0.173	-0.259
-412.384	-92.883	0.243	0.088
-411.369	-200.000	0.005	0.420
-410.355	-83.078	-0.532	0.222
-409.340	-127.835	-0.467	0.087
-408.325	-67.632	0.221	-0.113
-407.311	71.562	0.342	-0.464
-406.296	482.606	-0.096	-0.285
-405.282	800.000	-0.034	-0.135
-404.267	94.071	-0.382	0.566
-403.252	131.705	0.361	0.608
-402.238	-144.528	0.459	-0.055
-401.223	-98.686	-0.266	0.088
-400.209	-12.174	0.287	-0.244
-399.194	-96.291	0.119	0.041
-398.179	-89.262	0.434	0.166
-397.165	9.127	0.439	-0.433
-396.150	180.995	0.295	-0.566
-395.136	-40.999	0.185	-0.124
-394.121	-132.692	0.256	0.042
-393.106	-200.000	0.028	-0.429
-392.092	-14.961	-0.387	-0.323
-391.077	270.671	-0.113	0.259
-390.063	-138.750	0.422	0.059
-389.048	-94.472	0.297	0.105
-388.033	-69.416	-0.141	0.070
-387.019	-40.129	0.171	0.116
-386.004	102.343	0.074	0.113
-384.990	-162.448	-0.699	-0.045
-383.975	-85.261	0.146	-0.059
-382.960	429.192	-0.139	0.394
-381.946	692.044	0.081	-0.278
-380.931	-92.836	-0.218	0.079
-379.917	-73.872	-0.107	0.051
-378.902	-82.845	-0.276	-0.116
-377.888	-35.260	0.184	0.130
-376.873	87.060	0.170	-0.245
-375.858	-90.357	0.190	0.072
-374.844	47.639	0.099	0.120
-373.829	8.455	-0.449	-0.440
-372.815	-200.000	-0.019	-0.116
-371.800	-17.303	0.460	0.377
-370.785	800.000	0.036	-0.163
-369.771	-186.401	0.364	0.007
-368.756	-160.775	0.325	-0.022
-367.742	-58.113	0.320	-0.181
-366.727	800.000	0.104	0.514
-365.712	-84.212	0.461	0.189
-364.698	89.946	0.203	0.296
-363.683	-91.470	-0.295	0.109
-362.669	-46.062	0.079	-0.050
-361.654	251.628	-0.194	0.432
-360.639	800.000	-0.049	0.216
-359.625	299.644	-0.082	0.199
-358.610	171.305	0.063	-0.119
-357.596	-53.237	0.082	0.049
-356.581	-70.926	0.084	0.041
-355.566	-80.338	0.155	0.067
-354.552	144.730	0.142	0.248
-353.537	231.317	0.091	-0.194
-352.523	102.315	0.246	0.375
-351.508	67.709	-0.098	0.130
-350.493	517.560	0.036	0.111
-349.479	48.641	0.251	0.306
-348.464	-48.781	-0.309	0.192
-347.450	-23.238	0.379	0.297
-346.435	213.565	-0.280	0.578
-345.420	-200.000	-0.031	0.629
-344.406	-200.000	-0.074	0.531
-343.391	50.065	-0.266	0.326
-342.377	105.114	-0.187	0.288
-341.362	345.783	0.214	0.550
-340.348	-200.000	-0.003	-0.143
-339.333	17.060	0.069	0.071
-338.318	99.330	0.229	-0.345
-337.304	-200.000	0.022	-0.254
-336.289	-103.115	0.254	-0.078
-335.275	-6.701	-0.191	0.169
-334.260	463.984	-0.183	-0.534
-333.245	-54.310	-0.353	-0.207
-332.231	-162.243	-0.381	-0.024
-331.216	800.000	-0.052	0.219
-330.202	-200.000	-0.055	0.514
-329.187	498.900	-0.083	0.249
-328.172	-25.727	0.266	-0.204
-327.158	71.132	0.132	0.178
-326.143	132.480	-0.063	0.107
-325.129	79.506	0.149	0.208
-324.114	-200.000	-0.006	-0.134
-323.099	418.158	0.184	0.515
-322.085	800.000	0.073	0.268
-321.070	-90.673	0.420	-0.157
-320.056	-109.550	0.317	0.086
-319.041	275.217	0.139	-0.323
-318.026	553.709	0.129	-0.406
-317.012	-77.070	-0.172	0.077
-315.997	-200.000	-0.029	0.190
-314.983	34.769	0.245	0.279
-313.968	-9.638	-0.361	-0.312
-312.953	-86.059	-0.283	-0.113
-311.939	-94.384	-0.218	-0.077
-310.924	-200.000	-0.031	-0.671
-309.910	-70.994	0.056	0.027
-308.895	-53.724	-0.011	-0.007
-307.880	-53.781	-0.401	0.237
-306.866	24.799	-0.303	0.327
-305.851	-158.254	0.359	0.027
-304.837	72.882	-0.270	-0.367
-303.822	20.320	-0.380	-0.398
-302.807	-200.000	0.013	0.178
-301.793	471.163	-0.018	0.053
-300.778	242.731	-0.128	-0.280
-299.764	-25.773	-0.122	0.093
-298.749	125.311	-0.090	0.147
-297.735	705.145	0.078	-0.270
-296.720	800.000	0.067	0.306
-295.705	-69.477	-0.557	-0.276
-294.691	-86.202	-0.028	-0.011
-293.676	-47.275	-0.161	-0.102
-292.662	103.763	0.177	0.271
-291.647	800.000	-0.054	-0.237
-290.632	800.000	-0.050	0.227
-289.618	-122.394	-0.587	0.123
-288.603	-52.339	0.127	0.076
-287.589	-58.687	0.515	0.289
-286.574	-200.000	-0.001	-0.017
-285.559	-117.468	-0.482	0.112
-284.545	-200.000	0.073	-0.447
-283.530	-143.050	-0.156	-0.019
-282.516	49.207	0.164	-0.200
-281.501	556.306	0.192	0.605
-280.486	27.080	0.426	0.464
-279.472	68.862	-0.250	-0.334
-278.457	-61.208	0.307	0.167
-277.443	-158.743	-0.288	-0.021
-276.428	155.260	0.305	-0.547
-275.413	-85.585	0.404	-0.162
-274.399	65.344	-0.183	-0.240
-273.384	171.298	-0.116	-0.217
-272.370	-118.219	-0.259	0.059
-271.355	616.906	0.021	0.068
-270.340	-147.107	-0.282	-0.031
-269.326	-121.270	0.490	0.105
-268.311	-22.771	0.160	0.125
-267.297	-161.866	-0.129	0.008
-266.282	-50.184	-0.141	0.087
-265.267	-155.640	0.565	0.046
-264.253	5.041	-0.213	0.203
-263.238	-122.841	-0.689	0.143
-262.224	147.794	-0.161	0.282
-261.209	417.005	-0.209	-0.580
-260.195	-121.746	-0.492	-0.105
-259.180	-113.747	0.424	-0.106
-258.165	-100.777	-0.186	0.059
-257.151	-61.559	0.040	-0.022
-256.136	4.323	0.494	-0.469
-255.122	118.708	0.140	-0.225
-254.107	31.570	0.114	-0.128
-253.092	244.105	-0.204	0.446
-252.078	-132.779	0.162	0.027
-251.063	52.040	-0.329	-0.406
-250.049	-68.406	0.212	-0.106
-249.034	103.182	0.067	0.102
-248.019	5.601	0.308	-0.295
-247.005	-123.111	0.120	0.025
-245.990	48.392	0.231	-0.281
-244.976	-71.864	-0.392	0.188
-243.961	800.000	-0.160	-0.578
-242.946	-200.000	0.002	-0.290
-241.932	800.000	0.147	-0.650
-240.917	-200.000	0.036	0.335
-239.903	65.818	0.246	0.324
-238.888	-36.952	0.186	0.129
-237.873	-200.000	-0.007	0.432
-236.859	97.118	-0.276	-0.411
-235.844	-67.424	-0.102	-0.051
-234.830	170.113	-0.079	0.148
-233.815	-200.000	0.024	-0.216
-232.800	-54.168	-0.070	-0.041
-231.786	-68.048	0.117	-0.059
-230.771	-200.000	-0.039	0.555
-229.757	44.353	-0.174	-0.207
-228.742	111.759	-0.201	-0.315
-227.727	-131.894	0.102	-0.017
-226.713	-200.000	0.048	0.562
-225.698	-159.377	0.409	-0.029
-224.684	-59.843	0.312	-0.172
-223.669	-71.325	0.337	-0.163
-222.655	-78.875	0.414	-0.182
-221.640	727.278	-0.049	0.171
-220.625	-200.000	-0.004	-0.154
-219.611	-46.595	0.220	0.139
-218.596	258.483	0.085	0.191
-217.582	800.000	-0.031	0.122
-216.567	-61.606	-0.084	0.045
-215.552	728.166	0.139	0.482
-214.538	152.338	0.276	0.489
-213.523	-147.986	-0.061	0.007
-212.509	-109.526	-0.522	-0.142
-211.494	-200.000	0.000	-0.165
-210.479	800.000	0.027	-0.147
-209.465	27.840	0.308	-0.336
-208.450	-108.234	-0.402	0.112
-207.436	-85.549	0.127	-0.051
-206.421	-200.000	0.015	0.710
-205.406	149.331	-0.223	0.391
-204.392	-64.815	-0.319	-0.167
-203.377	237.258	-0.243	-0.522
-202.363	-149.725	-0.018	0.002
-201.348	-108.748	-0.270	-0.074
-200.333	-58.377	-0.049	0.027
-199.319	21.756	-0.236	0.249
-198.304	-130.107	0.459	0.080
-197.290	-33.330	-0.610	-0.436
-196.275	719.437	0.121	-0.418
-195.260	61.590	-0.278	-0.358
-194.246	352.032	-0.122	-0.315
-193.231	84.690	-0.206	0.293
-192.217	-109.002	-0.357	0.098
-191.202	-57.504	0.379	-0.214
-190.187	-167.059	0.158	0.008
-189.173	800.000	-0.026	-0.138
-188.158	-69.039	-0.156	0.078
-187.144	17.558	-0.119	-0.122
-186.129	800.000	-0.056	0.266
-185.114	-200.000	0.044	0.648
-184.100	-51.713	-0.210	-0.126
-183.085	-41.788	-0.116	0.077
-182.071	-78.928	0.282	0.124
-181.056	-116.953	-0.354	-0.083
-180.042	-57.584	-0.207	0.117
-179.027	800.000	0.064	0.361
-178.012	281.005	0.015	0.034
-176.998	-6.128	-0.585	0.516
-175.983	129.120	-0.190	-0.315
-174.969	-29.561	-0.036	0.027
-173.954	22.231	0.194	0.205
-172.939	-200.000	-0.041	0.288
-171.925	-59.885	-0.316	0.174
-170.910	-174.236	0.132	-0.005
-169.896	305.496	-0.145	0.351
-168.881	5.156	0.438	-0.417
-167.866	-13.404	0.415	0.347
-166.852	-105.035	-0.565	-0.166
-165.837	134.585	0.056	0.095
-164.823	-74.309	0.132	-0.062
-163.808	-73.292	-0.178	-0.084
-162.793	800.000	0.045	0.184
-161.779	-73.256	0.314	0.148
-160.764	519.908	0.175	0.533
-159.750	-147.995	-0.300	-0.032
-158.735	3.137	-0.443	0.416
-157.720	565.141	0.130	-0.410
-156.706	285.542	-0.114	0.267
-155.691	-105.330	0.568	-0.166
-154.677	-111.616	0.309	-0.080
-153.662	82.482	-0.141	-0.198
-152.647	14.347	0.141	-0.142
-151.633	-86.607	-0.822	0.324
-150.618	-74.142	-0.464	0.216
-149.604	800.000	0.027	-0.098
-148.589	-132.384	-0.476	-0.078
-147.574	800.000	0.032	-0.162
-146.560	470.195	0.096	0.279
-145.545	800.000	-0.102	-0.381
-144.531	800.000	0.075	-0.400
-143.516	-38.242	-0.332	0.227
-142.502	-71.515	0.350	-0.168
-141.487	5.785	-0.214	-0.204
-140.472	-83.431	0.183	0.075
-139.458	-200.000	0.002	-0.481
-138.443	512.779	-0.008	0.024
-137.429	-43.980	-0.375	0.243
-136.414	275.860	-0.105	0.241
-135.399	-35.602	0.440	0.307
-134.385	-83.775	0.488	0.200
-133.370	116.542	0.067	-0.106
-132.356	-94.879	0.247	0.086
-131.341	-141.734	-0.202	0.026
-130.326	-113.425	0.527	-0.132
-129.312	800.000	0.111	-0.423
-128.297	-114.133	0.322	0.080
-127.283	-114.130	0.134	-0.033
-126.268	-191.006	0.469	-0.006
-125.253	143.098	0.275	-0.473
-124.239	-173.287	-0.113	0.004
-123.224	-86.689	-0.452	-0.178
-122.210	-138.779	0.262	0.036
-121.195	-104.683	0.354	0.105
-120.180	-200.000	-0.029	0.280
-119.166	-200.000	-0.064	-0.491
-118.151	51.607	-0.119	-0.146
-117.137	-109.422	0.128	0.035
-116.122	602.242	0.040	0.128
-115.107	92.300	-0.233	-0.339
-114.093	78.773	-0.344	0.476
-113.078	114.633	0.288	0.454
-112.064	103.821	0.091	-0.138
-111.049	-200.000	0.042	-0.442
-110.034	-68.813	-0.182	0.090
-109.020	-62.917	-0.453	0.240
-108.005	-200.000	0.038	0.503
-106.991	-200.000	0.022	0.302
-105.976	-170.182	-0.244	0.011
-104.962	195.296	-0.166	-0.326
-103.947	18.954	0.465	0.481
-102.932	147.208	-0.159	0.277
-101.918	-76.491	-0.174	-0.078
-100.903	-27.408	0.463	-0.346
-99.889	344.542	0.150	-0.381
-98.874	451.434	0.055	0.159
-97.859	-130.067	-0.169	0.029
-96.845	-54.585	0.322	-0.187
-95.830	-122.382	0.230	0.048
-94.816	-200.000	0.035	-0.376
-93.801	-91.451	0.363	-0.133
-92.786	-68.485	-0.526	-0.262
-91.772	123.170	-0.030	0.048
-90.757	112.850	0.305	-0.477
-89.743	-153.576	-0.417	0.037
-88.728	-19.924	-0.235	-0.186
-87.713	-140.774	-0.255	0.034
-86.699	69.725	-0.114	0.152
-85.684	800.000	0.028	-0.129
-84.670	-200.000	-0.048	0.449
-83.655	259.641	-0.097	0.216
-82.640	-59.677	0.431	-0.237
-81.626	-80.611	0.275	0.117
-80.611	44.238	-0.263	0.311
-79.597	183.067	-0.116	-0.222
-78.582	293.812	0.081	-0.192
-77.567	-26.935	0.378	-0.284
-76.553	31.561	0.125	-0.139
-75.538	323.940	0.103	0.253
-74.524	-11.023	0.441	-0.374
-73.509	-50.029	0.127	-0.077
-72.494	-48.799	-0.090	0.055
-71.480	-118.132	-0.141	-0.032
-70.465	-1.983	-0.224	-0.202
-69.451	-57.857	0.214	-0.120
-68.436	-49.919	-0.202	0.123
-67.422	22.850	-0.192	0.203
-66.407	-51.610	0.113	-0.068
-65.392	-120.334	0.158	-0.034
-64.378	156.646	-0.061	0.108
-63.363	81.269	-0.098	-0.137
-62.349	-88.119	-0.250	-0.096
-61.334	46.471	-2.269	-2.710
-60.319	-2.601	1.106	0.995
-59.305	351.038	-2.924	-7.479
-58.290	76.738	3.778	5.164
-57.276	389.143	3.890	10.417
-56.261	-200.000	22.498	303.288
-55.246	370.310	1281.177	3355.625
-54.232	54.224	2845.764	3526.209
-53.217	52.677	2665.729	3279.186
-52.203	33.273	2398.159	2677.386
-51.188	29.663	2068.159	2264.498
-50.173	25.884	1952.806	2094.062
-49.159	24.832	1941.619	2069.752
-48.144	24.289	1937.287	2058.751
-47.130	24.097	1936.016	2055.101
-46.115	24.088	1934.160	2052.937
-45.100	23.970	1933.522	2050.810
-44.086	24.064	1930.611	2048.734
-43.071	24.123	1928.919	2047.534
-42.057	24.015	1928.111	2045.353
-41.042	23.974	1926.005	2042.563
-40.027	23.915	1925.072	2040.812
-39.013	24.001	1922.992	2039.514
-37.998	23.977	1921.983	2038.093
-36.984	24.028	1920.782	2037.318
-35.969	23.984	1920.287	2036.210
-34.954	23.911	1918.730	2033.642
-33.940	24.012	1917.219	2033.119
-32.925	24.016	1915.312	2031.061
-31.911	23.982	1914.188	2029.392
-30.896	23.961	1913.632	2028.483
-29.881	23.817	1912.236	2025.280
-28.867	23.921	1910.691	2024.753
-27.852	23.835	1909.077	2021.982
-26.838	23.795	1906.873	2019.107
-25.823	23.798	1906.081	2018.219
-24.809	23.853	1904.883	2017.496
-23.794	23.900	1903.735	2016.743
-22.779	23.875	1902.182	2014.735
-21.765	23.854	1900.371	2012.493
-20.750	23.753	1900.329	2011.215
-19.736	23.815	1898.618	2010.032
-18.721	23.713	1897.762	2007.888
-17.706	23.638	1896.576	2005.703
-16.692	23.815	1894.385	2005.310
-15.677	23.804	1892.921	2003.559
-14.663	23.674	1892.891	2001.972
-13.648	23.824	1891.250	2001.862
-12.633	23.623	1890.505	1998.717
-11.619	23.656	1889.043	1997.462
-10.604	23.611	1888.113	1995.890
-9.590	23.743	1886.411	1995.499
-8.575	23.667	1885.099	1993.184
-7.560	23.569	1884.531	1991.393
-6.546	23.678	1882.424	1990.311
-5.531	23.723	1881.648	1989.921
-4.517	23.738	1880.144	1988.427
-3.502	23.540	1880.411	1986.398
-2.487	23.748	1878.859	1987.016
-1.473	23.970	1874.990	1985.341
-0.458	24.040	1856.937	1966.922
0.556	21.380	2006.025	2080.639
1.571	20.498	2214.273	2284.707
2.586	21.375	2254.943	2338.196
3.600	21.430	2257.010	2340.800
4.615	21.448	2256.122	2339.830
5.629	21.488	2254.262	2338.161
6.644	21.386	2252.390	2334.569
7.659	21.386	2250.696	2332.535
8.673	21.522	2248.906	2332.228
9.688	21.264	2257.463	2337.350
10.702	20.237	2337.910	2406.043
11.717	18.785	2403.027	2451.941
12.731	9.402	2379.432	2293.667
13.746	1.469	2357.975	2159.732
14.761	0.340	2354.446	2140.125
15.775	0.157	2352.918	2135.873
16.790	0.023	2351.476	2132.402
17.804	0.080	2349.217	2130.903
18.819	0.108	2348.239	2130.172
19.834	0.100	2346.437	2128.168
20.848	0.020	2345.595	2126.007
21.863	0.107	2343.833	2125.393
22.877	0.066	2342.236	2123.108
23.892	-0.001	2340.278	2120.124
24.907	0.023	2337.085	2117.314
25.921	0.046	2336.219	2116.604
26.936	0.040	2333.005	2113.358
27.950	0.057	2330.812	2111.363
28.965	0.093	2328.788	2109.781
29.980	0.060	2327.331	2107.737
30.994	0.096	2325.347	2106.204
32.009	4.511	2340.873	2182.447
33.023	16.102	2373.297	2377.538
34.038	21.208	2383.875	2460.351
35.053	21.847	2383.752	2468.984
36.067	21.877	2379.636	2464.850
37.082	21.791	2376.928	2460.528
38.096	21.755	2376.648	2459.435
39.111	21.917	2373.224	2457.890
40.126	22.061	2371.578	2457.904
41.140	22.302	2369.882	2459.251
42.155	22.181	2368.279	2455.588
43.169	22.290	2366.898	2455.392
44.184	22.546	2364.642	2456.344
45.199	22.691	2363.242	2456.626
46.213	22.317	2362.080	2449.896
47.228	22.186	2360.354	2445.976
48.242	22.213	2359.825	2445.507
49.257	22.249	2357.158	2442.955
50.271	22.034	2353.766	2436.158
51.286	22.050	2350.957	2433.176
52.301	22.199	2349.861	2433.827
53.315	21.882	2347.784	2426.973
54.330	21.569	2347.158	2421.680
55.344	21.545	2343.235	2417.010
56.359	21.457	2339.432	2411.587
57.374	21.460	2338.576	2410.460
58.388	21.561	2336.055	2408.968
59.403	21.636	2332.233	2405.773
60.417	21.756	2329.821	2404.643
61.432	21.800	2329.199	2404.328
62.447	21.928	2327.816	2404.375
63.461	22.003	2325.877	2403.121
64.476	22.024	2322.548	2399.676
65.490	21.980	2322.965	2399.222
66.505	22.266	2322.889	2402.775
67.520	22.320	2321.214	2401.493
68.534	21.985	2318.050	2393.348
69.549	21.937	2314.068	2388.296
70.563	22.054	2311.812	2387.281
71.578	22.227	2310.169	2387.663
72.593	22.134	2309.545	2385.461
73.607	22.390	2308.806	2387.897
74.622	22.792	2306.953	2391.173
75.636	22.683	2303.831	2386.170
76.651	22.350	2301.834	2379.286
77.666	22.357	2299.174	2376.357
78.680	22.268	2296.547	2372.140
79.695	22.206	2294.972	2369.396
80.709	22.350	2294.059	2370.119
81.724	22.399	2291.731	2368.095
82.739	22.271	2289.798	2364.083
83.753	22.472	2288.520	2365.194
84.768	22.520	2287.779	2364.789
85.782	22.475	2286.134	2362.205
86.797	22.613	2284.626	2362.219
87.812	22.381	2281.837	2355.936
88.826	22.501	2279.408	2354.750
89.841	22.629	2276.995	2353.696
90.855	22.760	2275.343	2353.465
91.870	22.435	2272.832	2346.238
92.884	22.229	2270.709	2341.005
93.899	22.303	2269.244	2340.198
94.914	21.968	2269.384	2335.591
95.928	21.832	2268.559	2332.645
96.943	21.753	2265.104	2327.748
97.957	21.971	2263.724	2328.958
98.972	22.198	2262.207	2330.154
99.987	21.836	2257.925	2320.652
101.001	22.002	2255.939	2320.535
102.016	22.225	2254.977	2322.225
103.030	22.006	2252.297	2316.282
104.045	22.208	2250.255	2316.584
105.060	22.591	2248.488	2319.557
106.074	22.371	2246.373	2314.190
107.089	21.968	2243.995	2306.136
108.103	22.102	2243.876	2307.513
109.118	22.330	2242.674	2309.012
110.133	22.415	2240.419	2307.527
111.147	22.540	2238.730	2307.159
112.162	22.704	2238.039	2308.322
113.176	22.520	2233.887	2301.356
114.191	22.038	2232.018	2292.825
115.206	22.107	2229.793	2291.167
116.220	22.134	2228.961	2290.397
117.235	22.051	2226.202	2286.198
118.249	21.991	2223.778	2282.651
119.264	22.214	2224.209	2285.733
120.279	22.539	2222.577	2288.031
121.293	22.265	2220.142	2281.674
122.308	22.190	2217.755	2277.977
123.322	22.113	2216.555	2275.463
124.337	21.755	2215.832	2269.796
125.352	21.870	2215.258	2270.425
126.366	22.150	2214.358	2272.869
127.381	22.020	2209.907	2266.350
128.395	21.780	2206.506	2259.478
129.410	21.891	2205.454	2259.565
130.424	22.196	2204.859	2262.630
131.439	21.919	2202.643	2256.515
132.454	22.047	2200.891	2256.096
133.468	22.278	2198.554	2256.410
134.483	22.076	2196.462	2251.394
135.497	21.784	2194.239	2245.081
136.512	21.952	2192.241	2244.933
137.527	22.006	2190.477	2243.552
138.541	21.938	2190.298	2242.221
139.556	21.759	2188.181	2237.493
140.570	21.891	2187.073	2237.789
141.585	22.096	2185.276	2238.306
142.600	22.049	2183.857	2235.980
143.614	22.152	2182.413	2235.560
144.629	22.343	2181.481	2236.776
145.643	22.084	2179.318	2230.976
146.658	22.050	2176.981	2227.881
147.673	22.056	2175.337	2226.014
148.687	22.230	2175.371	2228.005
149.702	22.508	2174.382	2230.263
150.716	22.458	2173.810	2228.767
151.731	22.721	2172.912	2230.925
152.746	22.930	2171.156	2231.506
153.760	22.319	2169.722	2222.017
154.775	21.807	2167.856	2213.344
155.789	21.393	2166.016	2205.949
156.804	21.643	2162.873	2205.648
157.819	21.934	2160.040	2206.171
158.833	22.298	2157.675	2208.091
159.848	22.313	2155.423	2205.707
160.862	22.540	2154.645	2207.509
161.877	22.528	2153.718	2206.141
162.892	22.434	2152.661	2203.610
163.906	22.513	2151.596	2203.254
164.921	22.476	2149.165	2200.031
165.935	22.473	2145.845	2196.333
166.950	22.257	2144.413	2191.901
167.964	22.024	2141.526	2185.774
168.979	21.926	2139.768	2182.489
169.994	22.068	2138.942	2183.165
171.008	22.080	2136.812	2180.879
172.023	22.121	2137.393	2181.718
173.037	22.367	2136.885	2184.011
174.052	22.221	2133.467	2178.432
175.067	21.896	2131.058	2171.675
176.081	22.051	2129.486	2171.741
177.096	22.219	2128.830	2172.889
178.110	21.985	2126.410	2167.255
179.125	21.908	2125.665	2165.292
180.140	22.129	2125.246	2167.342
181.154	21.952	2122.698	2162.288
182.169	21.629	2121.363	2156.679
183.183	21.449	2120.216	2153.027
184.198	21.589	2118.877	2153.143
185.213	21.543	2117.974	2151.393
186.227	21.879	2116.887	2154.181
187.242	21.979	2113.789	2152.005
188.256	22.024	2112.302	2150.785
189.271	22.453	2113.272	2156.800
190.286	22.628	2110.933	2156.307
191.300	22.234	2106.411	2146.597
192.315	21.969	2104.493	2141.130
193.329	22.084	2104.842	2142.643
194.344	22.466	2103.374	2145.572
195.359	22.208	2101.676	2140.422
196.373	22.184	2100.239	2138.414
197.388	22.211	2096.722	2134.907
198.402	22.013	2095.146	2130.624
199.417	22.031	2092.414	2127.820
200.432	22.221	2091.974	2129.420
201.446	22.406	2090.500	2129.923
202.461	22.401	2089.565	2128.651
203.475	22.296	2087.469	2124.985
204.490	22.186	2085.013	2120.901
205.504	22.052	2082.868	2116.838
206.519	21.963	2079.957	2112.546
207.534	21.962	2078.907	2111.218
208.548	22.237	2078.413	2113.793
209.563	22.477	2077.575	2115.580
210.577	22.220	2076.393	2111.023
211.592	22.220	2074.650	2108.998
212.607	22.059	2074.299	2106.448
213.621	21.850	2072.090	2101.440
214.636	21.734	2069.889	2097.557
215.650	21.901	2068.323	2097.727
216.665	22.110	2067.125	2098.765
217.680	22.446	2066.717	2102.134
218.694	22.906	2066.331	2107.008
219.709	22.824	2064.973	2104.388
220.723	22.672	2063.358	2100.667
221.738	22.441	2059.499	2093.732
222.753	22.165	2056.916	2087.555
223.767	22.137	2057.169	2087.235
224.782	21.887	2054.455	2081.242
225.796	21.944	2052.791	2079.993
226.811	22.142	2050.733	2080.009
227.826	22.282	2049.650	2080.328
228.840	22.487	2048.529	2081.379
229.855	22.120	2046.474	2074.684
230.869	22.127	2045.337	2073.369
231.884	22.132	2043.354	2071.175
232.899	21.946	2041.249	2066.590
233.913	21.854	2040.732	2064.725
234.928	22.170	2039.617	2067.090
235.942	22.337	2037.615	2066.779
236.957	22.265	2036.945	2065.003
237.972	22.385	2035.799	2065.017
238.986	22.355	2036.504	2065.130
240.001	22.302	2032.730	2060.426
241.015	21.944	2031.459	2054.677
242.030	22.114	2031.101	2056.072
243.045	21.988	2028.606	2051.820
244.059	21.828	2026.008	2047.070
245.074	22.174	2024.212	2049.068
246.088	22.104	2021.038	2044.794
247.103	22.006	2019.468	2041.811
248.117	22.072	2019.275	2042.144
249.132	22.344	2018.838	2044.639
250.147	22.194	2015.560	2039.321
251.161	21.828	2013.809	2033.041
252.176	21.923	2013.127	2033.215
253.190	22.258	2011.164	2034.882
254.205	22.249	2009.164	2032.510
255.220	22.383	2007.804	2032.455
256.234	22.322	2007.439	2031.128
257.249	22.214	2006.132	2028.313
258.263	22.294	2003.876	2026.716
259.278	22.237	2002.941	2024.873
260.293	21.863	2001.210	2018.546
261.307	21.772	1998.883	2014.912
262.322	21.765	1998.567	2014.264
263.336	21.895	1994.956	2011.889
264.351	21.808	1993.529	2009.202
265.366	21.984	1993.142	2010.599
266.380	22.088	1993.170	2011.590
267.395	22.016	1991.038	2008.360
268.409	21.997	1989.546	2006.397
269.424	22.239	1989.093	2008.486
270.439	22.269	1987.522	2007.005
271.453	22.173	1985.354	2003.465
272.468	21.792	1982.554	1996.045
273.482	21.669	1981.753	1993.593
274.497	21.945	1978.818	1993.551
275.512	22.161	1976.582	1993.527
276.526	22.157	1974.523	1991.164
277.541	22.092	1974.124	1989.788
278.555	22.297	1971.472	1989.200
279.570	22.001	1969.670	1983.784
280.585	21.780	1967.908	1979.265
281.599	22.039	1967.271	1981.323
282.614	22.180	1965.936	1981.338
283.628	22.283	1964.718	1981.049
284.643	22.291	1963.781	1979.953
285.657	22.350	1963.028	1979.625
286.672	22.339	1961.478	1977.701
287.687	21.921	1961.208	1972.469
288.701	22.008	1958.575	1970.560
289.716	21.857	1956.621	1966.666
290.730	21.806	1953.401	1962.617
291.745	21.819	1953.108	1962.233
292.760	21.863	1951.872	1961.255
293.774	21.821	1952.244	1960.917
294.789	22.331	1950.275	1964.431
295.803	22.331	1948.069	1961.978
296.818	22.270	1947.328	1960.306
297.833	22.314	1946.623	1959.860
298.847	22.166	1944.401	1955.729
299.862	22.178	1943.276	1954.501
300.876	21.973	1941.425	1950.114
301.891	21.719	1939.818	1945.430
302.906	22.047	1939.726	1948.769
303.920	22.360	1939.334	1951.629
304.935	22.469	1935.329	1948.576
305.949	22.098	1932.418	1941.296
306.964	22.119	1931.646	1940.517
307.979	22.380	1931.077	1942.614
308.993	22.027	1928.555	1935.934
310.008	21.953	1927.313	1933.629
311.022	22.362	1925.788	1936.389
312.037	22.306	1925.079	1934.828
313.052	22.071	1922.520	1929.434
314.066	21.850	1920.157	1924.388
315.081	21.814	1918.838	1922.439
316.095	21.795	1917.199	1920.363
317.110	21.699	1916.476	1918.346
318.125	21.955	1915.658	1920.123
319.139	22.030	1914.809	1919.858
320.154	22.279	1913.089	1920.646
321.168	22.191	1912.321	1918.677
322.183	22.189	1910.386	1916.485
323.197	22.199	1908.561	1914.527
324.212	22.080	1906.602	1911.032
325.227	22.144	1904.984	1909.887
326.241	22.253	1903.627	1909.484
327.256	22.342	1902.408	1909.004
328.270	22.267	1901.178	1906.722
329.285	22.286	1901.714	1907.235
330.300	22.209	1901.776	1906.234
331.314	21.993	1899.218	1901.094
332.329	21.781	1897.491	1896.833
333.343	22.074	1895.319	1897.610
334.358	22.605	1893.156	1900.979
335.373	22.572	1891.990	1899.223
336.387	22.320	1890.084	1894.356
337.402	22.400	1888.774	1893.683
338.416	22.291	1887.195	1890.697
339.431	22.373	1886.215	1890.376
340.446	22.728	1885.121	1892.876
341.460	22.527	1883.675	1889.028
342.475	22.520	1880.893	1885.941
343.489	22.475	1878.663	1882.994
344.504	22.523	1878.328	1882.951
345.519	22.323	1875.950	1878.194
346.533	22.021	1874.314	1873.093
347.548	22.111	1873.577	1873.101
348.562	22.209	1872.036	1872.382
349.577	22.109	1871.059	1870.116
350.592	22.087	1870.685	1869.274
351.606	22.090	1868.521	1866.923
352.621	21.917	1866.547	1862.887
353.635	21.770	1864.476	1859.021
354.650	21.645	1863.644	1856.638
355.665	21.812	1862.276	1856.837
356.679	21.821	1861.143	1855.582
357.694	22.079	1859.778	1856.740
358.708	22.010	1858.813	1854.815
359.723	22.145	1857.964	1855.178
360.738	21.856	1857.810	1851.742
361.752	21.854	1855.802	1849.493
362.767	21.821	1853.072	1846.202
363.781	22.063	1850.566	1846.048
364.796	22.274	1851.447	1848.929
365.810	22.514	1850.527	1850.327
366.825	22.516	1848.024	1847.623
367.840	22.250	1847.456	1844.027
368.854	22.183	1846.243	1841.894
369.869	21.958	1843.517	1836.585
370.883	21.970	1841.926	1834.911
371.898	22.253	1841.959	1837.692
372.913	22.360	1841.377	1838.019
373.927	22.650	1840.814	1840.276
374.942	22.663	1838.984	1838.362
375.956	22.622	1837.523	1836.254
376.971	22.519	1834.506	1831.948
377.986	21.935	1832.240	1823.362
379.000	21.900	1831.318	1821.860
380.015	22.230	1830.923	1824.697
381.029	22.495	1829.485	1825.800
382.044	22.637	1827.516	1825.100
383.059	22.499	1825.928	1821.862
384.073	22.148	1824.793	1816.859
385.088	21.967	1823.474	1813.450
386.102	22.071	1820.681	1811.537
387.117	22.039	1818.151	1808.468
388.132	21.898	1818.277	1806.923
389.146	21.982	1819.307	1808.595
390.161	21.831	1817.061	1804.588
391.175	21.954	1813.064	1801.667
392.190	22.156	1809.910	1800.397
393.205	21.971	1808.446	1796.823
394.219	22.010	1807.501	1796.073
395.234	22.196	1806.885	1797.153
396.248	22.451	1804.726	1797.405
397.263	22.188	1802.153	1791.940
398.278	21.809	1800.871	1786.567
399.292	21.952	1799.699	1786.651
400.307	22.319	1799.732	1790.228
401.321	22.437	1798.245	1789.735
402.336	22.179	1796.541	1785.193
403.350	22.087	1795.243	1782.750
404.365	22.466	1795.880	1787.041
405.380	22.781	1795.499	1789.652
406.394	22.928	1793.029	1788.474
407.409	22.766	1791.587	1785.179
408.423	22.478	1788.739	1779.207
409.438	22.133	1787.025	1773.782
410.453	22.137	1785.810	1772.404
411.467	22.101	1785.310	1771.328
412.482	22.006	1783.743	1768.606
413.496	22.257	1781.702	1768.907
414.511	22.117	1780.324	1765.910
415.526	21.923	1778.968	1762.402
416.540	22.108	1777.086	1762.189
417.555	21.975	1776.226	1759.782
418.569	21.731	1774.515	1755.424
419.584	21.787	1775.443	1756.697
420.599	22.279	1775.641	1761.638
421.613	22.497	1774.801	1762.787
422.628	22.556	1773.819	1762.194
423.642	22.744	1772.188	1762.244
424.657	22.364	1769.720	1755.766
425.672	22.255	1768.108	1752.866
426.686	22.207	1765.653	1749.747
427.701	21.890	1762.486	1743.232
428.715	21.523	1761.635	1738.521
429.730	21.629	1760.975	1738.712
430.745	21.825	1759.925	1739.423
431.759	21.759	1758.870	1737.517
432.774	21.407	1758.704	1733.637
433.788	21.326	1756.353	1730.311
434.803	21.155	1756.031	1728.081
435.818	21.172	1755.374	1727.393
436.832	21.221	1754.470	1726.790
437.847	20.247	1745.621	1708.240
438.861	11.115	1722.236	1595.589
439.876	1.975	1705.622	1490.536
440.890	0.380	1701.445	1471.069
441.905	0.316	1700.039	1469.059
442.920	0.193	1699.053	1466.824
443.934	0.126	1697.713	1464.837
444.949	0.225	1696.169	1464.291
445.963	0.091	1695.499	1462.237
446.978	-0.004	1695.283	1460.945
447.993	0.226	1692.860	1460.924
449.007	0.153	1691.112	1458.528
450.022	0.256	1688.498	1457.100
451.036	0.221	1688.004	1456.161
452.051	0.630	1691.276	1462.788
453.066	8.261	1710.040	1553.731
454.080	17.820	1725.352	1661.437
455.095	20.152	1728.551	1687.158
456.109	20.461	1727.994	1689.435
457.124	20.428	1726.660	1687.606
458.139	20.511	1726.238	1687.800
459.153	20.462	1724.922	1685.834
460.168	20.501	1722.892	1684.033
461.182	20.581	1721.510	1683.255
462.197	20.516	1721.228	1682.145
463.212	20.676	1719.520	1681.833
464.226	20.831	1718.046	1681.693
465.241	20.587	1716.942	1678.046
466.255	20.431	1715.828	1675.242
467.270	20.504	1714.507	1674.463
468.285	20.630	1713.582	1674.578
469.299	20.846	1711.898	1674.816
470.314	20.604	1710.563	1670.976
471.328	20.558	1708.584	1668.394
472.343	20.565	1708.166	1667.859
473.358	20.559	1705.828	1665.314
474.372	20.628	1703.873	1663.874
475.387	20.691	1703.240	1663.662
476.401	20.492	1701.708	1660.051
477.416	20.324	1700.175	1656.748
478.430	20.325	1698.917	1655.330
479.445	20.345	1698.674	1655.086
480.460	20.659	1697.313	1656.571
481.474	20.642	1696.444	1655.358
482.489	20.487	1695.040	1652.310
483.503	20.282	1692.591	1647.773
484.518	20.279	1690.715	1645.717
485.533	20.296	1689.699	1644.690
486.547	20.036	1687.917	1640.290
487.562	19.917	1686.872	1637.948
488.576	19.985	1685.807	1637.359
489.591	20.127	1684.369	1637.117
490.606	20.307	1683.348	1637.633
491.620	20.382	1681.914	1636.758
492.635	20.218	1679.586	1632.741
493.649	20.034	1678.683	1629.927
494.664	20.342	1678.432	1632.398
495.679	20.645	1677.203	1633.870
496.693	20.511	1676.253	1631.485
497.708	20.444	1675.318	1629.748
498.722	20.293	1673.680	1626.536
499.737	20.308	1671.682	1624.546
500.752	20.432	1670.513	1624.378
501.766	20.532	1669.529	1624.163
502.781	20.507	1667.454	1621.717
503.795	20.484	1666.435	1620.317
504.810	20.537	1665.874	1620.078
505.825	20.464	1664.589	1617.949
506.839	20.387	1663.140	1615.627
507.854	20.437	1661.563	1614.365
508.868	20.270	1660.129	1611.221
509.883	20.308	1659.529	1610.807
510.898	20.195	1657.906	1607.978
511.912	20.181	1655.970	1605.776
512.927	20.194	1654.894	1604.670
513.941	20.212	1653.241	1603.035
514.956	20.370	1651.529	1602.649
515.971	20.182	1649.970	1599.206
516.985	20.151	1649.602	1598.368
518.000	20.084	1649.265	1597.230
519.014	19.917	1647.549	1593.829
520.029	19.923	1645.325	1591.551
521.043	19.978	1644.189	1590.768
522.058	20.111	1643.255	1590.901
523.073	20.179	1642.180	1590.290
524.087	19.952	1640.886	1586.758
525.102	20.063	1639.475	1586.228
526.116	20.301	1638.900	1587.666
527.131	20.595	1638.100	1589.404
528.146	20.116	1637.193	1583.938
529.160	20.132	1635.088	1581.860
530.175	20.070	1634.190	1580.226
531.189	19.967	1633.251	1578.190
532.204	20.028	1631.769	1577.129
533.219	20.133	1630.372	1576.548
534.233	20.323	1630.175	1577.909
535.248	20.228	1628.240	1574.977
536.262	19.842	1627.255	1570.317
537.277	19.827	1625.626	1568.421
538.292	19.844	1624.360	1567.160
539.306	19.848	1622.620	1565.330
540.321	19.820	1620.978	1563.306
541.335	19.720	1620.169	1561.434
542.350	19.803	1617.979	1559.888
543.365	19.954	1615.858	1559.025
544.379	19.776	1614.871	1556.273
545.394	19.767	1614.427	1555.578
546.408	20.086	1612.655	1556.560
547.423	20.288	1613.569	1559.083
548.438	20.363	1612.054	1558.112
549.452	20.240	1609.736	1554.580
550.467	20.115	1608.934	1552.494
551.481	20.138	1607.963	1551.573
552.496	19.903	1607.032	1548.377
553.511	19.635	1606.487	1545.255
554.525	19.739	1604.413	1544.015
555.540	19.914	1603.019	1544.051
556.554	19.924	1601.715	1542.704
557.569	19.898	1600.675	1541.283
558.583	19.938	1599.397	1540.230
559.598	19.905	1598.402	1538.791
560.613	19.859	1597.583	1537.402
561.627	19.939	1595.392	1535.824
562.642	19.821	1593.865	1533.123
563.656	19.486	1591.975	1528.135
564.671	19.453	1590.685	1526.427
565.686	19.676	1589.422	1527.006
566.700	19.625	1589.350	1526.308
567.715	19.688	1587.491	1524.894
568.729	19.810	1585.272	1523.661
569.744	19.814	1584.087	1522.379
570.759	19.850	1583.448	1521.897
571.773	19.650	1582.789	1519.316
572.788	19.589	1581.126	1516.998
573.802	19.701	1579.518	1516.261
574.817	19.458	1578.008	1512.494
575.832	19.330	1576.796	1510.019
576.846	19.533	1575.369	1510.258
577.861	19.799	1574.510	1511.595
578.875	19.751	1573.555	1510.069
579.890	19.744	1572.489	1508.808
580.905	19.602	1571.957	1506.873
581.919	19.602	1571.527	1506.283
582.934	19.608	1569.493	1504.205
583.948	19.554	1567.661	1501.797
584.963	19.616	1567.245	1501.756
585.978	19.835	1566.261	1502.548
586.992	19.747	1565.428	1500.800
588.007	19.467	1564.769	1497.543
589.021	19.573	1563.808	1497.373
590.036	19.659	1562.548	1496.736
591.051	19.493	1560.851	1493.489
592.065	19.535	1558.030	1490.972
593.080	19.318	1557.281	1488.193
594.094	19.453	1555.751	1487.722
595.109	19.788	1554.767	1489.510
596.123	19.986	1553.699	1490.017
597.138	19.819	1552.573	1487.315
598.153	19.699	1551.507	1485.076
599.167	19.684	1549.509	1482.861
600.182	19.518	1549.071	1480.832
601.196	19.575	1547.453	1479.600
602.211	19.682	1546.256	1479.198
603.226	19.576	1544.871	1476.785
604.240	19.675	1542.713	1475.399
605.255	19.388	1542.120	1472.189
606.269	19.384	1542.269	1472.124
607.284	19.455	1541.135	1471.468
608.299	19.435	1538.738	1468.834
609.313	19.501	1538.129	1468.642
610.328	19.582	1537.147	1468.221
611.342	19.494	1534.903	1465.152
612.357	19.476	1534.908	1464.831
613.372	19.446	1533.598	1463.146
614.386	19.432	1532.098	1461.420
615.401	19.258	1531.498	1459.191
616.415	19.349	1529.826	1458.198
617.430	19.390	1528.971	1457.556
618.445	19.167	1527.482	1454.069
619.459	19.166	1527.244	1453.661
620.474	19.278	1526.185	1453.428
621.488	19.467	1525.468	1454.175
622.503	19.591	1524.037	1453.686
623.518	19.350	1522.507	1450.014
624.532	19.159	1521.333	1447.111
625.547	19.029	1520.260	1444.820
626.561	18.958	1519.304	1443.134
627.576	19.095	1517.688	1442.583
628.591	19.327	1516.256	1443.003
629.605	19.342	1515.386	1442.131
630.620	19.296	1514.861	1441.068
631.634	19.434	1514.392	1441.612
632.649	19.427	1512.932	1439.987
633.663	19.294	1510.946	1436.815
634.678	18.988	1509.924	1433.104
635.693	18.916	1508.454	1430.932
636.707	19.094	1505.967	1429.894
637.722	19.098	1505.037	1428.872
638.736	19.069	1504.362	1427.820
639.751	19.244	1503.162	1427.968
640.766	19.280	1501.686	1426.695
641.780	19.296	1500.768	1425.780
642.795	19.292	1500.469	1425.298
643.809	19.360	1499.343	1424.617
644.824	19.465	1498.512	1424.533
645.839	19.308	1498.037	1422.608
646.853	19.346	1496.767	1421.543
647.868	19.345	1495.079	1419.767
648.882	19.344	1493.586	1418.166
649.897	19.498	1492.182	1417.933
650.912	19.407	1491.284	1416.159
651.926	19.321	1489.223	1413.328
652.941	19.430	1488.372	1413.243
653.955	19.351	1487.222	1411.336
654.970	19.449	1486.682	1411.459
655.985	19.521	1484.091	1409.421
656.999	19.502	1483.190	1408.246
658.014	19.385	1481.369	1405.387
659.028	19.282	1481.020	1404.044
660.043	19.231	1480.991	1403.432
661.058	19.161	1478.856	1400.671
662.072	19.292	1477.604	1400.385
663.087	19.520	1476.542	1401.067
664.101	19.360	1476.508	1399.563
665.116	19.375	1475.014	1398.108
666.131	19.326	1473.723	1396.316
667.145	19.310	1472.357	1394.719
668.160	19.216	1470.720	1392.242
669.174	19.266	1468.972	1390.825
670.189	19.213	1468.833	1390.100
671.204	19.283	1467.985	1389.697
672.218	19.140	1467.432	1387.847
673.233	19.127	1466.078	1386.299
674.247	19.076	1464.870	1384.577
675.262	19.107	1463.511	1383.372
676.276	19.211	1462.215	1382.821
677.291	19.249	1461.535	1382.324
678.306	19.402	1460.423	1382.338
679.320	19.342	1459.226	1380.555
680.335	19.382	1458.360	1379.889
681.349	19.150	1457.409	1376.963
682.364	19.145	1456.639	1376.030
683.379	19.169	1455.253	1374.746
684.393	19.114	1453.982	1372.942
685.408	18.984	1452.271	1370.118
686.422	19.111	1451.471	1370.216
687.437	18.979	1450.439	1368.026
688.452	18.929	1449.993	1367.038
689.466	18.948	1448.540	1365.661
690.481	18.956	1446.755	1363.881
691.495	18.830	1447.145	1363.079
692.510	19.141	1445.596	1363.933
693.525	19.326	1444.547	1364.251
694.539	19.126	1442.970	1361.010
695.554	18.967	1442.343	1358.992
696.568	18.886	1441.336	1357.234
697.583	18.833	1440.607	1355.967
698.598	18.842	1439.123	1354.476
699.612	18.835	1438.010	1353.215
700.627	19.004	1436.198	1352.684
701.641	19.050	1436.002	1352.703
702.656	19.141	1434.446	1351.795
703.671	19.080	1433.787	1350.530
704.685	18.926	1433.730	1349.095
705.700	19.137	1432.078	1349.045
706.714	19.239	1430.553	1348.247
707.729	19.313	1429.289	1347.475
708.744	19.103	1428.640	1345.053
709.758	19.072	1427.631	1343.697
710.773	19.148	1426.675	1343.238
711.787	19.190	1425.104	1341.923
712.802	19.094	1423.310	1339.321
713.816	19.220	1422.445	1339.336
714.831	19.255	1421.032	1338.116
715.846	19.161	1419.983	1336.232
716.860	19.135	1418.312	1334.302
717.875	19.149	1417.944	1333.901
718.889	19.060	1417.341	1332.481
719.904	19.179	1416.062	1332.051
720.919	19.214	1414.383	1330.576
721.933	19.178	1414.097	1329.874
722.948	19.184	1412.679	1328.429
723.962	18.990	1412.077	1326.201
724.977	19.065	1410.829	1325.448
725.992	19.066	1409.849	1324.379
727.006	19.094	1408.380	1323.053
728.021	19.093	1407.161	1321.743
729.035	19.037	1406.026	1320.082
730.050	19.068	1405.000	1319.200
731.065	18.923	1404.287	1317.262
732.079	19.006	1402.801	1316.344
733.094	18.940	1401.304	1314.280
734.108	19.073	1400.047	1313.962
735.123	19.075	1398.787	1312.641
736.138	19.114	1398.003	1312.041
737.152	19.058	1396.744	1310.280
738.167	18.998	1395.604	1308.590
739.181	19.172	1394.264	1308.510
740.196	19.006	1393.918	1306.755
741.211	18.909	1393.444	1305.418
742.225	18.958	1392.937	1305.159
743.240	18.865	1391.115	1302.590
744.254	18.903	1389.926	1301.606
745.269	18.804	1388.550	1299.409
746.284	18.793	1387.777	1298.446
747.298	18.779	1386.968	1297.427
748.313	18.683	1385.850	1295.504
749.327	18.938	1385.496	1296.946
750.342	19.124	1385.026	1297.762
751.356	19.223	1384.150	1297.532
752.371	19.131	1382.834	1295.451
753.386	19.062	1381.278	1293.319
754.400	19.032	1379.723	1291.478
755.415	19.057	1378.536	1290.400
756.429	19.102	1376.829	1288.990
757.444	19.045	1376.132	1287.752
758.459	18.928	1375.598	1286.219
759.473	18.922	1374.571	1285.062
760.488	18.952	1373.095	1283.754
761.502	18.935	1372.042	1282.488
762.517	18.907	1371.571	1281.680
763.532	19.065	1369.658	1280.921
764.546	18.963	1368.615	1279.035
765.561	19.025	1368.181	1278.935
766.575	19.233	1367.575	1279.773
767.590	19.225	1365.940	1278.028
768.605	19.048	1364.643	1275.345
769.619	18.958	1363.341	1273.302
770.634	18.994	1362.331	1272.472
771.648	19.003	1361.417	1271.538
772.663	19.059	1360.200	1270.664
773.678	18.792	1360.135	1268.471
774.692	18.855	1359.748	1268.420
775.707	18.837	1358.807	1267.262
776.721	18.994	1357.348	1266.912
777.736	18.953	1355.885	1265.094
778.751	18.882	1355.258	1263.830
779.765	18.996	1353.831	1263.187
780.780	18.890	1353.067	1261.540
781.794	18.841	1352.640	1260.630
782.809	18.918	1351.332	1259.828
783.824	18.778	1350.601	1257.966
784.838	18.776	1349.298	1256.587
785.853	18.950	1348.802	1257.255
786.867	18.843	1347.595	1255.194
787.882	18.783	1346.651	1253.720
788.897	18.824	1346.402	1253.638
789.911	18.807	1345.454	1252.486
790.926	18.971	1343.110	1251.351
791.940	18.820	1341.542	1248.636
792.955	18.667	1340.889	1246.765
793.969	18.903	1339.284	1246.840
794.984	18.751	1338.571	1244.924
795.999	18.857	1337.855	1244.880
797.013	18.898	1335.835	1243.152
798.028	19.014	1334.697	1242.785
799.042	18.866	1334.004	1240.913
800.057	18.916	1332.822	1240.032
801.072	18.946	1331.318	1238.699
802.086	18.912	1330.580	1237.621
803.101	18.748	1330.019	1235.760
804.115	19.008	1328.821	1236.376
805.130	18.918	1327.917	1234.738
806.145	18.900	1326.805	1233.427
807.159	19.122	1325.195	1233.381
808.174	18.982	1324.154	1231.263
809.188	18.940	1323.246	1229.969
810.203	18.992	1321.987	1229.024
811.218	19.045	1320.350	1227.737
812.232	18.972	1319.518	1226.286
813.247	19.116	1318.327	1226.068
814.261	19.080	1316.787	1224.234
815.276	19.093	1316.426	1223.845
816.291	18.993	1314.570	1221.253
817.305	18.992	1313.588	1220.191
818.320	18.896	1313.137	1218.939
819.334	18.895	1311.773	1217.523
820.349	18.932	1310.014	1216.005
821.364	18.973	1308.300	1214.564
822.378	18.884	1307.373	1212.921
823.393	18.888	1305.197	1210.791
824.407	18.939	1304.310	1210.181
825.422	18.816	1304.749	1209.576
826.437	18.702	1303.422	1207.395
827.451	18.788	1302.047	1206.585
828.466	18.912	1300.363	1205.750
829.480	18.952	1298.907	1204.541
830.495	18.805	1297.146	1201.727
831.509	18.829	1296.864	1201.493
832.524	18.811	1295.774	1200.209
833.539	18.825	1294.121	1198.632
834.553	18.936	1292.927	1198.162
835.568	18.997	1291.256	1196.895
836.582	19.059	1291.123	1197.068
837.597	18.992	1289.529	1194.977
838.612	19.072	1288.211	1194.168
839.626	18.981	1287.384	1192.629
840.641	18.935	1287.124	1191.918
841.655	19.016	1286.523	1191.786
842.670	19.055	1285.548	1191.015
843.685	19.233	1283.622	1190.323
844.699	19.189	1282.704	1189.025
845.714	18.966	1281.681	1186.382
846.728	18.799	1280.158	1183.679
847.743	18.996	1279.352	1184.153
848.758	18.927	1278.547	1182.787
849.772	19.084	1276.107	1181.476
850.787	18.758	1274.756	1177.832
851.801	18.846	1274.103	1177.697
852.816	18.736	1273.516	1176.259
853.831	18.860	1271.329	1174.946
854.845	18.595	1269.666	1171.448
855.860	18.690	1268.581	1170.958
856.874	18.827	1267.498	1170.758
857.889	18.813	1266.157	1169.285
858.904	18.895	1264.880	1168.525
859.918	19.012	1263.316	1167.743
860.933	18.935	1262.227	1166.070
861.947	18.948	1262.022	1165.825
862.962	18.842	1259.925	1163.030
863.977	18.784	1258.932	1161.578
864.991	18.743	1258.522	1160.782
866.006	18.865	1258.142	1161.121
867.020	18.882	1256.641	1159.717
868.035	18.748	1255.793	1157.884
869.049	18.787	1254.494	1156.813
870.064	18.862	1253.398	1156.172
871.079	18.840	1252.819	1155.349
872.093	18.920	1252.795	1155.727
873.108	19.038	1251.427	1155.129
874.122	18.977	1250.142	1153.387
875.137	19.110	1249.806	1153.837
876.152	19.149	1249.061	1153.273
877.166	19.049	1247.313	1150.851
878.181	19.043	1245.649	1149.138
879.195	18.870	1245.603	1147.794
880.210	18.890	1245.233	1147.454
881.225	19.013	1243.258	1146.318
882.239	18.939	1242.114	1144.633
883.254	18.970	1241.391	1144.033
884.268	19.038	1240.241	1143.292
885.283	19.046	1238.693	1141.781
886.298	19.069	1237.579	1140.773
887.312	18.879	1236.584	1138.456
888.327	19.065	1235.537	1138.593
889.341	19.020	1234.403	1137.114
890.356	18.829	1233.981	1135.317
891.371	18.763	1233.660	1134.448
892.385	19.034	1232.752	1135.274
893.400	18.844	1231.529	1132.751
894.414	18.977	1230.188	1132.267
895.429	19.093	1228.294	1131.150
896.444	19.276	1227.058	1131.089
897.458	19.187	1227.035	1130.342
898.473	19.207	1226.007	1129.395
899.487	19.072	1224.836	1127.290
900.502	19.044	1223.305	1125.560
901.517	19.142	1221.948	1124.823
902.531	19.010	1221.563	1123.463
903.546	19.090	1221.109	1123.439
904.560	19.138	1219.796	1122.414
905.575	19.030	1219.299	1121.111
906.589	19.119	1218.576	1120.895
907.604	19.132	1217.548	1119.900
