DTS Sentinel unit serial number:	SN409020Multiplexer serial number:	ORYXHardware model number:	OX4-SRSoftware version number:	ORYX F/W v3.00 Oryx Data Collector v3.7.2.0data status	okinstallation	HaddamTimeLapsedifferential loss correction	single-endedforward channel	channel 3reverse channel	N/Adate	2011/06/22time	02:56:17forward acquisition time	30.00reverse acquisition time	0.00gamma	498.7831k internal	0.1750k external	0.1750temperature offset calibration	1.0074default loss term (dB/km)	0.3790temperature slope calibration	1.3530multiplexer offset coefficient	1.0000multiplexer slope coefficient	1.0000fibre end	0.00T internal ref (°C)	22.31T ext. ref 1 (°C)	17.47T ext. ref 2 (°C)	0.03length (m)	temperature (°C)	Stokes	anti-Stokes-747.200	-200.000	0.035	0.000
-746.185	188.080	0.250	0.498
-745.171	16.997	0.110	0.116
-744.156	55.943	-0.052	-0.067
-743.142	-6.322	-0.130	0.117
-742.127	800.000	0.141	0.612
-741.112	23.675	0.221	-0.242
-740.098	-115.134	0.444	0.111
-739.083	-200.000	0.006	0.248
-738.069	-163.904	-0.505	0.031
-737.054	111.534	0.440	-0.707
-736.039	-200.000	-0.011	-0.457
-735.025	800.000	0.051	0.285
-734.010	800.000	-0.097	0.399
-732.996	-93.616	-0.167	-0.061
-731.981	119.859	0.123	-0.203
-730.966	1.799	-0.077	0.073
-729.952	273.526	0.229	-0.539
-728.937	-58.055	-0.298	0.172
-727.923	-33.619	-0.446	-0.326
-726.908	589.993	0.158	-0.520
-725.894	178.737	0.088	0.171
-724.879	-16.445	0.211	0.177
-723.864	-52.141	0.385	-0.236
-722.850	79.046	-0.268	0.381
-721.835	-69.555	0.452	-0.229
-720.821	136.506	0.139	0.241
-719.806	-4.714	-0.175	-0.160
-718.791	-153.189	0.258	0.024
-717.777	33.176	0.205	0.236
-716.762	2.712	-0.053	0.051
-715.748	34.726	-0.066	-0.077
-714.733	-23.809	-0.380	-0.301
-713.718	-72.296	-0.024	0.012
-712.704	104.327	-0.150	-0.234
-711.689	-163.501	0.094	-0.006
-710.675	-21.413	-0.307	0.249
-709.660	-154.320	0.083	0.007
-708.645	-139.712	-0.187	0.026
-707.631	-29.190	-0.486	0.369
-706.616	418.830	0.008	0.023
-705.602	25.577	-0.246	0.272
-704.587	69.198	0.078	0.107
-703.572	369.081	0.095	-0.256
-702.558	-129.565	0.147	0.027
-701.543	-200.000	-0.024	-0.527
-700.529	-200.000	-0.049	0.000
-699.514	-116.401	-0.203	0.049
-698.499	12.729	-0.210	-0.216
-697.485	128.052	0.119	-0.201
-696.470	-26.088	0.236	0.184
-695.456	755.858	0.013	0.047
-694.441	-161.722	-0.295	-0.020
-693.426	-106.884	-0.609	-0.178
-692.412	9.755	-0.374	0.375
-691.397	-161.863	-0.396	-0.026
-690.383	-200.000	-0.011	-0.126
-689.368	-42.788	0.415	-0.279
-688.354	108.516	-0.190	-0.302
-687.339	800.000	-0.043	-0.204
-686.324	146.008	-0.176	0.313
-685.310	-154.877	-0.289	-0.025
-684.295	306.502	0.133	-0.329
-683.281	101.081	0.016	0.024
-682.266	-101.074	-0.766	0.247
-681.251	280.765	0.107	0.254
-680.237	-200.000	0.063	0.424
-679.222	-88.733	0.444	0.174
-678.208	-192.766	-0.397	0.005
-677.193	-22.117	0.305	0.245
-676.178	-200.000	0.001	0.137
-675.164	-113.640	-0.129	-0.033
-674.149	-124.539	-0.173	0.035
-673.135	23.437	-0.211	-0.230
-672.120	-200.000	0.016	0.499
-671.105	-46.157	0.104	-0.068
-670.091	-92.385	-0.269	0.100
-669.076	-96.432	0.269	-0.094
-668.062	91.950	0.191	-0.285
-667.047	-174.218	0.494	-0.019
-666.032	382.608	0.061	-0.166
-665.018	261.784	-0.161	0.371
-664.003	-114.121	0.229	0.058
-662.989	-40.593	-0.182	0.125
-661.974	96.740	0.374	-0.568
-660.959	-22.480	0.160	-0.128
-659.945	-1.745	0.098	-0.092
-658.930	213.112	0.151	-0.317
-657.916	-75.560	-0.542	0.254
-656.901	193.788	-0.099	-0.200
-655.886	-108.349	0.063	-0.018
-654.872	800.000	0.113	0.477
-653.857	69.267	0.255	-0.347
-652.843	-132.424	0.177	-0.030
-651.828	-75.339	-0.362	0.170
-650.814	-184.874	0.565	-0.012
-649.799	-200.000	-0.006	0.090
-648.784	785.473	-0.057	0.210
-647.770	184.019	0.128	-0.251
-646.755	120.071	-0.034	-0.055
-645.741	231.614	0.158	0.343
-644.726	-200.000	-0.079	0.500
-643.711	800.000	-0.037	-0.159
-642.697	459.206	-0.042	-0.125
-641.682	-200.000	0.018	0.345
-640.668	56.183	-0.070	-0.090
-639.653	-158.622	-0.381	0.029
-638.638	-74.131	0.500	0.239
-637.624	-89.571	0.061	-0.024
-636.609	-161.747	-0.713	-0.047
-635.595	-89.081	-0.331	0.129
-634.580	-116.593	0.265	0.064
-633.565	36.070	0.091	0.106
-632.551	392.205	0.075	-0.207
-631.536	-47.543	-0.381	-0.244
-630.522	6.231	-0.157	-0.154
-629.507	-48.275	-0.200	0.127
-628.492	-138.100	0.123	-0.018
-627.478	423.465	0.062	0.178
-626.463	-8.929	-0.108	0.096
-625.449	538.651	-0.123	0.390
-624.434	-200.000	0.009	0.066
-623.419	-106.965	-0.324	0.094
-622.405	-108.662	0.303	-0.085
-621.390	-200.000	0.064	-0.644
-620.376	63.238	0.460	-0.610
-619.361	-122.032	-0.244	0.052
-618.346	-94.844	0.534	0.190
-617.332	-200.000	-0.004	0.103
-616.317	-184.389	0.416	-0.009
-615.303	-101.435	0.390	-0.125
-614.288	190.633	-0.226	-0.450
-613.273	-48.006	0.188	-0.120
-612.259	-156.332	0.327	0.027
-611.244	-200.000	0.023	0.142
-610.230	-7.934	0.174	0.155
-609.215	243.490	-0.218	0.485
-608.201	-114.189	0.184	-0.047
-607.186	-32.300	-0.352	-0.259
-606.171	-28.209	0.241	-0.184
-605.157	-65.385	0.052	-0.028
-604.142	265.667	-0.191	0.442
-603.128	41.421	0.157	0.188
-602.113	-150.646	0.332	-0.033
-601.098	633.027	-0.023	-0.076
-600.084	75.117	0.211	-0.294
-599.069	-73.051	-0.094	0.046
-598.055	-51.870	0.247	0.151
-597.040	-76.969	0.126	0.058
-596.025	0.026	0.231	0.218
-595.011	-200.000	0.017	0.912
-593.996	252.064	-0.253	-0.572
-592.982	-18.614	0.519	-0.427
-591.967	-46.507	0.059	0.038
-590.952	10.342	-0.297	0.299
-589.938	-85.972	-0.048	0.020
-588.923	-171.145	0.204	-0.009
-587.909	-79.547	0.317	0.141
-586.894	49.576	0.062	-0.077
-585.879	-200.000	-0.003	-0.420
-584.865	-200.000	-0.057	-0.382
-583.850	-44.734	0.418	-0.275
-582.836	-175.222	-0.366	0.013
-581.821	-47.611	-0.312	-0.199
-580.806	653.844	-0.080	-0.272
-579.792	-24.232	-0.376	-0.295
-578.777	-96.118	0.183	-0.064
-577.763	-59.276	0.157	0.089
-576.748	363.166	-0.009	-0.023
-575.733	800.000	0.049	-0.238
-574.719	82.472	0.182	0.261
-573.704	674.039	0.093	0.320
-572.690	-160.035	0.282	0.020
-571.675	-89.535	-0.122	-0.047
-570.661	153.731	-0.257	-0.467
-569.646	800.000	-0.069	0.315
-568.631	29.844	-0.382	0.430
-567.617	320.597	-0.141	0.355
-566.602	-200.000	-0.048	0.500
-565.588	-139.536	-0.259	-0.036
-564.573	-200.000	0.020	0.250
-563.558	-200.000	-0.048	-0.291
-562.544	163.515	-0.276	0.514
-561.529	-200.000	-0.072	0.503
-560.515	100.381	0.054	-0.082
-559.500	36.545	0.576	-0.671
-558.485	52.390	-0.056	-0.071
-557.471	-41.533	0.139	-0.094
-556.456	101.475	-0.160	0.246
-555.442	800.000	0.106	0.503
-554.427	-25.593	0.115	0.090
-553.412	-125.397	0.510	0.102
-552.398	123.851	0.254	-0.422
-551.383	-200.000	0.051	-0.337
-550.369	800.000	-0.070	-0.317
-549.354	-191.707	0.356	-0.005
-548.339	-134.865	0.013	0.002
-547.325	-104.079	-0.142	-0.043
-546.310	-22.531	-0.280	-0.223
-545.296	-30.207	0.589	-0.440
-544.281	-86.583	-0.293	-0.118
-543.266	131.798	0.151	-0.257
-542.252	-31.316	0.107	-0.079
-541.237	800.000	0.086	0.394
-540.223	-60.705	-0.368	-0.205
-539.208	635.572	-0.200	0.674
-538.193	-145.024	0.092	0.011
-537.179	-103.275	-0.268	-0.083
-536.164	-200.000	0.013	0.213
-535.150	99.892	0.139	-0.212
-534.135	369.312	-0.166	-0.446
-533.121	-187.269	-0.343	0.006
-532.106	6.951	0.140	-0.138
-531.091	-136.121	0.417	0.064
-530.077	-57.177	-0.563	0.325
-529.062	115.850	-0.205	0.332
-528.048	-84.945	-0.242	0.100
-527.033	-51.081	0.195	-0.120
-526.018	-109.161	-0.633	-0.176
-525.004	-200.000	0.052	-0.464
-523.989	-33.549	0.341	0.247
-522.975	800.000	-0.081	-0.460
-521.960	-200.000	-0.018	0.203
-520.945	800.000	0.077	0.332
-519.931	-115.573	-0.407	-0.100
-518.916	87.454	0.211	-0.308
-517.902	-86.554	0.354	0.142
-516.887	-46.635	0.052	0.034
-515.872	800.000	-0.082	-0.353
-514.858	-104.757	-0.481	-0.145
-513.843	-20.503	0.115	0.093
-512.829	-105.047	0.225	0.067
-511.814	406.543	0.029	-0.081
-510.799	-136.521	0.162	0.024
-509.785	239.796	-0.127	-0.280
-508.770	-14.671	0.102	-0.087
-507.756	157.271	-0.087	0.159
-506.741	14.532	-0.261	-0.268
-505.726	-13.078	-0.451	-0.385
-504.712	86.752	0.268	-0.389
-503.697	-48.118	0.241	0.153
-502.683	-101.194	-0.254	-0.081
-501.668	122.318	-0.226	0.373
-500.653	-106.923	-0.508	0.147
-499.639	-96.536	-0.298	0.103
-498.624	42.523	0.295	0.353
-497.610	-200.000	0.016	-0.121
-496.595	-9.309	-0.575	-0.505
-495.581	303.841	0.101	-0.248
-494.566	-90.866	0.274	0.103
-493.551	-75.409	0.323	-0.151
-492.537	-102.847	-0.189	-0.059
-491.522	-87.809	0.441	0.174
-490.508	160.012	-0.215	0.396
-489.493	-152.444	-0.721	-0.067
-488.478	-22.195	-0.130	-0.104
-487.464	-59.921	-0.328	-0.184
-486.449	51.854	-0.217	-0.271
-485.435	-128.315	0.407	0.076
-484.420	478.456	0.020	0.061
-483.405	-99.677	0.427	0.140
-482.391	28.498	-0.632	0.703
-481.376	33.329	0.051	0.059
-480.362	-72.016	-0.425	0.207
-479.347	-74.817	0.270	-0.127
-478.332	-200.000	-0.003	0.113
-477.318	800.000	0.118	0.578
-476.303	-62.041	0.239	0.131
-475.289	-140.785	0.082	-0.011
-474.274	226.996	-0.242	-0.518
-473.259	-200.000	-0.048	-0.339
-472.245	209.959	-0.282	-0.584
-471.230	-45.534	0.248	-0.161
-470.216	151.859	-0.200	-0.359
-469.201	-47.243	0.182	0.116
-468.186	-22.580	0.351	-0.278
-467.172	-64.568	-0.368	-0.196
-466.157	-79.870	-0.401	-0.176
-465.143	-200.000	0.008	-0.355
-464.128	-24.816	0.104	0.081
-463.113	247.578	0.263	-0.586
-462.099	177.652	-0.065	-0.125
-461.084	-127.510	-0.269	0.051
-460.070	-43.623	0.288	-0.191
-459.055	-60.618	0.241	0.134
-458.040	189.994	0.058	0.115
-457.026	6.941	0.136	0.133
-456.011	-88.825	0.398	0.154
-454.997	-32.669	-0.371	0.271
-453.982	317.228	-0.146	0.364
-452.968	84.933	0.191	-0.276
-451.953	249.148	-0.103	0.230
-450.938	-109.595	-0.295	0.081
-449.924	139.073	-0.251	0.434
-448.909	-200.000	0.040	0.453
-447.895	59.080	0.269	0.348
-446.880	-127.185	-0.528	-0.101
-445.865	-21.160	-0.397	-0.318
-444.851	-200.000	-0.074	-0.702
-443.836	-137.149	-0.373	0.055
-442.822	-55.147	0.171	-0.101
-441.807	238.463	-0.117	-0.257
-440.792	66.105	-0.299	0.399
-439.778	176.556	-0.095	-0.181
-438.763	459.053	-0.226	0.665
-437.749	-96.711	-0.323	-0.111
-436.734	91.900	0.105	0.156
-435.719	-200.000	0.029	0.172
-434.705	-4.361	0.218	-0.198
-433.690	-153.928	0.139	-0.012
-432.676	-128.459	-0.206	0.038
-431.661	65.469	0.168	-0.223
-430.646	-77.448	-0.131	0.059
-429.632	-125.045	0.405	0.081
-428.617	41.593	-0.176	-0.209
-427.603	8.452	-0.191	-0.189
-426.588	-97.594	-0.189	-0.064
-425.573	-14.857	0.153	0.129
-424.559	-10.638	0.274	-0.238
-423.544	144.980	0.100	0.175
-422.530	-162.303	-0.211	-0.014
-421.515	800.000	0.085	0.395
-420.500	-200.000	-0.022	-0.346
-419.486	-42.024	0.102	0.068
-418.471	148.779	-0.076	0.134
-417.457	318.843	-0.217	0.541
-416.442	161.168	0.016	0.030
-415.428	63.379	-0.349	0.460
-414.413	-81.914	0.564	0.241
-413.398	603.482	0.110	0.361
-412.384	65.337	0.236	0.313
-411.369	442.403	0.038	0.108
-410.355	211.332	-0.092	0.190
-409.340	-39.476	0.044	0.030
-408.325	800.000	-0.082	-0.387
-407.311	83.292	0.152	-0.218
-406.296	800.000	0.072	-0.268
-405.282	264.081	0.197	-0.450
-404.267	-39.741	0.455	-0.311
-403.252	-35.815	-0.286	-0.203
-402.238	104.951	-0.335	0.518
-401.223	26.183	-0.173	0.189
-400.209	800.000	0.031	-0.119
-399.194	-200.000	-0.046	-0.300
-398.179	-61.570	-0.385	-0.211
-397.165	-97.288	-0.541	0.184
-396.150	-59.522	0.151	0.085
-395.136	-105.180	0.414	-0.123
-394.121	121.236	-0.139	-0.228
-393.106	-101.049	0.221	-0.070
-392.092	-28.862	0.166	0.125
-391.077	139.287	-0.173	-0.299
-390.063	-38.646	-0.055	-0.038
-389.048	122.595	0.192	-0.316
-388.033	17.565	-0.341	0.355
-387.019	-37.037	-0.278	-0.195
-386.004	29.580	0.505	-0.563
-384.990	800.000	-0.078	-0.341
-383.975	152.506	-0.104	-0.186
-382.960	-7.060	0.396	-0.352
-381.946	-177.238	0.364	0.012
-380.931	-188.113	0.216	-0.004
-379.917	10.765	0.160	0.160
-378.902	368.076	0.017	0.046
-377.888	197.217	0.065	-0.131
-376.873	-123.656	-0.331	-0.068
-375.858	589.969	0.201	0.653
-374.844	-51.910	0.175	0.106
-373.829	-65.911	0.263	0.137
-372.815	-95.875	-0.128	0.045
-371.800	35.974	0.097	-0.112
-370.785	-15.962	-0.362	0.301
-369.771	-58.833	-0.574	0.324
-368.756	233.855	-0.004	0.008
-367.742	57.647	0.483	-0.619
-366.727	-120.619	0.112	-0.025
-365.712	26.735	0.348	-0.382
-364.698	-41.414	0.043	-0.029
-363.683	-28.281	-0.418	0.316
-362.669	26.755	-0.223	0.244
-361.654	800.000	-0.123	0.631
-360.639	-200.000	-0.005	0.135
-359.625	507.442	0.045	0.138
-358.610	65.020	0.031	-0.041
-357.596	-158.238	0.311	-0.023
-356.581	729.917	-0.030	-0.107
-355.566	199.220	0.191	0.384
-354.552	357.371	-0.114	-0.300
-353.537	-149.526	-0.255	-0.026
-352.523	-200.000	0.006	0.051
-351.508	-9.704	-0.114	-0.099
-350.493	-200.000	0.013	-0.232
-349.479	-91.410	0.254	0.094
-348.464	40.922	0.073	0.086
-347.450	-200.000	-0.008	0.058
-346.435	21.169	-0.318	0.338
-345.420	-193.455	-0.200	-0.002
-344.406	721.004	-0.193	0.675
-343.391	-129.760	0.388	-0.069
-342.377	43.624	0.162	-0.193
-341.362	3.579	-0.103	-0.098
-340.348	-119.272	0.437	0.099
-339.333	443.358	0.055	-0.158
-338.318	346.268	-0.121	-0.312
-337.304	-80.776	-0.397	0.172
-336.289	800.000	0.071	-0.328
-335.275	130.086	-0.140	-0.235
-334.260	800.000	0.031	-0.144
-333.245	-200.000	-0.046	-0.276
-332.231	5.887	0.184	0.178
-331.216	-36.444	0.308	0.216
-330.202	-200.000	-0.086	-0.527
-329.187	39.247	0.135	-0.159
-328.172	340.152	0.068	-0.173
-327.158	-46.887	0.313	-0.199
-326.143	-127.143	0.041	0.008
-325.129	-130.529	0.327	-0.057
-324.114	-78.449	-0.360	0.160
-323.099	-88.677	-0.342	0.132
-322.085	-96.348	0.541	0.186
-321.070	-84.752	-0.102	0.042
-320.056	-200.000	-0.024	0.155
-319.041	-100.961	-0.126	-0.040
-318.026	-154.003	-0.198	0.017
-317.012	-61.054	-0.489	-0.269
-315.997	395.702	0.119	0.325
-314.983	-200.000	0.022	0.220
-313.968	-75.204	-0.501	-0.233
-312.953	188.750	0.141	-0.276
-311.939	-200.000	0.037	-0.244
-310.924	800.000	0.099	-0.378
-309.910	2.336	-0.173	0.163
-308.895	-130.737	0.251	-0.044
-307.880	-91.236	-0.270	-0.101
-306.866	800.000	0.053	0.268
-305.851	-200.000	0.038	-0.282
-304.837	-80.102	-0.111	-0.049
-303.822	-109.898	-0.221	0.060
-302.807	-87.140	0.498	-0.197
-301.793	-200.000	0.004	0.357
-300.778	-185.542	0.191	0.004
-299.764	69.638	0.155	-0.209
-298.749	-200.000	0.015	-0.283
-297.735	-73.404	-0.175	-0.083
-296.720	-184.481	0.811	-0.017
-295.705	-200.000	0.058	0.414
-294.691	-135.993	0.340	-0.052
-293.676	24.725	0.327	0.353
-292.662	-200.000	0.030	-0.334
-291.647	800.000	0.046	-0.177
-290.632	171.989	0.144	0.272
-289.618	-200.000	0.024	0.454
-288.603	-91.532	0.273	0.101
-287.589	197.288	-0.374	0.746
-286.574	-24.044	-0.314	0.244
-285.559	-69.167	0.619	-0.310
-284.545	-85.886	0.272	-0.109
-283.530	-28.679	0.259	0.194
-282.516	-80.851	-0.101	0.044
-281.501	144.343	-0.047	-0.082
-280.486	-103.471	0.519	-0.158
-279.472	-157.272	0.667	0.052
-278.457	-104.506	0.148	-0.044
-277.443	150.180	-0.130	-0.230
-276.428	9.317	0.465	0.458
-275.413	-1.056	-0.538	0.496
-274.399	-94.473	-0.173	-0.061
-273.384	-80.139	-0.194	-0.084
-272.370	-17.173	0.464	0.381
-271.355	800.000	0.046	0.205
-270.340	-151.515	0.324	0.031
-269.326	225.547	-0.197	-0.417
-268.311	-75.986	0.272	-0.125
-267.297	-128.050	0.168	0.031
-266.282	-200.000	-0.028	0.258
-265.267	121.464	-0.144	0.234
-264.253	10.257	-0.298	0.295
-263.238	6.376	-0.181	0.175
-262.224	152.887	0.157	0.281
-261.209	-105.584	0.109	0.032
-260.195	-72.103	-0.243	-0.117
-259.180	18.154	0.250	-0.260
-258.165	-88.082	-0.338	0.132
-257.151	-200.000	0.005	0.104
-256.136	90.565	0.193	-0.282
-255.122	-58.405	-0.308	0.174
-254.107	-90.258	-0.383	0.144
-253.092	98.356	0.198	-0.298
-252.078	-165.626	-0.374	0.021
-251.063	-0.265	-0.132	-0.122
-250.049	-36.003	-0.528	0.371
-249.034	-200.000	0.018	0.127
-248.019	217.272	-0.071	-0.149
-247.005	-110.465	-0.290	0.078
-245.990	-51.770	0.280	0.170
-244.976	53.845	0.181	0.226
-243.961	-80.841	0.351	0.151
-242.946	-127.205	-0.306	0.058
-241.932	-81.001	-0.079	-0.034
-240.917	-59.648	0.145	0.081
-239.903	-77.500	-0.203	-0.091
-238.888	61.897	-0.269	-0.350
-237.873	-166.726	-0.343	-0.018
-236.859	800.000	-0.036	0.175
-235.844	14.830	0.321	-0.327
-234.830	800.000	-0.200	-0.763
-233.815	-24.991	-0.375	-0.290
-232.800	31.779	0.154	-0.173
-231.786	-175.792	-0.358	-0.012
-230.771	-200.000	0.026	-0.335
-229.757	-95.242	-0.227	-0.079
-228.742	-67.194	0.454	0.232
-227.727	32.672	0.229	0.259
-226.713	-114.678	0.192	-0.047
-225.698	26.160	-0.241	-0.262
-224.684	800.000	0.044	-0.237
-223.669	19.267	0.158	0.165
-222.655	-99.469	0.438	-0.143
-221.640	-106.136	-0.422	0.122
-220.625	104.868	0.178	0.274
-219.611	-107.046	-0.184	0.053
-218.596	209.243	-0.143	0.292
-217.582	-37.229	0.508	0.353
-216.567	-96.377	0.302	-0.104
-215.552	-43.812	0.286	-0.187
-214.538	-175.655	-0.174	0.006
-213.523	-86.655	0.107	-0.042
-212.509	-98.578	0.664	-0.219
-211.494	-26.839	-0.332	-0.252
-210.479	-200.000	-0.464	-0.002
-209.465	-14.973	0.334	-0.279
-208.450	-200.000	-0.008	-0.190
-207.436	-200.000	-0.008	-0.290
-206.421	-15.425	0.410	0.340
-205.406	-118.365	-0.138	0.032
-204.392	-21.230	-0.363	-0.288
-203.377	82.648	-0.081	-0.114
-202.363	78.172	0.310	0.430
-201.348	325.737	0.165	-0.413
-200.333	81.039	-0.138	-0.194
-199.319	526.067	-0.013	0.040
-198.304	86.344	0.529	0.759
-197.290	10.630	-0.079	0.078
-196.275	599.268	0.064	-0.208
-195.260	-200.000	0.067	-0.387
-194.246	636.866	-0.060	0.198
-193.231	-149.620	0.173	-0.018
-192.217	-104.945	0.134	-0.040
-191.202	-6.841	0.251	-0.221
-190.187	-141.454	-0.435	-0.057
-189.173	377.043	0.207	-0.553
-188.158	86.230	0.292	0.419
-187.144	-124.536	0.199	-0.040
-186.129	-200.000	0.015	0.085
-185.114	702.301	-0.147	-0.506
-184.100	-58.214	-0.232	0.131
-183.085	60.615	-0.184	0.237
-182.071	60.934	-0.199	-0.257
-181.056	124.598	-0.229	-0.375
-180.042	-34.330	-0.279	0.199
-179.027	-200.000	0.047	0.336
-178.012	749.792	-0.047	-0.166
-176.998	24.378	0.386	0.415
-175.983	-180.797	-0.664	-0.017
-174.969	-4.832	-0.298	0.267
-173.954	33.035	0.075	-0.084
-172.939	800.000	-0.117	0.598
-171.925	53.124	-0.315	0.392
-170.910	427.914	-0.150	0.422
-169.896	496.479	0.109	0.326
-168.881	225.014	-0.186	-0.393
-167.866	-25.633	0.155	-0.119
-166.852	-62.570	0.263	0.142
-165.837	594.804	-0.169	0.546
-164.823	-180.515	0.266	-0.007
-163.808	-200.000	0.016	-0.137
-162.793	0.058	-0.386	-0.357
-161.779	-149.594	-0.529	-0.054
-160.764	180.122	-0.071	-0.136
-159.750	104.428	-0.221	0.338
-158.735	800.000	-0.052	0.300
-157.720	800.000	0.025	-0.136
-156.706	-69.625	0.261	0.129
-155.691	89.011	0.177	-0.256
-154.677	-200.000	0.060	0.408
-153.662	-120.929	-0.462	0.100
-152.647	263.691	0.114	-0.258
-151.633	-89.322	0.034	-0.013
-150.618	-0.609	0.093	-0.085
-149.604	73.052	0.169	0.229
-148.589	-123.085	0.523	0.108
-147.574	541.894	0.036	-0.112
-146.560	-81.185	0.162	0.069
-145.545	-19.657	-0.252	0.202
-144.531	-85.378	0.166	-0.067
-143.516	-101.072	-0.120	0.038
-142.502	136.204	-0.471	0.799
-141.487	-89.805	0.203	0.077
-140.472	-200.000	0.043	-0.278
-139.458	-133.991	0.262	0.042
-138.443	29.016	0.270	-0.298
-137.429	-94.187	-0.467	-0.165
-136.414	88.949	-0.111	0.160
-135.399	-10.351	0.255	0.219
-134.385	33.515	0.301	0.340
-133.370	-75.632	0.423	-0.194
-132.356	-134.395	0.689	0.108
-131.341	-200.000	0.012	-0.288
-130.326	-58.120	-0.028	0.016
-129.312	800.000	-0.092	-0.417
-128.297	800.000	-0.043	-0.174
-127.283	-135.661	-0.370	0.056
-126.268	-43.141	0.509	0.334
-125.253	230.404	-0.092	0.195
-124.239	-82.508	0.089	0.037
-123.224	-71.525	-0.223	0.107
-122.210	-200.000	-0.013	0.197
-121.195	-143.694	-0.293	0.036
-120.180	-125.331	0.189	0.037
-119.166	86.032	0.172	-0.246
-118.151	-200.000	-0.017	0.193
-117.137	-55.361	0.649	0.377
-116.122	-58.608	0.300	-0.168
-115.107	800.000	-0.036	0.157
-114.093	139.021	-0.112	-0.191
-113.078	191.896	-0.118	0.230
-112.064	-146.257	-0.115	-0.013
-111.049	103.865	-0.288	-0.440
-110.034	-182.604	-0.486	0.011
-109.020	202.163	0.121	0.244
-108.005	800.000	0.121	0.470
-106.991	430.624	-0.061	0.171
-105.976	800.000	-0.114	-0.426
-104.962	55.101	0.112	-0.140
-103.947	-135.336	0.321	0.049
-102.932	-167.946	-0.071	0.004
-101.918	369.786	-0.190	0.501
-100.903	-74.392	0.429	0.200
-99.889	140.358	-0.285	0.489
-98.874	-78.540	0.267	-0.118
-97.859	-60.525	0.177	0.097
-96.845	800.000	-0.055	0.224
-95.830	-90.705	-0.101	0.037
-94.816	-120.257	0.349	0.076
-93.801	98.603	0.045	-0.067
-92.786	101.466	-0.153	0.232
-91.772	-112.300	0.554	0.143
-90.757	800.000	-0.028	-0.114
-89.743	2.141	-0.165	-0.155
-88.728	-58.403	0.331	-0.186
-87.713	800.000	0.046	0.194
-86.699	-107.861	-0.119	-0.033
-85.684	20.624	-0.464	-0.487
-84.670	-63.051	0.266	-0.142
-83.655	-200.000	0.015	0.208
-82.640	-58.192	0.204	-0.115
-81.626	168.545	-0.128	0.237
-80.611	-106.948	0.395	0.112
-79.597	-27.546	0.114	0.085
-78.582	282.552	0.107	-0.249
-77.567	95.635	0.333	-0.493
-76.553	-115.648	-0.243	-0.059
-75.538	-146.768	0.797	0.088
-74.524	-23.287	-0.299	0.232
-73.509	85.326	0.133	-0.190
-72.494	47.598	-0.118	0.143
-71.480	-105.037	-0.220	-0.065
-70.465	-33.978	0.080	0.057
-69.451	-5.097	-0.348	-0.310
-68.436	800.000	0.074	-0.382
-67.422	3.645	0.416	0.392
-66.407	-87.880	0.514	-0.199
-65.392	14.624	-0.309	-0.312
-64.378	-74.272	-0.307	-0.143
-63.363	542.637	0.134	-0.417
-62.349	43.613	0.177	0.209
-61.334	54.838	-2.003	-2.503
-60.319	31.490	1.122	1.247
-59.305	252.662	-3.637	-8.053
-58.290	59.965	4.003	5.120
-57.276	365.598	3.912	10.243
-56.261	-200.000	24.821	324.542
-55.246	348.380	1313.166	3364.446
-54.232	52.225	2851.826	3519.442
-53.217	50.996	2660.825	3264.569
-52.203	31.219	2389.868	2653.031
-51.188	27.610	2056.349	2238.246
-50.173	24.406	1943.382	2077.775
-49.159	23.147	1932.309	2051.191
-48.144	22.739	1928.135	2041.936
-47.130	22.615	1925.603	2037.726
-46.115	22.624	1923.016	2035.015
-45.100	22.426	1922.516	2032.110
-44.086	22.404	1921.669	2030.878
-43.071	22.528	1919.077	2029.489
-42.057	22.489	1917.754	2027.565
-41.042	22.531	1916.126	2026.250
-40.027	22.498	1915.049	2024.645
-39.013	22.422	1912.983	2021.499
-37.998	22.446	1912.294	2020.968
-36.984	22.464	1911.410	2020.161
-35.969	22.398	1910.023	2017.857
-34.954	22.367	1908.533	2015.850
-33.940	22.433	1907.387	2015.315
-32.925	22.428	1905.962	2013.672
-31.911	22.476	1904.125	2012.201
-30.896	22.512	1902.359	2010.672
-29.881	22.319	1902.311	2008.325
-28.867	22.388	1900.401	2007.016
-27.852	22.261	1899.248	2004.264
-26.838	22.451	1896.472	2003.429
-25.823	22.411	1895.861	2002.250
-24.809	22.344	1894.694	2000.168
-23.794	22.303	1893.986	1998.872
-22.779	22.239	1892.976	1996.997
-21.765	22.168	1892.198	1995.295
-20.750	22.282	1890.127	1994.322
-19.736	22.207	1889.039	1992.249
-18.721	22.348	1887.027	1991.646
-17.706	22.290	1886.475	1990.330
-16.692	22.321	1885.568	1989.648
-15.677	22.223	1884.207	1987.016
-14.663	22.288	1883.176	1986.583
-13.648	22.308	1881.396	1984.859
-12.633	22.228	1880.563	1982.993
-11.619	22.173	1879.829	1981.523
-10.604	22.173	1878.089	1979.603
-9.590	22.237	1876.462	1978.534
-8.575	22.182	1875.561	1976.881
-7.560	22.205	1874.507	1975.955
-6.546	22.277	1872.948	1975.045
-5.531	22.260	1872.143	1973.928
-4.517	22.194	1871.344	1972.265
-3.502	22.299	1870.003	1971.952
-2.487	22.266	1868.531	1969.951
-1.473	22.269	1864.731	1965.904
-0.458	22.142	1846.669	1945.364
0.556	18.605	1994.185	2046.159
1.571	17.148	2196.383	2234.097
2.586	18.006	2235.192	2284.848
3.600	17.998	2238.591	2287.932
4.615	17.897	2238.009	2285.707
5.629	17.964	2236.240	2284.525
6.644	17.947	2233.053	2280.773
7.659	17.900	2232.060	2278.854
8.673	17.895	2230.054	2276.463
9.688	17.839	2238.663	2284.233
10.702	16.711	2320.005	2351.204
11.717	15.115	2382.304	2391.162
12.731	7.002	2364.325	2256.871
13.746	0.969	2348.790	2155.628
14.761	0.138	2344.617	2139.669
15.775	0.033	2343.226	2136.647
16.790	0.115	2341.301	2135.806
17.804	0.141	2339.112	2133.922
18.819	-0.004	2339.134	2131.618
19.834	-0.016	2337.262	2129.486
20.848	0.032	2335.529	2128.329
21.863	-0.018	2334.464	2126.398
22.877	0.020	2332.071	2124.496
23.892	0.001	2329.394	2121.543
24.907	0.010	2327.271	2119.477
25.921	0.018	2325.787	2117.983
26.936	-0.069	2323.344	2114.285
27.950	0.134	2319.829	2113.690
28.965	0.061	2319.361	2111.979
29.980	0.094	2317.993	2110.956
30.994	0.118	2314.902	2108.221
32.009	3.771	2325.494	2169.219
33.023	12.525	2352.234	2318.397
34.038	16.260	2357.645	2376.397
35.053	16.195	2353.980	2371.498
36.067	16.154	2352.052	2368.696
37.082	16.296	2349.842	2368.191
38.096	16.298	2348.545	2366.628
39.111	16.335	2346.586	2364.892
40.126	16.457	2344.822	2364.542
41.140	16.717	2342.012	2365.074
42.155	16.678	2339.899	2362.115
43.169	16.667	2338.339	2360.097
44.184	16.497	2335.735	2354.815
45.199	16.470	2333.770	2352.166
46.213	16.416	2333.173	2350.535
47.228	16.594	2331.688	2351.236
48.242	16.780	2329.304	2351.147
49.257	16.688	2328.401	2348.674
50.271	16.875	2324.844	2347.409
51.286	16.527	2322.670	2340.092
52.301	16.427	2321.456	2337.197
53.315	17.078	2323.832	2348.371
54.330	19.643	2330.627	2390.684
55.344	21.217	2330.953	2412.596
56.359	21.441	2327.508	2411.857
57.374	21.545	2327.551	2413.044
58.388	21.782	2324.808	2413.203
59.403	21.630	2320.056	2405.873
60.417	21.393	2316.667	2398.801
61.432	21.320	2316.728	2397.580
62.447	21.512	2316.171	2399.358
63.461	21.789	2313.819	2400.446
64.476	21.865	2312.301	2399.634
65.490	21.518	2309.904	2392.085
66.505	20.711	2305.950	2376.631
67.520	18.828	2297.750	2342.123
68.534	16.837	2290.008	2306.734
69.549	16.284	2285.614	2294.487
70.563	16.368	2282.929	2292.655
71.578	16.295	2282.350	2290.800
72.593	16.374	2280.382	2289.635
73.607	16.362	2279.414	2288.217
74.622	16.491	2276.672	2286.947
75.636	16.322	2274.133	2281.831
76.651	16.356	2271.201	2279.077
77.666	16.357	2269.507	2277.118
78.680	16.211	2267.398	2272.751
79.695	16.122	2265.193	2269.068
80.709	15.990	2263.366	2265.187
81.724	16.004	2262.053	2263.793
82.739	15.984	2259.480	2260.668
83.753	16.013	2256.844	2258.149
84.768	16.021	2255.002	2256.151
85.782	16.016	2253.607	2254.417
86.797	15.932	2251.738	2251.154
87.812	15.919	2250.164	2249.133
88.826	16.059	2248.240	2248.813
89.841	16.130	2246.191	2247.453
90.855	16.116	2243.046	2243.844
91.870	16.164	2242.498	2243.669
92.884	16.157	2240.544	2241.358
93.899	16.061	2240.187	2239.448
94.914	16.748	2242.023	2250.184
95.928	19.155	2249.090	2289.222
96.943	19.944	2246.619	2296.955
97.957	17.550	2236.397	2254.416
98.972	16.049	2231.276	2229.039
99.987	15.869	2228.225	2223.342
101.001	15.953	2225.510	2221.482
102.016	16.090	2222.969	2220.483
103.030	15.853	2221.277	2215.394
104.045	15.971	2218.656	2214.071
105.060	16.060	2216.838	2213.171
106.074	16.079	2215.343	2211.666
107.089	15.983	2213.507	2208.308
108.103	16.051	2212.788	2208.210
109.118	16.103	2212.078	2207.930
110.133	16.190	2210.106	2206.839
111.147	16.011	2208.566	2202.689
112.162	16.063	2206.194	2200.735
113.176	16.380	2203.468	2201.909
114.191	16.284	2203.337	2200.258
115.206	16.317	2201.077	2198.175
116.220	16.245	2198.588	2194.481
117.235	16.264	2196.764	2192.645
118.249	16.244	2195.375	2190.739
119.264	16.203	2193.585	2188.155
120.279	16.285	2191.714	2187.091
121.293	16.298	2190.142	2185.430
122.308	16.217	2188.693	2182.672
123.322	16.162	2187.674	2180.671
124.337	16.676	2189.228	2188.640
125.352	19.249	2196.697	2229.357
126.366	19.791	2194.116	2233.514
127.381	17.255	2183.774	2189.910
128.395	16.223	2178.256	2170.774
129.410	16.213	2176.029	2168.165
130.424	16.002	2174.988	2164.144
131.439	16.062	2173.227	2162.917
132.454	16.257	2170.982	2162.931
133.468	16.355	2169.550	2162.506
134.483	16.522	2168.175	2163.017
135.497	16.547	2167.227	2162.138
136.512	16.316	2164.279	2155.975
137.527	16.319	2161.712	2153.200
138.541	16.025	2160.875	2148.341
139.556	16.034	2160.421	2147.745
140.570	16.062	2158.130	2145.575
141.585	15.936	2155.415	2141.006
142.600	15.988	2154.026	2140.036
143.614	16.004	2152.088	2138.053
144.629	16.035	2150.199	2136.322
145.643	15.886	2149.305	2133.274
146.658	15.832	2147.590	2130.632
147.673	15.776	2146.329	2128.408
148.687	15.896	2145.033	2128.403
149.702	16.075	2144.161	2129.555
150.716	15.930	2143.102	2126.406
151.731	16.101	2142.338	2127.563
152.746	15.990	2140.892	2124.459
153.760	16.741	2143.347	2136.166
154.775	19.324	2149.625	2174.976
155.789	20.182	2148.162	2184.098
156.804	17.664	2137.363	2141.105
157.819	16.150	2130.937	2115.336
158.833	16.010	2127.977	2110.380
159.848	16.041	2126.317	2108.876
160.862	16.172	2124.450	2108.413
161.877	16.279	2123.456	2108.516
162.892	16.272	2123.374	2108.099
163.906	16.203	2122.152	2105.760
164.921	16.264	2119.907	2104.048
165.935	16.196	2118.086	2101.136
166.950	16.269	2116.156	2099.893
167.964	16.241	2113.955	2097.100
168.979	15.989	2112.093	2091.856
169.994	15.965	2110.608	2089.844
171.008	15.970	2108.655	2087.721
172.023	15.936	2107.811	2086.207
173.037	16.021	2106.000	2085.221
174.052	16.223	2104.282	2085.777
175.067	16.051	2102.541	2081.669
176.081	16.030	2101.996	2080.619
177.096	16.173	2099.983	2080.154
178.110	16.294	2098.055	2079.489
179.125	16.271	2096.921	2077.832
180.140	16.196	2096.362	2076.105
181.154	16.260	2094.921	2075.219
182.169	16.417	2093.842	2075.846
183.183	16.953	2096.543	2084.894
184.198	19.715	2103.061	2125.315
185.213	20.241	2100.738	2129.206
186.227	17.463	2091.927	2085.843
187.242	16.372	2087.037	2067.299
188.256	16.284	2084.168	2063.129
189.271	16.139	2083.315	2060.263
190.286	16.087	2081.803	2057.884
191.300	16.007	2079.126	2054.011
192.315	16.200	2076.527	2053.563
193.329	16.212	2076.664	2053.596
194.344	16.499	2076.213	2056.412
195.359	16.639	2074.476	2056.151
196.373	16.310	2071.754	2049.199
197.388	16.165	2069.136	2044.598
198.402	16.140	2066.859	2041.800
199.417	16.060	2064.699	2038.449
200.432	16.095	2063.790	2037.736
201.446	16.138	2062.016	2036.263
202.461	16.005	2060.859	2033.261
203.475	16.055	2058.485	2031.273
204.490	16.057	2055.842	2028.454
205.504	16.067	2053.991	2026.506
206.519	16.025	2052.899	2024.677
207.534	16.123	2049.982	2022.737
208.548	16.113	2048.704	2021.115
209.563	16.074	2048.410	2020.118
210.577	16.316	2047.276	2021.665
211.592	16.242	2046.666	2019.932
212.607	17.510	2051.916	2040.153
213.621	20.652	2058.438	2084.298
214.636	20.032	2052.201	2070.281
215.650	16.942	2043.467	2024.207
216.665	16.285	2040.314	2012.974
217.680	16.317	2037.599	2010.439
218.694	16.091	2035.965	2005.879
219.709	15.982	2034.194	2002.590
220.723	16.055	2033.956	2002.986
221.738	16.312	2031.742	2003.632
222.753	16.203	2030.481	2000.855
223.767	16.302	2028.634	1999.972
224.782	16.262	2026.373	1997.025
225.796	16.180	2025.435	1994.896
226.811	16.142	2023.986	1992.777
227.826	16.133	2022.636	1991.094
228.840	16.163	2020.949	1989.550
229.855	16.101	2019.474	1987.129
230.869	16.159	2018.141	1986.263
231.884	16.088	2016.505	1983.582
232.899	16.095	2015.281	1982.225
233.913	16.135	2013.498	1980.704
234.928	16.066	2012.411	1978.577
235.942	16.080	2011.447	1977.560
236.957	16.115	2009.168	1975.497
237.972	16.156	2008.176	1974.764
238.986	16.132	2006.802	1972.896
240.001	16.218	2005.167	1972.062
241.015	16.262	2004.030	1971.226
242.030	16.946	2006.721	1981.670
243.045	19.363	2012.677	2015.756
244.059	19.741	2007.973	2015.234
245.074	17.231	1999.252	1976.920
246.088	16.391	1996.149	1963.813
247.103	16.509	1994.610	1963.433
248.117	16.455	1993.680	1961.660
249.132	16.238	1991.069	1956.322
250.147	16.143	1989.633	1953.569
251.161	16.108	1987.765	1951.093
252.176	16.361	1987.857	1953.895
253.190	16.705	1984.932	1954.784
254.205	16.564	1984.357	1952.340
255.220	16.607	1981.697	1949.995
256.234	16.659	1979.799	1948.486
257.249	16.394	1979.373	1944.769
258.263	16.287	1978.296	1942.249
259.278	16.407	1976.813	1941.942
260.293	16.087	1975.208	1936.444
261.307	15.907	1972.808	1931.781
262.322	16.001	1971.611	1931.455
263.336	15.970	1969.235	1928.539
264.351	15.872	1967.458	1925.445
265.366	15.863	1965.802	1923.492
266.380	15.924	1964.993	1923.168
267.395	15.927	1964.668	1922.653
268.409	16.029	1962.232	1921.211
269.424	16.049	1961.180	1920.177
270.439	16.094	1959.898	1919.208
271.453	17.041	1963.023	1932.888
272.468	19.743	1967.590	1968.110
273.482	19.692	1964.526	1964.231
274.497	17.227	1954.971	1926.390
275.512	16.119	1951.055	1909.685
276.526	16.004	1948.722	1905.870
277.541	16.017	1946.893	1903.998
278.555	15.861	1945.740	1900.873
279.570	15.854	1943.126	1898.013
280.585	15.852	1942.616	1897.265
281.599	15.858	1942.152	1896.652
282.614	16.097	1940.496	1897.513
283.628	16.490	1939.170	1900.433
284.643	16.582	1938.893	1900.974
285.657	16.680	1938.466	1901.435
286.672	16.779	1936.148	1900.053
287.687	16.618	1935.307	1897.177
288.701	16.594	1933.495	1894.903
289.716	16.534	1931.680	1892.230
290.730	16.624	1930.262	1891.618
291.745	16.688	1928.843	1890.726
292.760	16.527	1928.010	1887.874
293.774	16.363	1927.128	1884.945
294.789	16.338	1925.620	1882.962
295.803	16.263	1922.805	1879.143
296.818	16.282	1921.688	1878.049
297.833	16.371	1920.713	1877.855
298.847	16.286	1919.104	1875.118
299.862	16.324	1917.351	1873.600
300.876	17.026	1919.359	1883.174
301.891	19.836	1925.499	1920.366
302.906	20.142	1922.785	1920.842
303.920	17.367	1915.002	1882.011
304.935	16.377	1912.063	1867.901
305.949	16.283	1908.675	1863.330
306.964	16.259	1906.817	1861.027
307.979	16.417	1905.247	1861.013
308.993	16.617	1903.966	1861.752
310.008	16.894	1902.728	1863.385
311.022	16.925	1901.092	1861.896
312.037	16.629	1900.110	1857.446
313.052	16.668	1897.968	1855.563
314.066	16.707	1896.696	1854.526
315.081	16.724	1896.505	1854.301
316.095	16.758	1894.163	1852.167
317.110	16.526	1892.455	1847.726
318.125	16.325	1890.653	1843.543
319.139	16.348	1889.964	1842.903
320.154	16.367	1888.807	1841.763
321.168	16.427	1886.544	1839.994
322.183	16.245	1884.616	1835.899
323.197	15.923	1883.551	1831.121
324.212	15.848	1882.160	1828.736
325.227	15.873	1879.728	1826.425
326.241	15.928	1877.594	1824.732
327.256	15.937	1877.218	1824.242
328.270	15.834	1875.710	1821.442
329.285	16.019	1876.139	1823.649
330.300	17.077	1879.865	1838.579
331.314	20.009	1885.707	1876.045
332.329	19.813	1879.939	1867.955
333.343	17.016	1870.618	1828.223
334.358	16.123	1866.898	1814.715
335.373	16.038	1865.070	1811.798
336.387	15.756	1863.853	1807.357
337.402	15.758	1862.537	1805.881
338.416	16.009	1860.686	1806.578
339.431	15.944	1859.697	1804.697
340.446	16.157	1857.802	1804.939
341.460	16.269	1857.512	1805.640
342.475	16.452	1856.614	1806.524
343.489	16.579	1855.142	1806.238
344.504	16.590	1854.262	1805.278
345.519	16.570	1853.199	1803.818
346.533	16.807	1851.284	1804.267
347.548	16.725	1851.141	1803.034
348.562	16.832	1848.095	1800.995
349.577	16.766	1848.142	1800.128
350.592	17.029	1847.148	1801.742
351.606	16.900	1845.517	1798.570
352.621	16.866	1843.981	1796.495
353.635	16.580	1842.201	1791.492
354.650	16.429	1840.368	1787.896
355.665	16.438	1838.090	1785.567
356.679	16.405	1836.912	1783.857
357.694	16.326	1836.093	1782.006
358.708	16.252	1835.311	1780.256
359.723	17.444	1839.218	1796.483
360.738	20.309	1843.340	1830.714
361.752	19.516	1837.838	1816.645
362.767	17.116	1831.246	1784.590
363.781	16.408	1828.010	1773.759
364.796	16.181	1826.683	1769.863
365.810	16.132	1824.599	1767.115
366.825	16.189	1823.909	1766.833
367.840	16.447	1824.043	1769.463
368.854	16.588	1822.245	1768.990
369.869	16.319	1820.721	1764.479
370.883	16.234	1818.895	1761.608
371.898	16.170	1817.645	1759.513
372.913	16.160	1816.321	1757.913
373.927	16.178	1815.812	1757.404
374.942	16.400	1814.313	1758.064
375.956	16.456	1813.030	1757.196
376.971	16.443	1810.417	1754.314
377.986	16.240	1808.762	1750.385
379.000	16.151	1807.014	1747.558
380.015	16.358	1805.524	1748.065
381.029	16.164	1803.770	1744.138
382.044	15.875	1801.825	1739.047
383.059	15.883	1801.183	1738.304
384.073	15.958	1799.342	1737.093
385.088	16.018	1798.493	1736.694
386.102	15.927	1796.256	1733.384
387.117	15.842	1795.175	1731.252
388.132	15.962	1795.072	1732.186
389.146	16.917	1799.492	1746.130
390.161	20.040	1803.683	1782.334
391.175	19.910	1796.535	1773.721
392.190	16.920	1787.718	1734.110
393.205	16.043	1785.257	1722.510
394.219	16.024	1783.382	1720.299
395.234	15.994	1783.200	1719.611
396.248	16.108	1781.153	1718.606
397.263	16.041	1778.746	1715.386
398.278	15.986	1777.317	1713.242
399.292	16.036	1776.474	1712.735
400.307	16.086	1775.906	1712.492
401.321	16.227	1774.823	1712.688
402.336	16.286	1773.003	1711.327
403.350	16.428	1772.109	1711.698
404.365	16.494	1770.809	1710.911
405.380	16.680	1770.293	1712.099
406.394	16.833	1769.255	1712.447
407.409	16.851	1768.338	1711.539
408.423	16.864	1766.988	1710.159
409.438	16.813	1764.306	1706.842
410.453	16.715	1763.992	1705.336
411.467	16.672	1763.221	1703.951
412.482	16.541	1761.251	1700.527
413.496	16.287	1759.911	1696.464
414.511	16.274	1757.886	1694.175
415.526	16.281	1755.703	1691.938
416.540	16.214	1754.159	1689.572
417.555	16.309	1753.131	1689.336
418.569	16.472	1754.071	1691.684
419.584	16.505	1753.923	1691.660
420.599	16.388	1753.059	1689.455
421.613	16.350	1751.096	1686.981
422.628	16.393	1749.640	1685.808
423.642	16.355	1747.762	1683.411
424.657	16.421	1746.556	1682.714
425.672	16.630	1744.486	1682.608
426.686	16.390	1743.973	1679.514
427.701	16.296	1743.516	1677.931
428.715	16.457	1741.705	1677.590
429.730	16.756	1740.338	1679.052
430.745	16.729	1738.881	1677.176
431.759	16.619	1738.675	1675.686
432.774	16.937	1739.349	1679.301
433.788	17.446	1738.947	1683.771
434.803	17.546	1739.136	1684.745
435.818	17.554	1737.921	1683.446
436.832	17.551	1736.641	1681.974
437.847	16.590	1728.900	1664.776
438.861	9.001	1709.709	1571.626
439.876	1.601	1695.750	1486.135
440.890	0.293	1692.536	1470.317
441.905	0.181	1691.169	1467.856
442.920	0.175	1690.210	1466.790
443.934	0.123	1689.137	1465.173
444.949	0.111	1687.907	1463.811
445.963	0.097	1686.517	1462.295
446.978	-0.006	1686.473	1461.080
447.993	0.123	1684.811	1460.716
449.007	0.233	1682.341	1459.471
450.022	0.141	1680.467	1456.782
451.036	0.186	1679.479	1456.186
452.051	1.234	1683.225	1469.467
453.066	8.557	1699.664	1555.432
454.080	15.876	1710.878	1637.296
455.095	17.262	1712.996	1652.682
456.109	17.386	1713.356	1654.043
457.124	17.712	1711.621	1655.347
458.139	17.739	1710.982	1654.797
459.153	17.727	1710.344	1653.865
460.168	17.834	1707.841	1652.285
461.182	17.682	1705.843	1648.684
462.197	17.688	1704.422	1647.172
463.212	17.640	1703.261	1645.385
464.226	17.603	1702.040	1643.646
465.241	17.687	1700.934	1643.195
466.255	17.676	1700.549	1642.518
467.270	17.826	1698.506	1641.806
468.285	17.662	1696.591	1638.175
469.299	17.467	1696.225	1635.740
470.314	17.578	1694.439	1634.895
471.328	17.611	1693.022	1633.644
472.343	17.525	1692.781	1632.389
473.358	17.693	1690.873	1631.970
474.372	17.721	1689.569	1630.786
475.387	17.630	1687.989	1628.188
476.401	17.605	1686.893	1626.696
477.416	17.583	1686.369	1625.784
478.430	17.583	1684.489	1623.785
479.445	17.493	1683.563	1621.835
480.460	17.449	1681.733	1619.450
481.474	17.680	1680.603	1620.385
482.489	17.697	1679.520	1619.302
483.503	17.837	1677.707	1618.697
484.518	17.746	1677.325	1617.266
485.533	17.715	1676.548	1616.025
486.547	17.759	1674.739	1614.507
487.562	17.895	1673.751	1614.660
488.576	17.819	1672.572	1612.603
489.591	17.922	1670.712	1611.595
490.606	17.766	1669.508	1608.765
491.620	17.870	1667.402	1607.525
492.635	17.922	1666.365	1606.830
493.649	17.807	1665.929	1605.128
494.664	17.757	1663.993	1602.600
495.679	17.619	1661.676	1598.869
496.693	17.675	1660.580	1598.155
497.708	17.704	1659.844	1597.527
498.722	17.745	1658.904	1596.817
499.737	17.887	1657.511	1596.618
500.752	17.810	1656.021	1594.269
501.766	17.749	1654.139	1591.691
502.781	17.833	1652.558	1590.769
503.795	17.776	1651.957	1589.465
504.810	17.834	1650.134	1588.070
505.825	17.804	1650.404	1587.852
506.839	17.827	1648.767	1586.307
507.854	17.818	1648.027	1585.320
508.868	18.067	1645.726	1585.239
509.883	17.732	1645.533	1581.740
510.898	17.880	1644.466	1581.904
511.912	17.805	1642.635	1579.255
512.927	17.833	1640.132	1576.921
513.941	17.830	1638.664	1575.287
514.956	17.761	1637.249	1573.106
515.971	17.727	1636.192	1571.583
516.985	17.663	1635.970	1570.585
518.000	17.843	1635.053	1571.192
519.014	17.926	1634.244	1570.986
520.029	17.856	1632.714	1568.688
521.043	17.862	1630.993	1566.894
522.058	17.964	1628.901	1565.642
523.073	17.821	1629.938	1565.133
524.087	18.110	1628.680	1566.395
525.102	18.045	1627.598	1564.569
526.116	17.875	1625.904	1561.190
527.131	17.925	1624.343	1559.965
528.146	17.920	1624.094	1559.495
529.160	18.091	1622.415	1559.260
530.175	17.992	1621.925	1557.701
531.189	18.145	1620.076	1557.141
532.204	18.050	1618.764	1554.825
533.219	17.952	1617.226	1552.261
534.233	17.760	1616.548	1549.674
535.248	17.949	1615.763	1550.460
536.262	18.292	1614.730	1552.410
537.277	18.119	1613.735	1549.695
538.292	17.964	1611.869	1546.304
539.306	17.964	1609.877	1544.205
540.321	17.985	1608.449	1542.842
541.335	18.094	1607.253	1542.496
542.350	18.105	1605.904	1541.121
543.365	18.051	1604.638	1539.233
544.379	18.095	1604.162	1538.990
545.394	18.242	1602.160	1538.210
546.408	17.977	1601.156	1534.677
547.423	17.744	1599.585	1530.884
548.438	17.849	1598.193	1530.316
549.452	17.835	1597.723	1529.550
550.467	17.945	1595.917	1528.634
551.481	17.898	1595.196	1527.331
552.496	17.923	1595.020	1527.208
553.511	18.215	1593.035	1527.744
554.525	18.124	1592.337	1526.076
555.540	18.179	1591.839	1525.912
556.554	18.287	1590.085	1525.015
557.569	18.331	1588.165	1523.381
558.583	18.109	1587.135	1520.229
559.598	18.028	1586.410	1518.624
560.613	18.180	1584.887	1518.340
561.627	18.151	1584.042	1517.093
562.642	18.091	1583.087	1515.460
563.656	18.115	1581.650	1514.119
564.671	18.288	1580.573	1514.448
565.686	18.191	1578.734	1511.644
566.700	18.103	1577.692	1509.684
567.715	17.971	1575.874	1506.588
568.729	18.011	1573.988	1504.959
569.744	18.038	1572.525	1503.621
570.759	17.924	1571.493	1501.450
571.773	17.947	1571.441	1501.425
572.788	18.059	1570.179	1501.022
573.802	17.973	1568.991	1498.952
574.817	18.150	1567.082	1498.503
575.832	18.292	1566.627	1499.140
576.846	18.145	1565.594	1496.683
577.861	18.171	1564.141	1495.341
578.875	18.063	1563.585	1493.686
579.890	18.318	1561.933	1494.163
580.905	18.314	1560.530	1492.608
581.919	18.335	1560.481	1492.568
582.934	18.344	1559.467	1491.495
583.948	18.457	1558.106	1491.002
584.963	18.268	1556.497	1487.634
585.978	18.120	1555.496	1485.206
586.992	18.305	1554.766	1485.945
588.007	18.364	1554.389	1485.920
589.021	18.149	1553.190	1482.728
590.036	18.132	1551.016	1480.327
591.051	18.286	1549.929	1480.445
592.065	18.226	1548.562	1478.448
593.080	18.438	1546.513	1478.152
594.094	18.318	1544.787	1475.286
595.109	18.176	1542.613	1471.808
596.123	18.090	1541.373	1469.705
597.138	18.207	1541.323	1470.491
598.153	18.283	1540.091	1469.792
599.167	18.318	1539.140	1469.015
600.182	18.183	1538.310	1466.876
601.196	18.390	1537.164	1467.396
602.211	18.230	1536.472	1465.185
603.226	18.520	1535.002	1466.099
604.240	18.385	1533.364	1463.198
605.255	18.396	1533.007	1462.777
606.269	18.390	1532.181	1461.758
607.284	18.308	1531.130	1459.883
608.299	18.375	1529.216	1458.458
609.313	18.238	1528.067	1456.009
610.328	18.384	1526.528	1455.617
611.342	18.458	1525.370	1454.972
612.357	18.585	1524.269	1454.834
613.372	18.597	1523.506	1454.027
614.386	18.394	1522.762	1451.419
615.401	18.595	1521.436	1451.688
616.415	18.489	1520.928	1450.129
617.430	18.438	1519.930	1448.575
618.445	18.609	1518.729	1448.706
619.459	18.355	1517.438	1445.148
620.474	18.272	1516.302	1443.187
621.488	18.198	1514.745	1440.907
622.503	18.029	1513.524	1438.143
623.518	18.140	1512.846	1438.270
624.532	18.495	1511.698	1439.999
625.547	18.546	1510.836	1439.439
626.561	18.486	1511.136	1439.045
627.576	18.661	1509.196	1438.496
628.591	18.389	1507.174	1434.109
629.605	18.180	1506.344	1431.392
630.620	18.107	1504.778	1429.118
631.634	17.903	1504.014	1426.508
632.649	18.112	1502.812	1426.953
633.663	18.339	1501.388	1427.327
634.678	18.351	1500.797	1426.699
635.693	18.467	1499.121	1425.908
636.707	18.622	1498.008	1425.973
637.722	18.824	1496.734	1426.271
638.736	18.736	1496.311	1424.966
639.751	18.660	1495.309	1423.209
640.766	18.664	1494.044	1421.866
641.780	18.695	1492.418	1420.409
642.795	18.695	1490.969	1418.862
643.809	18.849	1489.585	1418.649
644.824	18.724	1489.659	1417.510
645.839	18.554	1488.663	1414.987
646.853	18.738	1487.565	1415.294
647.868	18.520	1486.114	1411.945
648.882	18.581	1484.854	1411.082
649.897	18.578	1483.411	1409.516
650.912	18.865	1481.308	1409.714
651.926	18.614	1480.914	1407.099
652.941	18.508	1479.340	1404.567
653.955	18.487	1477.761	1402.729
654.970	18.331	1475.803	1399.420
655.985	18.373	1474.443	1398.306
656.999	18.341	1473.901	1397.364
658.014	18.527	1472.932	1397.797
659.028	18.574	1472.121	1397.249
660.043	18.558	1471.953	1396.790
661.058	18.552	1470.023	1394.741
662.072	18.901	1468.681	1396.148
663.087	18.678	1468.121	1393.634
664.101	18.659	1466.983	1392.228
665.116	18.689	1466.450	1391.803
666.131	18.731	1465.598	1391.170
667.145	18.661	1464.123	1389.032
668.160	18.776	1463.413	1389.129
669.174	18.769	1461.903	1387.475
670.189	18.880	1460.282	1386.670
671.204	18.768	1460.108	1385.426
672.218	18.685	1459.187	1383.717
673.233	18.795	1457.741	1383.070
674.247	18.999	1456.655	1383.520
675.262	18.961	1455.710	1382.149
676.276	18.942	1453.872	1380.087
677.291	18.840	1452.974	1378.250
678.306	18.865	1451.940	1377.302
679.320	18.794	1450.154	1374.870
680.335	18.749	1450.686	1374.856
681.349	18.815	1450.400	1374.949
682.364	18.718	1448.853	1372.533
683.379	18.837	1446.902	1371.480
684.393	18.768	1445.590	1369.515
685.408	18.771	1444.821	1368.650
686.422	18.726	1444.148	1367.486
687.437	18.719	1443.991	1367.122
688.452	18.911	1443.046	1367.599
689.466	18.902	1441.122	1365.539
690.481	18.632	1439.741	1361.915
691.495	18.485	1438.437	1359.342
692.510	18.276	1436.633	1355.814
693.525	18.316	1434.920	1354.352
694.539	18.334	1434.623	1354.051
695.554	18.565	1435.066	1356.141
696.568	18.829	1434.210	1357.272
697.583	18.912	1433.510	1357.102
698.598	18.922	1431.772	1355.378
699.612	18.977	1430.932	1354.852
700.627	18.912	1429.667	1352.975
701.641	19.129	1427.700	1352.667
702.656	18.874	1427.398	1350.205
703.671	18.997	1427.230	1350.858
704.685	18.883	1426.746	1349.341
705.700	18.935	1425.074	1348.003
706.714	18.852	1422.689	1344.935
707.729	18.789	1421.976	1343.606
708.744	18.658	1420.858	1341.360
709.758	18.796	1419.144	1340.665
710.773	18.655	1418.877	1339.146
711.787	18.568	1416.667	1336.219
712.802	18.632	1415.207	1335.182
713.816	18.708	1414.984	1335.403
714.831	18.897	1413.508	1335.331
715.846	19.002	1412.260	1334.809
716.860	18.940	1411.967	1333.891
717.875	18.998	1410.798	1333.077
718.889	19.019	1409.468	1331.821
719.904	18.961	1409.098	1330.860
720.919	19.005	1407.559	1329.592
721.933	19.048	1406.641	1328.902
722.948	19.061	1405.821	1328.069
723.962	19.088	1404.956	1327.297
724.977	19.094	1403.829	1326.121
725.992	19.083	1402.716	1324.828
727.006	19.116	1401.247	1323.537
728.021	19.047	1400.281	1321.933
729.035	19.221	1399.095	1321.995
730.050	19.106	1397.683	1319.617
731.065	19.138	1396.249	1318.352
732.079	19.135	1395.210	1317.194
733.094	19.185	1393.967	1316.248
734.108	19.057	1392.445	1313.666
735.123	19.113	1391.819	1313.350
736.138	19.083	1391.274	1312.445
737.152	19.047	1390.070	1310.880
738.167	19.114	1389.167	1310.384
739.181	19.222	1388.348	1310.278
740.196	19.085	1387.948	1308.699
741.211	19.120	1386.764	1307.692
742.225	19.171	1385.469	1306.705
743.240	19.098	1383.737	1304.359
744.254	19.178	1382.112	1303.282
745.269	19.025	1381.616	1301.493
746.284	19.003	1380.914	1300.504
747.298	18.824	1380.914	1298.993
748.313	18.644	1379.334	1295.980
749.327	18.401	1378.156	1292.874
750.342	18.387	1376.599	1291.155
751.356	18.305	1375.237	1289.103
752.371	18.382	1374.736	1289.066
753.386	18.698	1373.703	1290.330
754.400	19.095	1373.016	1292.528
755.415	19.116	1372.034	1291.607
756.429	19.180	1370.983	1290.943
757.444	18.994	1369.844	1288.313
758.459	19.066	1369.370	1288.256
759.473	19.181	1367.905	1287.586
760.488	19.284	1366.848	1287.214
761.502	19.207	1366.013	1285.693
762.517	19.273	1363.914	1284.058
763.532	19.220	1362.163	1281.861
764.546	19.060	1361.511	1279.898
765.561	18.829	1360.691	1277.244
766.575	18.853	1359.505	1276.160
767.590	18.628	1358.313	1273.208
768.605	18.822	1357.194	1273.459
769.619	18.976	1356.340	1273.651
770.634	19.029	1355.912	1273.488
771.648	19.330	1354.477	1274.224
772.663	19.378	1353.918	1273.901
773.678	19.336	1353.073	1272.644
774.692	19.202	1352.220	1270.692
775.707	19.161	1352.536	1270.538
776.721	19.314	1351.171	1270.233
777.736	19.337	1349.678	1268.847
778.751	19.398	1348.866	1268.384
779.765	19.073	1348.572	1265.558
780.780	19.090	1347.491	1264.515
781.794	19.303	1345.861	1264.408
782.809	19.052	1345.238	1261.819
783.824	18.925	1343.921	1259.493
784.838	18.829	1341.795	1256.650
785.853	18.577	1340.656	1253.579
786.867	18.724	1340.439	1254.309
787.882	18.772	1339.696	1253.814
788.897	18.845	1339.651	1254.152
789.911	18.928	1339.326	1254.310
790.926	19.192	1336.767	1253.696
791.940	19.085	1335.574	1251.643
792.955	19.120	1334.583	1250.819
793.969	19.129	1333.510	1249.728
794.984	19.188	1332.523	1249.090
795.999	19.206	1332.129	1248.702
797.013	19.272	1330.073	1247.100
798.028	19.313	1328.889	1246.138
799.042	19.208	1328.746	1245.097
800.057	19.366	1327.587	1245.008
801.072	19.273	1326.281	1242.956
802.086	19.263	1325.022	1241.560
803.101	19.347	1324.302	1241.340
804.115	19.355	1323.348	1240.360
805.130	19.395	1322.098	1239.330
806.145	19.370	1321.064	1238.028
807.159	19.371	1319.556	1236.473
808.174	19.292	1317.966	1234.266
809.188	19.148	1317.126	1232.300
810.203	19.180	1315.116	1230.498
811.218	19.046	1313.279	1227.672
812.232	18.843	1312.175	1225.038
813.247	18.813	1310.971	1223.550
814.261	19.012	1311.000	1224.857
815.276	19.039	1310.501	1224.437
816.291	19.305	1308.902	1224.695
817.305	19.378	1307.913	1224.146
818.320	19.351	1306.806	1222.769
819.334	19.396	1305.548	1221.766
820.349	19.388	1304.266	1220.365
821.364	19.327	1303.620	1219.182
822.378	19.266	1301.837	1216.938
823.393	19.402	1299.877	1215.919
824.407	19.276	1299.218	1214.270
825.422	19.152	1299.808	1213.793
826.437	19.120	1298.418	1212.128
827.451	19.126	1295.576	1209.370
828.466	18.850	1293.465	1205.309
829.480	18.828	1291.776	1203.432
830.495	18.807	1291.282	1202.687
831.509	18.979	1291.010	1203.497
832.524	19.157	1290.081	1203.734
833.539	19.078	1289.287	1202.295
834.553	19.365	1287.824	1202.799
835.568	19.426	1286.093	1201.466
836.582	19.518	1285.593	1201.500
837.597	19.448	1284.354	1199.711
838.612	19.375	1282.949	1197.745
839.626	19.521	1281.787	1197.533
840.641	19.201	1281.283	1194.692
841.655	19.156	1280.941	1193.916
842.670	18.779	1279.257	1189.578
843.685	18.786	1278.060	1188.366
844.699	19.005	1276.895	1188.664
845.714	19.219	1275.511	1188.721
846.728	19.256	1275.037	1188.395
847.743	19.287	1274.533	1187.997
848.758	19.365	1273.067	1187.023
849.772	19.467	1271.360	1186.000
850.787	19.370	1270.322	1184.214
851.801	19.356	1269.205	1182.940
852.816	19.149	1268.374	1180.599
853.831	19.280	1266.343	1179.465
854.845	19.220	1264.801	1177.476
855.860	19.277	1263.000	1176.050
856.874	19.115	1261.576	1173.476
857.889	19.078	1260.424	1172.009
858.904	18.742	1259.400	1168.620
859.918	18.677	1257.657	1166.415
860.933	18.545	1256.031	1163.864
861.947	18.795	1255.151	1164.613
862.962	18.992	1254.580	1165.289
863.977	19.172	1253.272	1165.157
864.991	19.105	1253.083	1164.388
866.006	19.155	1253.058	1164.562
867.020	19.199	1252.167	1163.896
868.035	19.228	1251.385	1163.227
869.049	19.495	1249.823	1163.443
870.064	19.366	1248.563	1161.262
871.079	19.463	1247.722	1160.992
872.093	19.538	1246.848	1160.551
873.108	19.535	1246.390	1159.962
874.122	19.409	1244.499	1157.218
875.137	19.135	1244.013	1154.777
876.152	19.172	1242.993	1153.939
877.166	19.054	1242.198	1152.271
878.181	19.477	1240.513	1153.415
879.195	19.478	1240.160	1152.953
880.210	19.449	1239.429	1151.943
881.225	19.358	1238.726	1150.543
882.239	19.543	1237.855	1150.833
883.254	19.434	1236.589	1148.786
884.268	19.509	1235.913	1148.526
885.283	19.637	1234.405	1147.839
886.298	19.427	1232.980	1144.978
887.312	19.531	1231.924	1144.551
888.327	19.526	1230.720	1143.267
889.341	19.430	1229.689	1141.534
890.356	19.365	1229.205	1140.514
891.371	19.480	1228.689	1140.662
892.385	19.328	1228.010	1138.885
893.400	19.421	1226.459	1137.931
894.414	19.448	1224.756	1136.388
895.429	19.112	1223.126	1132.522
896.444	18.818	1221.189	1128.649
897.458	18.653	1220.248	1126.559
898.473	18.664	1219.695	1125.985
899.487	19.027	1219.329	1127.905
900.502	19.384	1218.356	1129.219
901.517	19.427	1217.134	1128.231
902.531	19.428	1216.380	1127.405
903.546	19.491	1216.160	1127.481
904.560	19.634	1215.801	1127.952
905.575	19.540	1214.980	1126.441
906.589	19.551	1214.180	1125.635
907.604	19.534	1213.530	1124.783
