DTS Sentinel unit serial number:	SN409020Multiplexer serial number:	ORYXHardware model number:	OX4-SRSoftware version number:	ORYX F/W v3.00 Oryx Data Collector v3.7.2.0data status	okinstallation	HaddamTimeLapsedifferential loss correction	single-endedforward channel	channel 3reverse channel	N/Adate	2011/06/22time	11:41:01forward acquisition time	30.00reverse acquisition time	0.00gamma	498.7831k internal	0.1752k external	0.1752temperature offset calibration	1.0074default loss term (dB/km)	0.3790temperature slope calibration	1.3530multiplexer offset coefficient	1.0000multiplexer slope coefficient	1.0000fibre end	0.00T internal ref (°C)	28.09T ext. ref 1 (°C)	23.34T ext. ref 2 (°C)	-0.10length (m)	temperature (°C)	Stokes	anti-Stokes-747.200	800.000	0.032	0.129
-746.185	54.971	0.116	-0.148
-745.171	800.000	-0.109	0.641
-744.156	265.840	0.115	0.267
-743.142	-161.870	0.336	-0.022
-742.127	-149.593	0.076	0.008
-741.112	-200.000	-0.060	0.403
-740.098	-181.668	0.300	0.008
-739.083	-111.220	0.271	0.073
-738.069	-200.000	0.049	-0.442
-737.054	-102.034	-0.564	-0.179
-736.039	800.000	0.032	0.121
-735.025	800.000	-0.085	0.411
-734.010	-130.610	0.271	-0.048
-732.996	-113.416	0.132	-0.034
-731.981	-49.226	0.298	0.188
-730.966	-46.691	-0.205	-0.133
-729.952	-86.033	-0.419	0.171
-728.937	-68.513	0.219	-0.112
-727.923	281.209	-0.161	-0.383
-726.908	36.662	-0.127	-0.149
-725.894	59.804	0.052	0.068
-724.879	-128.002	0.229	0.043
-723.864	-80.873	0.454	-0.199
-722.850	-13.158	0.512	0.441
-721.835	-26.257	0.415	0.323
-720.821	103.582	0.079	-0.123
-719.806	-66.165	0.152	-0.080
-718.791	-200.000	-0.063	-0.507
-717.777	-131.251	0.130	-0.023
-716.762	21.883	-0.369	-0.398
-715.748	-175.645	-0.146	-0.005
-714.733	-162.990	-0.318	-0.020
-713.718	-9.146	-0.391	0.346
-712.704	-200.000	-0.057	-0.354
-711.689	-84.359	-0.425	-0.177
-710.675	-1.850	-0.279	-0.260
-709.660	39.888	-0.189	-0.225
-708.645	-125.088	0.045	0.009
-707.631	-112.124	-0.231	-0.061
-706.616	-44.561	0.264	0.174
-705.602	29.052	0.435	0.489
-704.587	800.000	0.009	0.054
-703.572	-90.157	-0.246	0.095
-702.558	-76.614	0.055	0.026
-701.543	-92.987	0.025	0.009
-700.529	-2.140	-0.363	0.337
-699.514	264.043	-0.010	0.022
-698.499	800.000	0.067	-0.365
-697.485	116.818	0.056	0.092
-696.470	-104.086	0.118	-0.036
-695.456	242.107	-0.054	-0.120
-694.441	83.544	-0.124	0.180
-693.426	178.484	-0.109	-0.211
-692.412	800.000	0.047	0.243
-691.397	-7.833	-0.179	-0.160
-690.383	45.095	0.124	-0.152
-689.368	-34.092	0.255	-0.185
-688.354	-21.914	-0.314	-0.252
-687.339	206.197	0.159	-0.328
-686.324	271.526	0.113	-0.265
-685.310	-200.000	-0.004	0.255
-684.295	87.534	0.280	0.412
-683.281	-58.585	-0.386	0.221
-682.266	-173.964	0.147	-0.006
-681.251	188.215	0.095	-0.188
-680.237	-2.673	-0.322	-0.298
-679.222	130.423	-0.159	-0.270
-678.208	185.227	0.095	-0.188
-677.193	189.689	0.055	0.109
-676.178	-76.739	0.303	-0.140
-675.164	127.805	-0.238	-0.401
-674.149	201.036	0.069	-0.141
-673.135	800.000	0.106	-0.404
-672.120	-200.000	-0.054	0.366
-671.105	329.488	0.187	0.478
-670.091	-125.738	-0.487	0.097
-669.076	-24.078	-0.284	-0.224
-668.062	-26.497	-0.369	0.286
-667.047	651.339	0.162	-0.553
-666.032	-29.389	0.322	0.243
-665.018	97.040	0.240	0.364
-664.003	-200.000	0.027	0.181
-662.989	52.958	0.203	-0.258
-661.974	-200.000	0.020	-0.630
-660.959	-44.641	-0.249	0.164
-659.945	14.645	-0.257	0.266
-658.930	-94.309	-0.398	0.143
-657.916	-147.050	0.051	0.006
-656.901	42.325	-0.076	0.092
-655.886	-36.155	-0.253	0.180
-654.872	497.554	-0.130	-0.398
-653.857	311.458	-0.172	0.428
-652.843	-164.472	-0.164	-0.010
-651.828	-169.465	0.214	0.010
-650.814	5.042	-0.034	-0.033
-649.799	800.000	-0.020	-0.114
-648.784	-67.101	-0.353	0.183
-647.770	61.665	0.088	-0.116
-646.755	-107.076	-0.260	-0.075
-645.741	0.376	0.090	0.085
-644.726	-166.707	0.483	-0.026
-643.711	-174.281	-0.198	-0.007
-642.697	-200.000	0.017	0.222
-641.682	-200.000	0.032	-0.323
-640.668	-140.438	-0.353	-0.048
-639.653	-73.371	-0.224	-0.108
-638.638	-94.225	0.556	-0.200
-637.624	-18.393	0.264	0.218
-636.609	-169.266	0.501	-0.024
-635.595	-25.256	-0.147	0.115
-634.580	-23.673	0.167	0.132
-633.565	-195.992	-0.221	-0.002
-632.551	235.250	0.045	0.099
-631.536	3.282	0.210	-0.202
-630.522	53.469	0.165	0.210
-629.507	-43.031	-0.357	0.238
-628.492	-86.401	-0.472	0.191
-627.478	63.858	0.058	-0.078
-626.463	-47.327	-0.213	0.137
-625.449	547.116	0.129	-0.409
-624.434	-130.555	0.161	0.028
-623.419	390.186	-0.127	0.350
-622.405	-47.126	0.169	0.109
-621.390	-200.000	-0.014	0.122
-620.376	800.000	0.075	-0.378
-619.361	13.455	-0.534	0.547
-618.346	462.766	0.142	-0.421
-617.332	-120.200	0.256	0.057
-616.317	-27.188	-0.244	-0.187
-615.303	-98.907	-0.369	0.123
-614.288	-139.474	-0.186	0.026
-613.273	-117.322	0.387	0.092
-612.259	-160.223	-0.255	-0.018
-611.244	-118.049	-0.285	0.067
-610.230	139.933	0.297	-0.517
-609.215	-108.972	-0.332	0.093
-608.201	441.011	0.165	-0.480
-607.186	800.000	-0.044	-0.220
-606.171	49.732	0.173	-0.216
-605.157	183.617	-0.072	0.140
-604.142	19.706	-0.406	0.431
-603.128	104.436	0.062	0.097
-602.113	491.379	-0.046	0.139
-601.098	85.950	-0.136	0.198
-600.084	-64.090	0.491	0.264
-599.069	255.976	-0.071	-0.161
-598.055	632.108	-0.031	0.105
-597.040	-59.691	-0.192	-0.108
-596.025	-83.137	-0.536	-0.227
-595.011	-37.879	0.061	0.043
-593.996	-153.123	-0.111	0.010
-592.982	-132.584	0.168	-0.028
-591.967	-123.547	-0.590	0.123
-590.952	673.711	0.071	0.246
-589.938	189.629	-0.049	0.098
-588.923	-131.856	-0.190	0.032
-587.909	542.232	0.054	0.169
-586.894	397.451	-0.098	0.271
-585.879	800.000	0.116	0.448
-584.865	-65.128	-0.585	0.310
-583.850	-156.643	-0.455	0.037
-582.836	-50.932	0.084	0.052
-581.821	-43.165	0.320	-0.213
-580.806	-56.704	0.267	0.155
-579.792	163.850	-0.172	0.321
-578.777	-200.000	0.062	-0.412
-577.763	90.197	0.394	-0.582
-576.748	800.000	-0.071	0.322
-575.733	-200.000	-0.004	0.276
-574.719	-16.276	-0.378	-0.316
-573.704	-107.920	-0.265	-0.075
-572.690	-200.000	-0.494	0.001
-571.675	225.211	-0.215	-0.461
-570.661	-200.000	0.044	-0.472
-569.646	-56.168	0.114	-0.067
-568.631	-200.000	-0.025	-0.168
-567.617	-5.525	-0.310	-0.281
-566.602	94.613	-0.155	-0.233
-565.588	-121.148	-0.157	-0.034
-564.573	-200.000	0.005	0.159
-563.558	-93.721	-0.516	-0.187
-562.544	-163.976	0.471	0.028
-561.529	-62.153	-0.121	0.066
-560.515	36.768	0.165	-0.193
-559.500	-50.778	-0.123	0.076
-558.485	103.078	-0.063	-0.097
-557.471	800.000	0.045	-0.188
-556.456	-188.571	0.486	-0.008
-555.442	-104.573	0.287	-0.087
-554.427	-200.000	-0.032	-0.309
-553.412	-66.160	-0.315	-0.165
-552.398	-85.255	-0.367	-0.150
-551.383	103.010	-0.247	0.382
-550.369	-100.798	-0.489	0.158
-549.354	8.188	0.121	-0.120
-548.339	41.066	0.250	0.298
-547.325	-185.838	0.181	-0.003
-546.310	19.524	-0.148	0.157
-545.296	-45.932	0.032	0.021
-544.281	-96.449	-0.330	-0.114
-543.266	-200.000	0.059	-0.516
-542.252	-74.798	0.438	-0.206
-541.237	142.049	0.123	0.216
-540.223	426.420	-0.104	0.297
-539.208	-121.813	0.221	-0.048
-538.193	-157.035	0.405	-0.032
-537.179	76.163	-0.176	-0.245
-536.164	-92.376	0.133	0.049
-535.150	-200.000	0.036	0.520
-534.135	44.221	0.122	0.147
-533.121	-158.608	-0.714	-0.053
-532.106	800.000	-0.068	-0.305
-531.091	40.387	0.214	0.254
-530.077	438.625	-0.158	-0.456
-529.062	235.883	-0.119	0.259
-528.048	-79.622	0.263	0.116
-527.033	81.748	-0.131	0.187
-526.018	-57.628	0.325	0.187
-525.004	800.000	-0.096	-0.354
-523.989	800.000	-0.070	-0.304
-522.975	-200.000	-0.056	0.342
-521.960	800.000	-0.028	-0.130
-520.945	68.407	-0.148	-0.200
-519.931	800.000	0.020	-0.094
-518.916	-200.000	0.025	0.264
-517.902	-200.000	-0.045	0.468
-516.887	16.443	-0.221	0.230
-515.872	-31.235	0.372	-0.275
-514.858	85.739	0.376	-0.544
-513.843	-99.293	0.294	-0.097
-512.829	47.009	-0.197	-0.241
-511.814	800.000	-0.118	-0.456
-510.799	1.816	0.224	-0.212
-509.785	441.686	-0.128	0.370
-508.770	-45.440	-0.165	-0.107
-507.756	-37.990	-0.405	-0.282
-506.741	-0.513	0.165	-0.154
-505.726	54.938	0.123	-0.157
-504.712	97.778	-0.176	0.267
-503.697	534.642	0.081	0.255
-502.683	-200.000	0.011	-0.245
-501.668	800.000	-0.088	0.445
-500.653	45.405	0.344	-0.418
-499.639	-29.913	-0.271	0.202
-498.624	-141.992	-0.666	-0.086
-497.610	34.320	0.182	-0.209
-496.595	-75.025	0.252	-0.118
-495.581	-9.755	-0.117	0.102
-494.566	-76.868	0.191	-0.087
-493.551	53.153	-0.165	-0.208
-492.537	-200.000	0.040	-0.319
-491.522	-62.852	-0.229	-0.124
-490.508	21.006	-0.313	0.334
-489.493	-150.438	0.232	0.023
-488.478	253.160	0.049	0.111
-487.464	714.040	0.059	-0.207
-486.449	-96.546	-0.269	-0.093
-485.435	263.219	-0.131	-0.299
-484.420	-114.735	0.200	-0.050
-483.405	-200.000	-0.031	0.224
-482.391	425.169	-0.098	0.278
-481.376	-103.958	0.324	0.099
-480.362	-50.222	-0.412	0.255
-479.347	34.038	0.268	0.306
-478.332	-37.973	0.144	0.101
-477.318	-200.000	-0.064	0.418
-476.303	-114.990	0.540	0.134
-475.289	56.153	0.200	0.255
-474.274	123.580	0.150	-0.248
-473.259	-137.664	-0.260	-0.038
-472.245	-200.000	-0.017	0.334
-471.230	-200.000	0.015	0.202
-470.216	-32.599	0.394	0.287
-469.201	-92.320	-0.142	0.052
-468.186	-137.048	0.117	0.017
-467.172	287.758	-0.108	0.257
-466.157	-167.763	0.262	-0.013
-465.143	6.406	0.179	0.175
-464.128	182.361	-0.358	0.695
-463.113	-131.604	-0.211	0.036
-462.099	-46.332	0.172	-0.110
-461.084	105.469	0.303	-0.471
-460.070	-51.174	-0.120	-0.073
-459.055	262.633	0.237	0.542
-458.040	-200.000	-0.014	0.097
-457.026	9.005	0.398	-0.394
-456.011	-94.261	0.252	0.090
-454.997	-200.000	0.033	-0.322
-453.982	-200.000	-0.011	-0.095
-452.968	6.451	0.297	-0.289
-451.953	241.923	0.076	-0.168
-450.938	-200.000	-0.027	0.163
-449.924	-200.000	-0.031	-0.514
-448.909	800.000	-0.010	-0.043
-447.895	-113.837	-0.456	-0.115
-446.880	26.313	-0.118	0.130
-445.865	-200.000	0.021	0.168
-444.851	-119.593	-0.132	0.030
-443.836	-200.000	0.027	0.288
-442.822	62.726	0.431	0.566
-441.807	-150.819	0.295	0.029
-440.792	-90.565	0.250	0.094
-439.778	-25.673	0.120	0.093
-438.763	800.000	0.042	-0.200
-437.749	-96.516	-0.276	-0.095
-436.734	800.000	-0.096	-0.539
-435.719	-133.992	-0.209	-0.034
-434.705	-122.992	-0.167	-0.035
-433.690	209.670	0.012	-0.025
-432.676	-81.063	0.437	-0.189
-431.661	115.435	0.088	0.141
-430.646	-200.000	0.025	0.188
-429.632	-15.386	0.151	0.126
-428.617	-135.892	0.192	-0.029
-427.603	-191.669	0.520	-0.007
-426.588	800.000	-0.087	0.483
-425.573	44.113	-0.150	0.180
-424.559	-101.268	-0.141	-0.045
-423.544	328.996	-0.104	-0.264
-422.530	103.738	-0.247	0.380
-421.515	-7.176	0.030	-0.026
-420.500	-17.725	-0.107	-0.088
-419.486	-134.459	0.222	0.035
-418.471	273.276	0.060	0.140
-417.457	-94.791	0.355	-0.125
-416.442	0.016	-0.025	-0.024
-415.428	68.355	0.261	0.351
-414.413	-52.883	0.639	-0.384
-413.398	-147.053	-0.134	-0.015
-412.384	800.000	0.025	0.115
-411.369	41.591	-0.109	-0.130
-410.355	104.494	0.240	0.371
-409.340	-114.803	-0.272	-0.068
-408.325	91.653	0.134	-0.197
-407.311	-170.240	0.398	0.018
-406.296	-104.102	-0.479	-0.145
-405.282	-154.152	0.244	0.021
-404.267	-52.874	-0.471	-0.284
-403.252	15.023	-0.227	0.233
-402.238	494.083	0.059	-0.179
-401.223	-30.579	0.233	0.173
-400.209	-109.225	-0.272	0.075
-399.194	-95.016	-0.191	-0.067
-398.179	-200.000	0.006	-0.269
-397.165	-83.098	-0.136	-0.057
-396.150	23.634	0.315	0.340
-395.136	-80.945	-0.414	0.179
-394.121	-9.787	-0.114	-0.099
-393.106	-200.000	-0.038	0.380
-392.092	-16.917	-0.330	0.273
-391.077	8.124	-0.372	0.366
-390.063	42.001	-0.120	0.142
-389.048	-81.036	-0.252	-0.109
-388.033	-57.859	0.354	-0.202
-387.019	-131.976	0.192	-0.032
-386.004	137.195	0.252	0.432
-384.990	-0.575	0.275	-0.255
-383.975	69.986	0.154	0.208
-382.960	-115.663	0.070	0.017
-381.946	-73.606	0.405	0.192
-380.931	-16.174	-0.138	-0.115
-379.917	-200.000	-0.014	-0.660
-378.902	800.000	0.094	-0.374
-377.888	-5.380	-0.236	-0.212
-376.873	-121.233	-0.288	0.062
-375.858	-144.093	-0.271	0.033
-374.844	-107.619	0.214	0.061
-373.829	777.929	-0.078	-0.281
-372.815	185.253	0.261	0.509
-371.800	-23.829	-0.244	-0.191
-370.785	95.314	-0.347	-0.518
-369.771	800.000	0.061	-0.337
-368.756	97.815	0.022	0.034
-367.742	122.606	0.010	0.017
-366.727	144.549	0.212	-0.372
-365.712	800.000	0.030	-0.123
-364.698	800.000	-0.050	0.289
-363.683	-200.000	0.055	0.366
-362.669	800.000	0.040	-0.191
-361.654	-114.280	-0.363	-0.091
-360.639	122.439	0.180	0.294
-359.625	-25.466	0.289	-0.223
-358.610	-68.393	-0.287	0.145
-357.596	-115.118	-0.408	-0.100
-356.581	-96.966	0.405	-0.138
-355.566	-55.911	0.232	-0.135
-354.552	-54.011	0.391	-0.232
-353.537	-52.183	-0.249	-0.150
-352.523	-193.090	0.233	-0.003
-351.508	-120.953	-0.222	0.048
-350.493	486.926	-0.061	-0.183
-349.479	169.341	-0.295	0.552
-348.464	-19.806	-0.204	-0.165
-347.450	-200.000	-0.009	-0.383
-346.435	154.668	-0.209	-0.376
-345.420	-113.658	-0.199	-0.050
-344.406	29.157	0.311	0.345
-343.391	-122.746	-0.695	0.146
-342.377	-24.225	0.176	0.137
-341.362	800.000	0.112	-0.507
-340.348	-71.968	-0.288	0.139
-339.333	-200.000	-0.057	-0.613
-338.318	42.757	-0.219	-0.261
-337.304	-192.033	-0.217	-0.003
-336.289	-91.775	0.216	-0.080
-335.275	-90.646	0.034	0.013
-334.260	-106.096	-0.220	0.064
-333.245	-200.000	0.016	0.117
-332.231	-68.032	-0.129	-0.065
-331.216	-29.881	-0.027	-0.020
-330.202	800.000	0.018	-0.079
-329.187	-200.000	-0.025	0.432
-328.172	-76.216	0.502	0.230
-327.158	-108.002	-0.221	-0.062
-326.143	444.385	0.145	-0.419
-325.129	-200.000	0.028	-0.377
-324.114	-200.000	0.006	-0.123
-323.099	-131.832	0.357	-0.060
-322.085	300.870	0.053	0.129
-321.070	-122.515	0.654	-0.138
-320.056	-25.432	-0.544	-0.419
-319.041	-105.412	0.553	0.163
-318.026	-61.625	0.382	-0.209
-317.012	-102.347	0.212	-0.066
-315.997	-147.797	0.609	0.066
-314.983	-106.267	-0.333	0.097
-313.968	-131.258	-0.325	-0.056
-312.953	-70.015	0.286	0.141
-311.939	140.321	-0.113	0.195
-310.924	-58.236	0.057	-0.032
-309.910	-105.444	-0.172	0.051
-308.895	217.202	0.274	0.572
-307.880	-200.000	0.028	0.543
-306.866	-17.681	0.200	0.164
-305.851	-200.000	0.008	-0.419
-304.837	56.318	-0.128	-0.163
-303.822	-83.573	0.428	-0.178
-302.807	-166.249	0.244	-0.013
-301.793	800.000	-0.046	0.219
-300.778	-200.000	-0.015	-0.427
-299.764	17.199	0.256	-0.265
-298.749	-69.477	0.125	0.062
-297.735	-106.373	-0.197	-0.057
-296.720	-96.173	-0.223	-0.077
-295.705	800.000	0.022	-0.089
-294.691	-200.000	-0.002	-0.096
-293.676	515.565	0.081	0.249
-292.662	-200.000	-0.021	0.584
-291.647	-200.000	0.023	-0.300
-290.632	50.715	-0.079	-0.097
-289.618	-200.000	0.002	0.069
-288.603	800.000	-0.008	0.032
-287.589	319.871	0.113	-0.281
-286.574	83.080	-0.168	0.238
-285.559	-117.662	0.104	-0.024
-284.545	-83.748	-0.223	-0.092
-283.530	-54.680	-0.235	0.138
-282.516	77.961	-0.053	0.073
-281.501	-60.307	0.197	-0.109
-280.486	172.981	0.262	0.493
-279.472	627.211	-0.103	0.342
-278.457	-93.779	-0.348	0.124
-277.443	-85.005	0.491	-0.200
-276.428	-159.858	-0.241	-0.017
-275.413	505.385	-0.031	0.095
-274.399	-102.910	-0.307	-0.094
-273.384	-158.577	-0.515	0.038
-272.370	-142.497	0.369	0.047
-271.355	43.991	0.144	-0.171
-270.340	800.000	-0.081	0.377
-269.326	-74.549	0.085	0.040
-268.311	-120.652	0.410	-0.090
-267.297	-116.155	-0.324	0.078
-266.282	-97.815	-0.043	-0.014
-265.267	451.067	-0.116	0.336
-264.253	800.000	0.078	-0.314
-263.238	150.620	0.120	0.213
-262.224	196.234	-0.160	0.319
-261.209	800.000	0.093	-0.367
-260.195	-30.151	-0.204	-0.151
-259.180	-110.215	-0.042	-0.011
-258.165	148.519	0.101	0.179
-257.151	-200.000	0.034	0.251
-256.136	-200.000	-0.028	0.211
-255.122	101.961	0.217	0.330
-254.107	-110.281	0.615	0.165
-253.092	-200.000	-0.002	-0.169
-252.078	-18.361	0.103	-0.084
-251.063	-200.000	0.013	-0.202
-250.049	-200.000	-0.026	-0.223
-249.034	-61.342	-0.342	-0.187
-248.019	186.999	0.093	0.180
-247.005	-92.015	-0.208	0.076
-245.990	106.712	0.295	0.457
-244.976	-21.622	0.159	0.126
-243.961	-135.100	0.491	0.076
-242.946	800.000	0.129	0.533
-241.932	50.513	0.213	0.263
-240.917	-200.000	0.025	0.166
-239.903	-200.000	0.035	-0.268
-238.888	-57.471	0.135	-0.077
-237.873	-200.000	0.021	0.187
-236.859	-128.594	-0.178	0.032
-235.844	22.391	-0.122	0.130
-234.830	241.907	0.185	0.404
-233.815	-72.604	-0.298	0.143
-232.800	15.752	0.263	-0.269
-231.786	-53.339	-0.237	0.141
-230.771	-15.990	0.092	0.076
-229.757	61.608	0.197	-0.255
-228.742	800.000	-0.142	-0.562
-227.727	-9.533	-0.212	0.184
-226.713	208.985	0.161	0.329
-225.698	-106.418	0.253	-0.073
-224.684	74.937	0.190	-0.261
-223.669	410.544	-0.111	0.307
-222.655	-142.176	-0.497	0.063
-221.640	-86.522	0.090	0.036
-220.625	-149.751	-0.219	-0.022
-219.611	-200.000	0.021	-0.172
-218.596	246.699	-0.104	-0.229
-217.582	103.484	-0.132	-0.201
-216.567	657.227	0.051	0.171
-215.552	-15.569	0.338	0.280
-214.538	-132.266	0.332	0.055
-213.523	-76.875	0.280	-0.127
-212.509	38.942	-0.076	-0.088
-211.494	18.479	-0.391	0.406
-210.479	32.034	-0.210	0.236
-209.465	150.919	0.159	-0.282
-208.450	-200.000	0.018	0.337
-207.436	54.984	-0.290	-0.365
-206.421	-125.869	0.347	0.067
-205.406	-107.291	0.624	-0.177
-204.392	-142.277	0.225	0.029
-203.377	-93.452	-0.435	0.156
-202.363	-30.784	-0.157	0.115
-201.348	-97.538	-0.183	-0.061
-200.333	-200.000	-0.028	0.214
-199.319	-91.972	0.493	0.180
-198.304	-200.000	-0.033	-0.407
-197.290	-37.405	-0.469	0.324
-196.275	-145.279	-0.225	0.026
-195.260	12.545	-0.387	-0.388
-194.246	-32.107	0.378	-0.274
-193.231	81.295	-0.219	0.308
-192.217	-112.896	0.145	-0.037
-191.202	-142.474	-0.199	-0.025
-190.187	-61.971	0.253	-0.137
-189.173	-142.788	-0.105	0.013
-188.158	-45.574	-0.148	-0.095
-187.144	-40.023	-0.362	-0.245
-186.129	-200.000	-0.047	0.304
-185.114	-78.424	0.224	-0.099
-184.100	-24.608	0.248	0.192
-183.085	-67.275	0.266	-0.136
-182.071	-67.313	-0.081	-0.041
-181.056	-140.746	-0.210	-0.028
-180.042	-12.265	-0.246	-0.209
-179.027	75.721	0.115	-0.158
-178.012	-150.756	-0.268	0.026
-176.998	-68.876	0.454	-0.227
-175.983	-148.981	-0.174	0.018
-174.969	161.081	-0.407	-0.741
-173.954	361.823	0.097	-0.253
-172.939	80.711	0.144	-0.202
-171.925	-200.000	0.017	0.119
-170.910	-117.612	0.347	-0.081
-169.896	79.043	-0.237	0.330
-168.881	800.000	-0.064	0.276
-167.866	7.643	0.165	-0.160
-166.852	693.228	-0.077	-0.262
-165.837	415.606	0.052	-0.145
-164.823	-200.000	0.031	0.346
-163.808	-112.017	-0.254	0.066
-162.793	198.174	0.054	0.108
-161.779	-83.357	-0.286	0.118
-160.764	-49.982	0.170	-0.104
-159.750	800.000	0.051	0.185
-158.735	800.000	0.048	-0.238
-157.720	800.000	-0.019	0.078
-156.706	78.453	0.026	0.036
-155.691	-85.659	-0.402	-0.161
-154.677	11.970	-0.016	-0.016
-153.662	64.626	-0.039	0.052
-152.647	94.962	-0.187	-0.276
-151.633	-87.798	0.606	0.236
-150.618	800.000	0.113	-0.429
-149.604	-116.810	0.169	0.040
-148.589	-122.273	-0.640	-0.135
-147.574	-41.467	0.186	-0.124
-146.560	172.698	0.120	-0.224
-145.545	-200.000	-0.036	0.354
-144.531	-200.000	0.015	0.339
-143.516	-61.471	0.595	0.323
-142.502	-33.616	0.736	0.526
-141.487	70.443	-0.185	0.248
-140.472	800.000	0.025	-0.098
-139.458	-124.319	0.451	-0.090
-138.443	167.298	-0.181	0.335
-137.429	126.404	-0.208	-0.342
-136.414	237.028	0.166	0.359
-135.399	-14.874	0.036	-0.030
-134.385	646.634	-0.076	-0.253
-133.370	254.561	0.076	0.169
-132.356	-157.752	-0.244	0.019
-131.341	-1.738	0.156	0.142
-130.326	-200.000	0.071	0.476
-129.312	-99.959	-0.186	0.060
-128.297	130.672	-0.193	0.321
-127.283	800.000	-0.044	0.169
-126.268	-20.753	-0.209	-0.166
-125.253	335.603	-0.156	0.395
-124.239	310.525	-0.293	0.713
-123.224	-200.000	-0.011	-0.179
-122.210	-68.950	0.074	-0.037
-121.195	-46.464	-0.039	-0.025
-120.180	109.113	-0.106	0.164
-119.166	-41.214	-0.021	-0.014
-118.151	-31.148	-0.223	0.163
-117.137	800.000	-0.042	-0.197
-116.122	68.316	0.206	-0.274
-115.107	112.168	-0.075	0.118
-114.093	341.898	0.182	-0.463
-113.078	-48.066	-0.161	0.101
-112.064	-64.713	-0.230	0.120
-111.049	73.801	-0.240	-0.327
-110.034	81.381	0.280	-0.393
-109.020	73.711	0.155	0.211
-108.005	297.433	-0.157	-0.375
-106.991	-17.821	-0.159	-0.129
-105.976	-200.000	0.035	-0.225
-104.962	121.576	0.301	0.486
-103.947	507.319	-0.163	-0.493
-102.932	557.352	-0.111	-0.348
-101.918	-27.180	-0.356	-0.268
-100.903	-200.000	0.070	-0.439
-99.889	122.981	0.271	-0.440
-98.874	-78.030	-0.315	-0.140
-97.859	-200.000	0.003	0.175
-96.845	-51.924	0.215	-0.129
-95.830	-172.682	-0.040	0.002
-94.816	800.000	-0.093	-0.374
-93.801	126.283	0.218	0.358
-92.786	-65.060	-0.155	-0.081
-91.772	-80.663	-0.432	0.185
-90.757	-143.806	-0.485	-0.059
-89.743	-200.000	0.010	-0.088
-88.728	-115.580	0.377	-0.091
-87.713	-158.669	-0.089	0.007
-86.699	353.720	0.155	0.400
-85.684	183.983	0.146	-0.280
-84.670	0.326	-0.192	0.177
-83.655	330.485	0.078	-0.196
-82.640	-132.607	-0.560	0.092
-81.626	196.403	0.091	0.180
-80.611	-200.000	0.030	0.189
-79.597	-200.000	-0.026	0.500
-78.582	800.000	0.059	-0.243
-77.567	136.324	-0.107	-0.182
-76.553	-152.960	0.274	0.025
-75.538	-188.280	0.290	-0.005
-74.524	-118.601	0.273	-0.062
-73.509	5.052	-0.194	-0.185
-72.494	353.901	-0.175	0.452
-71.480	-200.000	0.057	0.531
-70.465	-86.331	0.275	0.109
-69.451	313.738	0.070	-0.171
-68.436	-200.000	-0.023	-0.258
-67.422	-53.100	-0.212	0.125
-66.407	-200.000	-0.009	-0.244
-65.392	-91.289	0.306	0.113
-64.378	-98.519	0.409	0.134
-63.363	-200.000	-0.030	0.546
-62.349	17.587	-0.241	0.248
-61.334	5.954	-2.103	-2.011
-60.319	-15.200	1.850	1.528
-59.305	250.341	-3.553	-7.825
-58.290	48.884	3.937	4.778
-57.276	484.464	3.461	10.233
-56.261	-200.000	21.601	316.321
-55.246	369.227	1284.395	3374.329
-54.232	52.188	2862.014	3528.026
-53.217	59.467	2696.883	3437.753
-52.203	33.793	2426.579	2728.450
-51.188	33.712	2087.806	2346.442
-50.173	30.239	1970.487	2173.670
-49.159	28.964	1959.703	2146.748
-48.144	28.492	1955.842	2136.900
-47.130	28.362	1953.978	2133.263
-46.115	28.410	1952.479	2132.097
-45.100	28.373	1951.033	2130.008
-44.086	28.386	1949.454	2128.351
-43.071	28.348	1947.470	2125.652
-42.057	28.371	1945.906	2124.130
-41.042	28.330	1944.559	2122.099
-40.027	28.200	1943.944	2119.825
-39.013	28.213	1941.517	2117.244
-37.998	28.295	1940.802	2117.340
-36.984	28.211	1939.900	2115.289
-35.969	28.259	1938.250	2113.962
-34.954	28.261	1936.214	2111.687
-33.940	28.252	1934.685	2109.835
-32.925	28.273	1934.088	2109.336
-31.911	28.132	1933.122	2106.565
-30.896	28.145	1931.548	2104.922
-29.881	28.246	1930.247	2104.593
-28.867	28.209	1928.541	2102.212
-27.852	28.198	1927.705	2101.089
-26.838	28.133	1926.154	2098.577
-25.823	28.030	1925.423	2096.501
-24.809	28.147	1922.524	2094.613
-23.794	28.058	1921.993	2092.931
-22.779	28.081	1919.871	2090.792
-21.765	28.107	1919.282	2090.371
-20.750	28.079	1917.659	2088.195
-19.736	28.117	1917.293	2088.150
-18.721	27.987	1916.518	2085.740
-17.706	27.944	1915.369	2083.905
-16.692	28.143	1913.039	2083.571
-15.677	28.113	1912.349	2082.397
-14.663	28.019	1910.813	2079.566
-13.648	27.895	1909.372	2076.493
-12.633	27.910	1908.823	2075.988
-11.619	28.029	1907.005	2075.282
-10.604	27.984	1905.475	2073.023
-9.590	27.988	1904.415	2071.829
-8.575	27.896	1904.038	2070.292
-7.560	28.000	1901.832	2068.993
-6.546	28.087	1900.781	2068.757
-5.531	27.967	1898.853	2065.219
-4.517	27.921	1898.745	2064.491
-3.502	28.055	1897.646	2064.737
-2.487	27.954	1897.075	2062.888
-1.473	28.035	1892.587	2058.842
-0.458	27.668	1873.865	2034.287
0.556	23.990	2021.309	2137.151
1.571	22.647	2229.602	2339.191
2.586	23.453	2271.074	2393.365
3.600	23.588	2272.252	2396.157
4.615	23.591	2272.323	2395.976
5.629	23.678	2270.869	2395.333
6.644	23.679	2269.299	2393.404
7.659	23.785	2266.494	2391.604
8.673	23.704	2264.086	2387.672
9.688	23.052	2272.059	2386.957
10.702	21.848	2352.232	2453.956
11.717	20.581	2419.381	2505.380
12.731	11.498	2395.274	2349.308
13.746	2.166	2368.189	2188.538
14.761	0.503	2363.954	2160.437
15.775	0.296	2361.959	2155.378
16.790	0.211	2359.969	2152.084
17.804	0.103	2358.571	2149.012
18.819	0.178	2357.892	2149.207
19.834	0.268	2356.046	2148.560
20.848	0.245	2354.783	2146.822
21.863	0.232	2353.065	2144.808
22.877	0.274	2350.937	2143.212
23.892	0.324	2347.951	2140.948
24.907	0.169	2346.452	2137.108
25.921	0.186	2344.895	2135.675
26.936	0.247	2342.686	2134.278
27.950	0.364	2339.899	2133.156
28.965	0.306	2337.214	2129.622
29.980	0.246	2335.990	2127.405
30.994	0.277	2333.835	2125.622
32.009	5.276	2350.199	2211.538
33.023	16.608	2384.710	2406.568
34.038	21.798	2394.332	2490.292
35.053	22.450	2391.914	2496.781
36.067	22.514	2389.689	2495.066
37.082	22.446	2387.576	2491.598
38.096	22.432	2387.158	2490.662
39.111	22.535	2385.514	2490.112
40.126	22.582	2383.493	2488.379
41.140	22.692	2381.309	2487.356
42.155	22.592	2380.184	2484.464
43.169	22.464	2378.224	2480.301
44.184	22.629	2374.871	2478.854
45.199	22.581	2373.016	2475.931
46.213	22.577	2372.184	2474.716
47.228	22.452	2371.990	2472.456
48.242	22.616	2369.224	2471.579
49.257	22.673	2368.142	2470.964
50.271	22.754	2364.834	2468.350
51.286	22.623	2362.550	2463.840
52.301	22.520	2361.934	2461.454
53.315	22.641	2360.770	2461.644
54.330	23.426	2361.504	2473.121
55.344	23.914	2359.959	2478.052
56.359	23.933	2356.100	2473.965
57.374	23.759	2354.624	2469.683
58.388	23.942	2351.668	2468.850
59.403	23.992	2348.751	2466.190
60.417	23.949	2346.621	2463.060
61.432	23.990	2345.854	2462.520
62.447	24.061	2343.387	2460.627
63.461	24.135	2342.119	2460.025
64.476	24.230	2338.982	2457.762
65.490	24.243	2338.527	2457.158
66.505	24.244	2337.375	2455.673
67.520	23.466	2333.542	2440.587
68.534	22.549	2329.060	2422.943
69.549	22.632	2324.619	2419.176
70.563	22.573	2323.096	2416.487
71.578	22.590	2321.034	2414.297
72.593	22.446	2319.905	2410.853
73.607	22.570	2319.420	2411.757
74.622	22.756	2317.382	2411.914
75.636	22.572	2312.945	2404.480
76.651	22.447	2311.024	2400.487
77.666	22.558	2309.348	2399.976
78.680	22.510	2307.720	2397.331
79.695	22.609	2306.542	2397.178
80.709	22.589	2305.095	2395.120
81.724	22.742	2302.878	2394.615
82.739	22.630	2300.462	2390.282
83.753	22.452	2298.292	2385.322
84.768	22.456	2296.271	2383.001
85.782	22.397	2294.940	2380.525
86.797	22.480	2293.069	2379.433
87.812	22.450	2291.547	2377.161
88.826	22.401	2289.641	2374.230
89.841	22.467	2287.133	2372.235
90.855	22.541	2284.920	2370.664
91.870	22.480	2284.260	2368.863
92.884	22.502	2282.330	2366.876
93.899	22.566	2280.711	2365.787
94.914	22.716	2282.073	2368.937
95.928	23.263	2283.448	2377.468
96.943	23.353	2280.887	2375.724
97.957	22.774	2276.696	2363.281
98.972	22.313	2273.083	2353.061
99.987	22.324	2269.771	2349.495
101.001	22.329	2267.262	2346.675
102.016	22.384	2265.785	2345.616
103.030	22.459	2265.141	2345.659
104.045	22.692	2262.364	2345.621
105.060	22.621	2260.198	2342.152
106.074	22.606	2257.866	2339.258
107.089	22.688	2255.847	2337.974
108.103	22.766	2255.175	2338.039
109.118	22.619	2253.942	2334.524
110.133	22.718	2252.697	2334.274
111.147	22.735	2250.268	2331.705
112.162	22.846	2248.477	2331.031
113.176	22.608	2246.611	2325.671
114.191	22.690	2244.944	2324.746
115.206	22.726	2242.784	2322.706
116.220	22.462	2240.661	2316.740
117.235	22.504	2237.799	2314.064
118.249	22.590	2236.137	2313.202
119.264	22.507	2235.720	2311.400
120.279	22.787	2232.626	2311.611
121.293	22.608	2231.329	2307.637
122.308	22.493	2230.454	2304.939
123.322	22.718	2229.212	2306.333
124.337	22.825	2229.394	2307.651
125.352	23.584	2230.191	2318.180
126.366	23.721	2228.363	2317.797
127.381	22.844	2222.849	2300.300
128.395	22.487	2219.195	2291.584
129.410	22.717	2218.248	2293.338
130.424	22.692	2216.243	2290.656
131.439	22.513	2214.791	2286.553
132.454	22.513	2212.333	2283.735
133.468	22.582	2209.450	2281.392
134.483	22.462	2208.769	2278.849
135.497	22.628	2207.013	2278.924
136.512	22.666	2204.557	2276.612
137.527	22.648	2202.889	2274.381
138.541	22.680	2201.111	2272.689
139.556	22.429	2200.842	2268.887
140.570	22.382	2199.532	2266.650
141.585	22.422	2197.264	2264.568
142.600	22.588	2195.888	2265.016
143.614	22.564	2194.358	2262.857
144.629	22.459	2193.205	2260.048
145.643	22.566	2192.096	2260.008
146.658	22.678	2188.942	2257.925
147.673	22.536	2187.821	2254.673
148.687	22.602	2186.596	2253.989
149.702	22.564	2184.416	2250.991
150.716	22.472	2183.338	2248.422
151.731	22.347	2181.820	2244.986
152.746	22.512	2180.762	2245.742
153.760	22.549	2181.475	2246.692
154.775	23.204	2181.914	2255.264
155.789	23.390	2179.620	2255.008
156.804	22.622	2174.205	2239.331
157.819	22.231	2170.476	2230.234
158.833	22.289	2168.812	2229.003
159.848	22.392	2167.221	2228.412
160.862	22.529	2164.842	2227.432
161.877	22.621	2162.975	2226.420
162.892	22.460	2162.464	2223.580
163.906	22.502	2161.723	2223.083
164.921	22.568	2159.040	2220.889
165.935	22.586	2158.078	2219.873
166.950	22.750	2155.699	2219.233
167.964	22.738	2153.862	2216.918
168.979	22.621	2152.213	2213.484
169.994	22.653	2150.582	2211.941
171.008	22.660	2148.474	2209.598
172.023	22.660	2147.144	2207.967
173.037	22.607	2146.290	2206.159
174.052	22.584	2144.544	2203.810
175.067	22.655	2142.440	2202.274
176.081	22.603	2141.482	2200.370
177.096	22.527	2140.179	2197.822
178.110	22.376	2138.613	2194.056
179.125	22.290	2137.795	2191.872
180.140	22.461	2136.206	2192.127
181.154	22.421	2135.009	2190.127
182.169	22.503	2132.572	2188.395
183.183	22.437	2132.666	2187.401
184.198	23.287	2134.211	2199.339
185.213	23.411	2132.180	2198.530
186.227	22.827	2127.376	2186.048
187.242	22.490	2125.773	2179.952
188.256	22.421	2124.323	2177.338
189.271	22.462	2122.374	2175.600
190.286	22.426	2121.481	2173.976
191.300	22.614	2118.266	2172.742
192.315	22.445	2116.090	2168.166
193.329	22.496	2114.520	2166.925
194.344	22.576	2113.915	2167.030
195.359	22.595	2112.533	2165.599
196.373	22.586	2110.020	2162.652
197.388	22.445	2107.515	2158.085
198.402	22.420	2106.119	2156.083
199.417	22.355	2103.703	2152.555
200.432	22.593	2101.277	2152.742
201.446	22.673	2100.795	2152.970
202.461	22.474	2099.726	2149.173
203.475	22.430	2098.723	2147.352
204.490	22.423	2096.780	2145.025
205.504	22.368	2094.288	2141.545
206.519	22.450	2090.715	2138.631
207.534	22.365	2089.180	2135.766
208.548	22.341	2088.882	2134.916
209.563	22.466	2087.965	2135.245
210.577	22.338	2085.510	2130.922
211.592	22.319	2085.150	2130.073
212.607	22.651	2085.778	2134.496
213.621	23.176	2086.839	2141.718
214.636	23.212	2084.417	2139.406
215.650	22.520	2080.582	2126.823
216.665	22.310	2077.488	2120.863
217.680	22.427	2076.598	2121.117
218.694	22.380	2075.546	2119.217
219.709	22.602	2073.286	2119.340
220.723	22.644	2072.120	2118.409
221.738	22.660	2070.364	2116.550
222.753	22.515	2068.585	2112.732
223.767	22.489	2066.961	2110.510
224.782	22.323	2064.194	2105.433
225.796	22.399	2063.586	2105.468
226.811	22.536	2062.299	2105.553
227.826	22.505	2060.458	2103.052
228.840	22.602	2059.337	2102.817
229.855	22.615	2057.446	2100.794
230.869	22.598	2056.842	2099.712
231.884	22.542	2054.663	2096.567
232.899	22.444	2053.181	2093.637
233.913	22.528	2052.226	2093.420
234.928	22.484	2050.323	2090.704
235.942	22.567	2049.358	2090.461
236.957	22.656	2047.754	2089.625
237.972	22.609	2046.604	2087.643
238.986	22.717	2044.688	2086.725
240.001	22.652	2043.326	2084.309
241.015	22.647	2041.560	2082.204
242.030	22.635	2042.113	2082.373
243.045	23.342	2042.731	2091.151
244.059	23.537	2040.186	2090.598
245.074	22.665	2036.035	2075.789
246.088	22.537	2032.630	2070.553
247.103	22.530	2031.194	2068.759
248.117	22.540	2029.366	2066.767
249.132	22.598	2028.144	2065.963
250.147	22.493	2026.414	2062.721
251.161	22.524	2024.324	2060.703
252.176	22.590	2024.218	2061.127
253.190	22.618	2022.793	2059.756
254.205	22.607	2020.352	2056.898
255.220	22.791	2018.522	2056.941
256.234	22.774	2018.481	2056.452
257.249	22.799	2016.574	2054.562
258.263	22.724	2015.912	2052.763
259.278	22.677	2014.608	2050.641
260.293	22.728	2012.489	2048.831
261.307	22.627	2009.903	2044.773
262.322	22.429	2008.059	2040.350
263.336	22.418	2006.804	2038.707
264.351	22.369	2006.046	2037.116
265.366	22.615	2004.259	2037.921
266.380	22.614	2003.127	2036.514
267.395	22.325	2001.118	2030.869
268.409	22.335	1999.060	2028.660
269.424	22.289	1998.856	2027.670
270.439	22.450	1997.229	2027.649
271.453	22.725	1996.809	2030.163
272.468	23.468	1996.667	2038.361
273.482	23.424	1995.218	2036.126
274.497	22.814	1990.234	2023.775
275.512	22.617	1986.394	2017.357
276.526	22.545	1985.817	2015.702
277.541	22.658	1983.419	2014.331
278.555	22.487	1983.077	2011.778
279.570	22.426	1980.384	2008.096
280.585	22.522	1979.320	2007.882
281.599	22.628	1977.912	2007.424
282.614	22.612	1975.859	2004.925
283.628	22.495	1975.400	2002.880
284.643	22.491	1974.938	2002.129
285.657	22.660	1973.568	2002.422
286.672	22.606	1971.338	1999.310
287.687	22.567	1969.668	1996.923
288.701	22.425	1968.638	1994.033
289.716	22.540	1966.612	1993.051
290.730	22.438	1965.713	1990.741
291.745	22.415	1962.586	1987.071
292.760	22.492	1962.240	1987.355
293.774	22.590	1961.840	1987.830
294.789	22.584	1960.715	1986.380
295.803	22.486	1958.922	1983.212
296.818	22.592	1957.549	1982.785
297.833	22.610	1955.911	1981.096
298.847	22.593	1955.940	1980.689
299.862	22.667	1954.365	1979.695
300.876	22.721	1952.691	1978.374
301.891	23.412	1952.981	1986.219
302.906	23.603	1952.545	1987.683
303.920	23.089	1949.063	1978.122
304.935	22.598	1946.067	1969.337
305.949	22.650	1942.792	1966.364
306.964	22.633	1941.749	1964.886
307.979	22.770	1940.106	1964.527
308.993	22.576	1938.291	1960.282
310.008	22.499	1937.141	1958.028
311.022	22.630	1936.085	1958.178
312.037	22.611	1934.281	1955.913
313.052	22.666	1932.560	1954.550
314.066	22.543	1930.949	1951.320
315.081	22.561	1929.932	1950.256
316.095	22.549	1927.859	1947.796
317.110	22.546	1926.588	1946.248
318.125	22.644	1925.812	1946.312
319.139	22.656	1924.644	1945.030
320.154	22.545	1923.267	1942.187
321.168	22.728	1922.204	1942.905
322.183	22.691	1919.824	1939.854
323.197	22.488	1919.112	1936.656
324.212	22.380	1917.038	1933.137
325.227	22.554	1914.962	1932.735
326.241	22.516	1913.115	1930.216
327.256	22.551	1911.512	1928.759
328.270	22.521	1911.273	1927.959
329.285	22.594	1910.428	1927.674
330.300	22.734	1912.138	1930.709
331.314	23.349	1912.050	1937.147
332.329	23.318	1908.978	1933.472
333.343	22.698	1905.022	1922.439
334.358	22.531	1903.003	1918.339
335.373	22.558	1901.295	1916.693
336.387	22.482	1899.396	1913.711
337.402	22.501	1898.165	1912.455
338.416	22.506	1896.655	1910.760
339.431	22.496	1894.463	1908.207
340.446	22.624	1893.298	1908.204
341.460	22.719	1892.332	1908.031
342.475	22.768	1890.398	1906.383
343.489	22.796	1888.680	1904.724
344.504	22.800	1888.405	1904.268
345.519	22.790	1886.847	1902.356
346.533	22.819	1884.712	1900.293
347.548	22.842	1883.532	1899.128
348.562	22.951	1882.050	1898.585
349.577	22.810	1881.647	1896.422
350.592	22.663	1880.163	1893.113
351.606	22.772	1878.335	1892.222
352.621	22.684	1876.460	1889.161
353.635	22.428	1874.881	1884.589
354.650	22.152	1874.039	1880.550
355.665	22.351	1872.470	1880.887
356.679	22.524	1870.726	1880.771
357.694	22.495	1869.369	1878.870
358.708	22.569	1868.634	1878.700
359.723	22.949	1868.874	1882.786
360.738	23.606	1869.042	1889.758
361.752	23.370	1866.114	1884.055
362.767	22.492	1863.430	1871.745
363.781	22.314	1860.849	1867.026
364.796	22.299	1858.670	1864.460
365.810	22.208	1857.710	1862.304
366.825	22.156	1856.619	1860.441
367.840	22.347	1856.194	1861.816
368.854	22.494	1855.204	1862.168
369.869	22.447	1854.614	1860.847
370.883	22.572	1851.697	1859.022
371.898	22.355	1850.795	1855.599
372.913	22.704	1849.211	1857.487
373.927	22.702	1848.081	1856.100
374.942	22.694	1847.371	1855.081
375.956	22.658	1844.935	1852.031
376.971	22.437	1842.385	1846.927
377.986	22.493	1841.371	1846.281
379.000	22.729	1840.709	1847.874
380.015	22.792	1839.757	1847.369
381.029	22.747	1837.460	1844.363
382.044	22.810	1835.677	1843.014
383.059	22.785	1834.173	1841.018
384.073	22.589	1832.685	1837.250
385.088	22.340	1832.107	1833.845
386.102	22.308	1830.190	1831.370
387.117	22.468	1828.809	1831.447
388.132	22.357	1828.122	1829.381
389.146	22.722	1829.060	1833.908
390.161	23.417	1829.005	1840.899
391.175	23.379	1824.488	1835.737
392.190	22.565	1819.940	1822.485
393.205	22.158	1817.615	1815.709
394.219	22.469	1816.596	1817.697
395.234	22.449	1816.065	1816.744
396.248	22.547	1814.075	1815.548
397.263	22.511	1811.424	1812.310
398.278	22.370	1809.539	1808.749
399.292	22.327	1809.215	1807.759
400.307	22.481	1809.433	1809.351
401.321	22.595	1808.118	1808.999
402.336	22.456	1806.048	1805.280
403.350	22.566	1804.139	1804.292
404.365	22.669	1803.584	1804.582
405.380	23.003	1802.625	1806.835
406.394	22.931	1802.164	1805.411
407.409	22.977	1799.287	1802.785
408.423	22.785	1798.635	1799.955
409.438	22.697	1796.270	1796.473
410.453	22.648	1794.698	1794.178
411.467	22.715	1794.580	1794.535
412.482	22.752	1792.692	1792.806
413.496	22.517	1791.100	1788.601
414.511	22.357	1789.987	1785.646
415.526	22.319	1787.486	1782.546
416.540	22.471	1786.048	1782.452
417.555	22.561	1784.531	1781.641
418.569	22.306	1784.823	1779.122
419.584	22.390	1784.666	1779.603
420.599	22.537	1784.130	1780.351
421.613	22.463	1782.300	1777.559
422.628	22.576	1782.074	1778.275
423.642	22.765	1781.050	1778.952
424.657	22.717	1778.616	1775.818
425.672	22.525	1777.174	1772.226
426.686	22.490	1776.575	1771.071
427.701	22.458	1775.135	1769.094
428.715	22.707	1772.416	1768.684
429.730	22.639	1771.297	1766.665
430.745	22.512	1769.287	1763.175
431.759	22.358	1769.057	1761.189
432.774	22.327	1768.640	1760.247
433.788	22.184	1767.635	1757.603
434.803	22.245	1766.148	1756.523
435.818	22.147	1765.603	1754.786
436.832	22.126	1764.588	1753.361
437.847	20.757	1756.114	1731.053
438.861	11.066	1730.759	1609.947
439.876	1.952	1713.008	1503.251
440.890	0.484	1709.088	1485.116
441.905	0.287	1708.276	1482.288
442.920	0.291	1706.727	1480.803
443.934	0.403	1705.337	1480.529
444.949	0.299	1703.765	1477.956
445.963	0.326	1703.301	1477.647
446.978	0.172	1703.518	1476.143
447.993	0.161	1701.580	1474.180
449.007	0.125	1699.252	1471.635
450.022	0.281	1696.353	1470.475
451.036	0.537	1696.183	1472.660
452.051	1.446	1699.091	1483.937
453.066	8.534	1717.685	1570.143
454.080	18.580	1735.064	1685.551
455.095	22.054	1741.255	1725.739
456.109	23.194	1743.152	1738.673
457.124	23.457	1742.145	1740.051
458.139	23.250	1741.498	1737.159
459.153	23.132	1740.389	1734.678
460.168	23.071	1738.065	1731.563
461.182	23.014	1735.707	1728.446
462.197	23.045	1734.602	1727.440
463.212	22.796	1734.053	1724.238
464.226	22.941	1731.197	1722.617
465.241	23.118	1729.968	1722.921
466.255	23.035	1729.625	1721.561
467.270	23.075	1728.126	1720.256
468.285	22.999	1726.064	1717.256
469.299	22.983	1724.710	1715.546
470.314	22.948	1723.310	1713.607
471.328	22.964	1721.866	1712.120
472.343	22.910	1721.827	1711.349
473.358	22.912	1719.935	1709.285
474.372	23.000	1718.441	1708.450
475.387	22.961	1717.239	1706.673
476.401	23.049	1715.761	1705.850
477.416	23.041	1714.776	1704.593
478.430	23.200	1713.872	1705.033
479.445	23.061	1712.118	1701.732
480.460	22.973	1710.533	1699.108
481.474	22.921	1709.726	1697.601
482.489	23.006	1708.924	1697.422
483.503	23.280	1706.515	1697.468
484.518	23.063	1705.743	1694.407
485.533	23.226	1705.115	1695.145
486.547	23.317	1703.087	1693.802
487.562	23.400	1702.838	1694.147
488.576	23.477	1700.743	1692.596
489.591	23.419	1699.282	1690.389
490.606	23.234	1698.174	1687.306
491.620	23.286	1696.626	1686.064
492.635	23.482	1694.691	1685.821
493.649	23.504	1694.110	1685.246
494.664	23.140	1693.139	1680.602
495.679	22.885	1690.220	1675.073
496.693	22.959	1689.357	1674.719
497.708	23.098	1688.797	1675.288
498.722	23.331	1687.534	1676.051
499.737	23.269	1685.931	1673.676
500.752	23.197	1684.326	1671.196
501.766	23.151	1682.011	1668.266
502.781	23.230	1681.215	1668.018
503.795	23.247	1679.020	1665.809
504.810	23.110	1678.480	1663.772
505.825	23.267	1678.299	1664.883
506.839	23.282	1677.572	1664.102
507.854	23.176	1676.071	1661.412
508.868	23.236	1674.328	1660.047
509.883	23.139	1673.138	1657.763
510.898	23.164	1673.065	1657.725
511.912	23.359	1670.008	1656.331
512.927	23.275	1668.253	1653.603
513.941	23.198	1667.227	1651.664
514.956	23.415	1667.187	1653.462
515.971	23.667	1665.795	1654.244
516.985	23.644	1664.619	1652.662
518.000	23.408	1663.668	1649.317
519.014	23.538	1662.840	1649.515
520.029	23.455	1660.916	1646.635
521.043	23.361	1659.707	1644.358
522.058	23.187	1658.281	1641.130
523.073	23.360	1657.279	1641.549
524.087	23.525	1656.040	1641.659
525.102	23.543	1654.481	1640.087
526.116	23.271	1653.450	1636.345
527.131	23.093	1652.635	1633.685
528.146	23.405	1651.177	1634.943
529.160	23.454	1650.593	1634.623
530.175	23.287	1648.982	1631.284
531.189	23.492	1647.808	1631.828
532.204	23.577	1646.249	1630.869
533.219	23.506	1644.503	1628.296
534.233	23.174	1643.602	1624.142
535.248	23.232	1643.849	1624.732
536.262	23.535	1643.316	1626.798
537.277	23.842	1641.562	1627.697
538.292	23.768	1639.839	1625.108
539.306	23.538	1638.293	1621.274
540.321	23.520	1636.994	1619.630
541.335	23.607	1635.723	1618.975
542.350	23.738	1633.601	1617.875
543.365	23.734	1632.133	1616.198
544.379	23.677	1631.604	1614.957
545.394	23.710	1630.163	1613.636
546.408	23.547	1627.688	1609.511
547.423	23.145	1626.874	1604.846
548.438	22.938	1626.213	1602.112
549.452	23.116	1625.233	1602.581
550.467	23.206	1623.602	1601.596
551.481	23.444	1622.094	1602.082
552.496	23.466	1622.591	1602.577
553.511	23.693	1620.983	1602.856
554.525	23.747	1619.026	1601.221
555.540	23.510	1619.224	1599.074
556.554	23.588	1617.544	1597.934
557.569	23.635	1615.839	1596.485
558.583	23.511	1615.312	1594.653
559.598	23.384	1613.835	1591.853
560.613	23.439	1612.448	1590.794
561.627	23.500	1610.983	1589.704
562.642	23.619	1609.494	1589.117
563.656	23.717	1608.172	1588.502
564.671	23.667	1606.825	1586.530
565.686	23.757	1606.210	1586.550
566.700	23.645	1604.714	1583.874
567.715	23.716	1603.167	1582.792
568.729	23.783	1601.660	1581.717
569.744	23.898	1600.782	1581.684
570.759	23.827	1600.198	1580.285
571.773	23.603	1599.457	1577.364
572.788	23.873	1597.127	1577.285
573.802	23.737	1595.160	1573.946
574.817	23.645	1593.561	1571.355
575.832	23.790	1592.378	1571.289
576.846	23.661	1591.345	1568.942
577.861	23.610	1590.822	1567.783
578.875	23.582	1590.157	1566.695
579.890	23.838	1588.266	1566.912
580.905	23.684	1587.660	1564.760
581.919	23.766	1586.937	1564.589
582.934	23.913	1586.022	1564.794
583.948	23.847	1584.246	1562.277
584.963	23.868	1583.163	1561.201
585.978	23.570	1581.985	1557.227
586.992	23.777	1581.166	1558.059
588.007	24.005	1580.539	1559.263
589.021	23.752	1579.946	1556.266
590.036	23.602	1578.357	1553.194
591.051	23.805	1577.339	1553.789
592.065	23.983	1575.938	1553.784
593.080	23.945	1574.035	1551.396
594.094	24.050	1572.256	1550.372
595.109	23.747	1569.028	1544.359
596.123	23.232	1567.816	1538.477
597.138	23.301	1567.248	1538.345
598.153	23.515	1566.436	1539.231
599.167	23.707	1564.953	1539.258
600.182	23.648	1564.341	1537.955
601.196	23.889	1562.827	1538.382
602.211	23.702	1562.166	1535.926
603.226	23.609	1561.394	1534.168
604.240	23.696	1559.412	1532.793
605.255	23.842	1558.039	1532.525
606.269	23.817	1557.598	1531.693
607.284	23.821	1556.887	1530.845
608.299	23.876	1554.618	1528.903
609.313	23.819	1553.499	1527.127
610.328	23.771	1552.276	1525.335
611.342	23.928	1550.614	1524.873
612.357	23.841	1550.303	1523.627
613.372	24.024	1549.404	1524.143
614.386	23.766	1548.794	1521.134
615.401	23.712	1548.405	1520.108
616.415	23.745	1547.228	1519.059
617.430	23.773	1545.319	1517.237
618.445	23.878	1544.296	1516.950
619.459	23.880	1543.634	1516.140
620.474	23.659	1543.265	1513.701
621.488	23.888	1541.661	1513.909
622.503	24.127	1539.700	1513.847
623.518	24.106	1538.623	1512.423
624.532	23.966	1537.862	1510.301
625.547	23.927	1536.483	1508.433
626.561	24.006	1535.566	1508.024
627.576	23.949	1535.033	1506.837
628.591	24.031	1533.519	1505.864
629.605	24.174	1533.030	1506.418
630.620	24.348	1531.246	1505.965
631.634	24.228	1530.313	1503.847
632.649	24.376	1529.215	1503.847
633.663	24.313	1527.544	1501.488
634.678	24.208	1526.206	1499.106
635.693	24.009	1525.139	1496.193
636.707	23.948	1523.699	1494.092
637.722	23.938	1521.801	1491.966
638.736	24.004	1520.830	1491.391
639.751	24.006	1519.834	1490.249
640.766	24.011	1518.233	1488.545
641.780	23.901	1517.446	1486.672
642.795	23.862	1516.482	1485.220
643.809	23.866	1515.483	1484.099
644.824	24.081	1514.608	1484.865
645.839	23.945	1513.339	1482.309
646.853	24.106	1511.677	1481.849
647.868	24.013	1510.236	1479.484
648.882	23.928	1509.493	1477.862
649.897	23.846	1508.136	1475.674
650.912	23.927	1507.146	1475.204
651.926	24.080	1506.258	1475.436
652.941	24.029	1505.472	1474.066
653.955	23.951	1502.960	1470.780
654.970	23.845	1501.034	1467.837
655.985	23.684	1499.466	1464.795
656.999	23.773	1498.977	1464.881
658.014	23.818	1497.901	1464.022
659.028	23.876	1497.630	1464.063
660.043	24.101	1496.546	1464.691
661.058	24.073	1494.961	1462.732
662.072	24.140	1493.835	1462.007
663.087	23.997	1493.298	1460.131
664.101	23.734	1492.064	1456.581
665.116	23.976	1490.734	1457.103
666.131	23.932	1490.040	1455.882
667.145	23.768	1488.459	1452.821
668.160	23.772	1487.518	1451.759
669.174	23.869	1485.969	1450.871
670.189	23.912	1484.539	1449.650
671.204	23.928	1483.514	1448.612
672.218	23.791	1483.490	1447.291
673.233	23.911	1482.104	1446.748
674.247	24.030	1480.846	1446.317
675.262	24.006	1479.515	1444.651
676.276	24.007	1478.407	1443.398
677.291	23.921	1477.647	1441.782
678.306	23.929	1475.956	1440.030
679.320	23.854	1475.017	1438.326
680.335	23.763	1474.799	1437.203
681.349	23.818	1473.878	1436.581
682.364	24.002	1472.548	1436.606
683.379	23.912	1471.281	1434.468
684.393	23.812	1469.125	1431.386
685.408	23.949	1468.525	1431.741
686.422	23.928	1467.232	1430.139
687.437	23.856	1467.255	1429.409
688.452	23.868	1466.820	1428.907
689.466	23.962	1464.489	1427.223
690.481	23.999	1463.368	1426.259
691.495	24.162	1463.154	1427.195
692.510	24.380	1462.339	1427.977
693.525	24.155	1460.519	1424.229
694.539	24.067	1459.736	1422.581
695.554	23.964	1459.072	1420.938
696.568	23.853	1457.435	1418.287
697.583	23.847	1456.123	1416.787
698.598	23.757	1455.648	1415.436
699.612	23.965	1453.796	1415.128
700.627	23.762	1452.860	1412.426
701.641	23.806	1451.447	1411.240
702.656	23.907	1450.755	1411.199
703.671	23.927	1449.879	1410.340
704.685	23.916	1449.755	1409.964
705.700	23.980	1447.844	1408.441
706.714	23.930	1446.425	1406.496
707.729	23.891	1445.326	1404.952
708.744	24.040	1443.852	1404.534
709.758	24.098	1442.806	1403.806
710.773	23.911	1441.443	1400.829
711.787	23.916	1439.736	1399.044
712.802	23.881	1439.022	1397.909
713.816	24.055	1438.384	1398.496
714.831	24.092	1437.431	1397.696
715.846	24.060	1435.679	1395.569
716.860	23.963	1434.786	1393.774
717.875	23.945	1434.050	1392.743
718.889	24.024	1432.630	1391.819
719.904	23.894	1431.813	1389.843
720.919	24.040	1430.316	1389.364
721.933	23.902	1429.141	1386.975
722.948	23.968	1428.238	1386.453
723.962	23.962	1427.137	1385.171
724.977	23.931	1425.980	1383.641
725.992	23.941	1425.248	1382.838
727.006	23.915	1423.768	1381.035
728.021	23.893	1422.232	1379.212
729.035	23.892	1421.798	1378.613
730.050	23.797	1420.834	1376.776
731.065	23.787	1420.155	1375.876
732.079	24.006	1418.348	1375.666
733.094	23.915	1417.445	1373.916
734.108	24.029	1415.407	1372.659
735.123	23.968	1414.226	1370.874
736.138	23.943	1413.522	1369.835
737.152	23.877	1412.484	1368.154
738.167	23.845	1411.658	1366.947
739.181	23.765	1410.745	1365.282
740.196	23.771	1409.954	1364.398
741.211	23.724	1408.923	1362.876
742.225	23.921	1407.650	1362.997
743.240	23.918	1406.361	1361.564
744.254	23.785	1405.222	1359.272
745.269	23.795	1403.636	1357.653
746.284	23.870	1402.774	1357.230
747.298	23.840	1402.498	1356.571
748.313	24.030	1402.011	1357.395
749.327	24.169	1401.595	1357.898
750.342	24.465	1400.312	1358.757
751.356	24.278	1398.976	1355.865
752.371	24.160	1398.012	1353.868
753.386	24.043	1396.680	1351.528
754.400	23.750	1395.247	1347.743
755.415	23.785	1394.017	1346.663
756.429	23.962	1392.603	1346.479
757.444	23.841	1391.658	1344.487
758.459	23.785	1391.221	1343.477
759.473	23.863	1389.324	1342.074
760.488	23.642	1388.285	1339.234
761.502	23.763	1387.405	1339.143
762.517	23.907	1385.950	1338.669
763.532	24.104	1384.743	1338.834
764.546	24.099	1383.725	1337.649
765.561	23.758	1383.724	1334.911
766.575	23.648	1381.951	1332.214
767.590	23.809	1380.976	1332.327
768.605	23.927	1379.787	1331.906
769.619	24.037	1378.256	1331.099
770.634	23.921	1377.268	1329.110
771.648	23.916	1376.120	1327.810
772.663	23.845	1375.350	1326.374
773.678	23.743	1374.559	1324.685
774.692	23.730	1374.641	1324.513
775.707	23.921	1373.790	1324.964
776.721	23.779	1372.523	1322.520
777.736	23.630	1371.734	1320.489
778.751	23.800	1370.705	1320.609
779.765	23.701	1369.670	1318.718
780.780	23.789	1368.309	1317.900
781.794	23.942	1367.131	1317.747
782.809	23.729	1366.430	1315.332
783.824	23.692	1365.290	1313.803
784.838	23.917	1364.569	1314.620
785.853	24.007	1364.065	1314.643
786.867	24.105	1362.701	1313.900
787.882	24.003	1361.669	1311.992
788.897	24.027	1361.037	1311.406
789.911	23.810	1359.789	1308.438
790.926	23.753	1358.373	1306.500
791.940	23.621	1356.263	1303.339
792.955	23.827	1354.915	1303.410
793.969	23.649	1354.214	1301.267
794.984	23.705	1353.626	1300.954
795.999	23.725	1352.491	1299.857
797.013	23.844	1350.341	1298.508
798.028	23.737	1349.522	1296.781
799.042	23.700	1349.225	1296.071
800.057	23.733	1348.490	1295.450
801.072	23.793	1346.351	1293.675
802.086	23.659	1345.523	1291.749
803.101	23.666	1344.597	1290.756
804.115	23.750	1343.294	1289.965
805.130	23.733	1342.200	1288.635
806.145	23.717	1341.198	1287.401
807.159	23.802	1339.757	1286.483
808.174	23.728	1339.054	1285.119
809.188	23.922	1337.577	1284.953
810.203	24.019	1335.986	1283.975
811.218	23.872	1334.654	1281.475
812.232	23.713	1333.997	1279.539
813.247	23.630	1333.353	1278.167
814.261	23.632	1333.223	1277.906
815.276	23.784	1331.974	1277.656
816.291	23.618	1330.431	1274.826
817.305	23.575	1328.975	1272.969
818.320	23.573	1327.722	1271.598
819.334	23.622	1326.715	1270.832
820.349	23.668	1325.311	1269.670
821.364	23.630	1323.210	1267.234
822.378	23.709	1321.625	1266.129
823.393	23.675	1320.236	1264.403
824.407	23.616	1319.730	1263.344
825.422	23.701	1319.127	1263.223
826.437	23.680	1318.219	1262.050
827.451	23.620	1317.184	1260.482
828.466	23.774	1316.144	1260.435
829.480	24.173	1314.143	1261.208
830.495	23.910	1312.591	1257.699
831.509	23.621	1311.662	1254.606
832.524	23.597	1311.127	1253.772
833.539	23.761	1309.074	1252.820
834.553	23.704	1307.477	1250.740
835.568	23.543	1306.881	1248.879
836.582	23.425	1306.029	1247.081
837.597	23.601	1304.547	1246.759
838.612	23.595	1303.517	1245.585
839.626	23.635	1302.783	1245.013
840.641	23.702	1301.592	1244.204
841.655	23.796	1300.416	1243.589
842.670	23.622	1299.901	1241.727
843.685	23.527	1298.908	1239.959
844.699	23.649	1297.800	1239.611
845.714	23.763	1295.849	1238.395
846.728	23.683	1294.912	1236.792
847.743	23.553	1293.940	1234.807
848.758	23.529	1292.730	1233.337
849.772	23.598	1290.830	1231.856
850.787	23.432	1289.815	1229.584
851.801	23.510	1288.700	1228.917
852.816	23.658	1287.572	1228.726
853.831	23.671	1285.966	1227.132
854.845	23.512	1285.085	1225.044
855.860	23.624	1283.196	1223.869
856.874	23.815	1281.661	1223.587
857.889	23.833	1281.042	1222.973
858.904	23.912	1280.612	1222.957
859.918	24.047	1279.257	1222.451
860.933	24.127	1277.474	1221.157
861.947	23.978	1276.692	1219.230
862.962	23.764	1275.331	1216.312
863.977	23.591	1274.358	1214.050
864.991	23.551	1273.321	1212.645
866.006	23.576	1272.639	1212.021
867.020	23.625	1271.236	1210.876
868.035	23.570	1269.841	1209.028
869.049	23.645	1269.072	1208.664
870.064	23.583	1267.787	1206.869
871.079	23.641	1267.219	1206.581
872.093	23.589	1266.528	1205.425
873.108	23.696	1265.709	1205.232
874.122	23.698	1264.396	1203.852
875.137	23.664	1263.557	1202.672
876.152	23.752	1262.884	1202.488
877.166	23.805	1260.491	1200.423
878.181	23.518	1259.514	1197.405
879.195	23.439	1259.068	1196.303
880.210	23.353	1258.164	1194.718
881.225	23.408	1257.606	1194.418
882.239	23.514	1256.316	1193.768
883.254	23.591	1255.415	1193.287
884.268	23.614	1254.364	1192.298
885.283	23.593	1252.975	1190.696
886.298	23.524	1251.354	1188.551
887.312	23.521	1250.517	1187.589
888.327	23.526	1249.371	1186.395
889.341	23.470	1248.474	1185.022
890.356	23.559	1248.464	1185.468
891.371	23.410	1247.586	1183.494
892.385	23.670	1246.302	1183.879
893.400	23.589	1245.464	1182.395
894.414	23.667	1245.130	1182.463
895.429	23.844	1243.510	1181.965
896.444	23.956	1242.152	1181.279
897.458	24.005	1241.284	1180.638
898.473	23.834	1240.606	1178.714
899.487	23.750	1239.647	1177.100
900.502	23.623	1237.520	1174.099
901.517	23.692	1235.832	1172.811
902.531	23.715	1234.833	1171.875
903.546	23.548	1234.469	1170.282
904.560	23.613	1233.845	1169.984
905.575	23.486	1233.151	1168.341
906.589	23.609	1232.083	1168.004
907.604	23.653	1230.936	1167.067
