DTS Sentinel unit serial number:	SN409020Multiplexer serial number:	ORYXHardware model number:	OX4-SRSoftware version number:	ORYX F/W v3.00 Oryx Data Collector v3.7.2.0data status	okinstallation	HaddamTimeLapsedifferential loss correction	single-endedforward channel	channel 3reverse channel	N/Adate	2011/06/22time	11:31:01forward acquisition time	30.00reverse acquisition time	0.00gamma	498.7831k internal	0.1756k external	0.1756temperature offset calibration	1.0074default loss term (dB/km)	0.3790temperature slope calibration	1.3530multiplexer offset coefficient	1.0000multiplexer slope coefficient	1.0000fibre end	0.00T internal ref (°C)	28.50T ext. ref 1 (°C)	23.45T ext. ref 2 (°C)	-0.09length (m)	temperature (°C)	Stokes	anti-Stokes-747.200	47.347	-0.330	0.408
-746.185	800.000	0.127	0.621
-745.171	-148.851	-0.561	0.059
-744.156	158.479	-0.229	0.421
-743.142	-173.601	-0.197	-0.008
-742.127	800.000	-0.083	0.327
-741.112	338.760	-0.049	-0.126
-740.098	307.645	0.106	0.262
-739.083	57.970	-0.368	-0.478
-738.069	143.118	-0.096	0.169
-737.054	-22.796	-0.445	0.355
-736.039	198.456	-0.171	0.348
-735.025	5.063	0.701	0.683
-734.010	-25.590	0.256	-0.199
-732.996	-200.000	0.045	-0.668
-731.981	800.000	0.125	-0.586
-730.966	800.000	0.066	0.283
-729.952	-178.051	-0.257	0.008
-728.937	-25.661	-0.423	0.330
-727.923	-91.770	-0.353	-0.132
-726.908	159.634	-0.096	0.178
-725.894	-47.748	-0.042	-0.027
-724.879	-71.345	-0.145	0.072
-723.864	-200.000	0.024	-0.266
-722.850	-62.358	-0.460	-0.252
-721.835	-25.016	-0.102	0.080
-720.821	-100.203	-0.098	-0.032
-719.806	-35.121	-0.217	-0.156
-718.791	-87.089	0.301	0.120
-717.777	-160.965	0.338	-0.023
-716.762	185.992	0.233	-0.460
-715.748	-131.256	-0.245	0.043
-714.733	-50.922	-0.317	-0.196
-713.718	-132.163	-0.574	-0.098
-712.704	-4.818	-0.379	0.345
-711.689	-200.000	0.053	-0.377
-710.675	-99.574	-0.354	-0.117
-709.660	-54.223	0.185	-0.111
-708.645	-81.895	-0.220	-0.095
-707.631	53.536	-0.117	-0.148
-706.616	-23.067	0.188	0.150
-705.602	-159.978	0.067	-0.005
-704.587	-64.286	-0.422	-0.227
-703.572	-6.180	-0.185	-0.167
-702.558	-138.133	-0.754	0.110
-701.543	164.400	-0.110	0.205
-700.529	77.301	0.179	-0.252
-699.514	-200.000	-0.010	-0.162
-698.499	753.095	-0.060	0.215
-697.485	-24.455	0.378	0.298
-696.470	358.202	0.177	-0.470
-695.456	800.000	0.123	0.480
-694.441	-74.275	0.074	-0.035
-693.426	-10.064	0.367	-0.322
-692.412	142.792	0.059	-0.104
-691.397	60.054	-0.235	-0.307
-690.383	-136.672	-0.568	-0.086
-689.368	4.105	-0.261	-0.252
-688.354	-69.604	-0.159	0.080
-687.339	-5.903	0.100	-0.091
-686.324	523.222	-0.243	0.758
-685.310	35.750	-0.260	-0.303
-684.295	8.199	0.153	-0.152
-683.281	-48.487	0.120	0.076
-682.266	-200.000	0.013	-0.316
-681.251	-66.736	-0.381	-0.199
-680.237	-106.141	-0.452	0.133
-679.222	-117.447	-0.258	-0.061
-678.208	-170.407	0.233	0.011
-677.193	101.871	-0.108	-0.167
-676.178	800.000	0.088	-0.340
-675.164	62.864	-0.259	0.343
-674.149	66.061	0.236	-0.317
-673.135	90.599	0.390	-0.578
-672.120	-78.451	0.223	0.101
-671.105	-124.191	-0.428	0.088
-670.091	-105.680	0.413	0.123
-669.076	289.316	-0.136	-0.327
-668.062	-171.351	-0.702	0.031
-667.047	39.969	-0.236	0.280
-666.032	-149.987	-0.347	0.035
-665.018	-140.317	-0.133	-0.018
-664.003	16.963	-0.314	-0.328
-662.989	16.879	0.488	0.511
-661.974	5.433	-0.544	0.530
-660.959	800.000	0.101	0.533
-659.945	-125.542	-0.083	-0.016
-658.930	182.431	-0.076	0.149
-657.916	359.614	0.061	0.162
-656.901	-44.387	0.425	-0.280
-655.886	-132.496	-0.084	-0.014
-654.872	-107.585	-0.138	0.040
-653.857	-107.961	0.119	-0.034
-652.843	-73.139	0.536	-0.258
-651.828	71.256	-0.131	-0.179
-650.814	-124.851	-0.269	0.054
-649.799	-149.115	-0.553	0.058
-648.784	8.706	-0.126	-0.126
-647.770	-121.594	0.167	-0.036
-646.755	6.573	0.334	0.328
-645.741	-160.806	-0.234	-0.016
-644.726	-200.000	0.001	0.241
-643.711	-99.595	0.179	0.059
-642.697	-200.000	-0.003	-0.363
-641.682	-200.000	0.056	-0.460
-640.668	800.000	-0.049	0.268
-639.653	-200.000	0.017	-0.141
-638.638	-78.192	-0.444	-0.201
-637.624	800.000	-0.052	0.210
-636.609	-145.316	0.168	0.020
-635.595	249.623	0.051	-0.114
-634.580	-199.461	0.445	0.003
-633.565	0.861	-0.069	-0.065
-632.551	115.745	-0.178	-0.288
-631.536	318.883	0.094	-0.236
-630.522	202.945	-0.232	-0.474
-629.507	70.680	0.240	0.328
-628.492	-30.291	0.265	-0.198
-627.478	-45.048	0.351	-0.230
-626.463	-80.903	0.278	0.121
-625.449	-24.208	0.459	-0.360
-624.434	-163.350	-0.496	-0.031
-623.419	-119.703	0.319	-0.072
-622.405	175.892	0.067	-0.129
-621.390	-184.439	-0.268	0.006
-620.376	-70.243	0.538	0.268
-619.361	378.833	0.210	0.570
-618.346	50.722	0.127	0.158
-617.332	122.949	-0.157	0.260
-616.317	40.970	-0.188	-0.224
-615.303	97.256	-0.151	0.229
-614.288	207.354	-0.094	-0.193
-613.273	-39.706	-0.180	-0.123
-612.259	-200.000	0.030	0.264
-611.244	-129.442	0.557	-0.101
-610.230	-96.336	0.202	0.070
-609.215	201.986	0.279	0.569
-608.201	-177.259	-0.621	-0.020
-607.186	-128.452	0.184	-0.034
-606.171	-57.970	0.135	0.078
-605.157	231.597	0.128	-0.278
-604.142	-100.807	-0.260	0.084
-603.128	-35.420	-0.508	0.363
-602.113	-200.000	-0.053	0.338
-601.098	473.747	0.133	0.398
-600.084	160.309	0.095	-0.175
-599.069	-200.000	0.053	0.000
-598.055	800.000	0.021	0.084
-597.040	-200.000	-0.025	-0.323
-596.025	-99.646	-0.066	-0.022
-595.011	545.102	-0.163	-0.515
-593.996	219.668	-0.203	-0.431
-592.982	-35.470	-0.348	-0.248
-591.967	266.795	-0.101	0.233
-590.952	-7.333	-0.183	-0.163
-589.938	-25.577	0.176	0.137
-588.923	800.000	0.034	0.165
-587.909	-128.642	0.352	-0.065
-586.894	-109.731	0.192	0.053
-585.879	800.000	0.040	0.184
-584.865	-97.681	0.754	0.256
-583.850	-200.000	-0.029	-0.252
-582.836	-34.963	0.307	0.220
-581.821	112.829	0.169	-0.270
-580.806	-62.100	-0.301	0.165
-579.792	-136.242	0.234	0.036
-578.777	-126.953	-0.141	-0.027
-577.763	-155.145	0.136	0.012
-576.748	274.045	-0.027	0.064
-575.733	-112.453	-0.295	-0.077
-574.719	-139.452	0.398	0.056
-573.704	-147.106	-0.107	0.012
-572.690	100.944	-0.249	0.382
-571.675	-102.162	0.565	-0.178
-570.661	239.651	0.160	0.353
-569.646	800.000	-0.107	0.504
-568.631	55.446	0.129	0.165
-567.617	-70.091	-0.256	0.128
-566.602	-26.285	0.076	-0.059
-565.588	-112.191	-0.091	0.024
-564.573	-73.291	-0.699	0.335
-563.558	205.531	0.156	0.319
-562.544	-200.000	0.039	0.621
-561.529	800.000	-0.085	-0.352
-560.515	160.588	-0.268	-0.494
-559.500	-113.938	-0.408	0.103
-558.485	12.611	-0.238	0.241
-557.471	-46.477	0.504	-0.325
-556.456	-1.831	0.277	0.256
-555.442	-200.000	-0.001	-0.243
-554.427	8.210	0.158	-0.156
-553.412	494.511	-0.068	-0.207
-552.398	-147.099	0.381	0.042
-551.383	-16.799	0.210	0.174
-550.369	240.150	-0.067	-0.146
-549.354	-148.615	0.282	0.030
-548.339	-79.891	-0.098	0.043
-547.325	-45.339	0.230	-0.150
-546.310	304.423	-0.087	-0.214
-545.296	59.878	-0.088	-0.114
-544.281	-18.150	-0.369	-0.303
-543.266	205.287	-0.076	0.155
-542.252	-160.688	-0.640	-0.044
-541.237	-175.155	-0.244	-0.009
-540.223	-181.243	0.183	0.005
-539.208	56.973	0.188	0.241
-538.193	-72.450	-0.130	0.063
-537.179	0.451	-0.310	0.291
-536.164	800.000	0.102	0.482
-535.150	176.321	0.104	-0.199
-534.135	467.999	0.173	-0.512
-533.121	800.000	-0.053	-0.303
-532.106	21.231	-0.415	-0.443
-531.091	-125.075	0.153	-0.031
-530.077	800.000	0.098	-0.482
-529.062	187.243	-0.251	-0.492
-528.048	-24.264	-0.166	0.130
-527.033	203.884	-0.178	-0.363
-526.018	-104.113	-0.337	-0.102
-525.004	-11.451	-0.150	-0.129
-523.989	-200.000	-0.048	0.664
-522.975	-1.007	-0.273	0.254
-521.960	7.799	-0.405	0.398
-520.945	-191.624	0.195	0.002
-519.931	800.000	-0.035	-0.144
-518.916	-137.130	-0.031	0.005
-517.902	-50.590	-0.156	-0.096
-516.887	296.463	-0.092	0.223
-515.872	-86.973	-0.055	-0.022
-514.858	-62.789	-0.126	-0.069
-513.843	-118.185	-0.167	-0.039
-512.829	800.000	0.063	0.361
-511.814	-200.000	-0.026	0.214
-510.799	29.620	-0.154	-0.172
-509.785	-83.774	-0.428	0.178
-508.770	-200.000	0.011	-0.290
-507.756	-27.376	0.150	-0.114
-506.741	-56.848	-0.258	0.149
-505.726	-200.000	0.040	0.358
-504.712	800.000	0.151	0.682
-503.697	184.096	-0.085	-0.166
-502.683	422.030	0.129	-0.364
-501.668	-92.271	-0.146	0.054
-500.653	-22.890	-0.187	-0.148
-499.639	-73.612	-0.085	0.040
-498.624	-200.000	0.039	-0.245
-497.610	27.585	-0.223	0.246
-496.595	326.282	0.121	-0.307
-495.581	800.000	-0.025	-0.125
-494.566	-200.000	-0.199	0.000
-493.551	-43.177	0.222	0.147
-492.537	36.217	-0.278	0.321
-491.522	688.328	-0.066	0.227
-490.508	-200.000	0.021	0.290
-489.493	210.428	-0.089	0.185
-488.478	18.452	0.315	0.330
-487.464	-200.000	0.244	-0.000
-486.449	800.000	-0.097	0.507
-485.435	296.473	0.202	0.487
-484.420	-80.922	0.291	-0.126
-483.405	-101.507	0.326	-0.103
-482.391	-77.692	0.213	-0.096
-481.376	56.451	-0.329	-0.420
-480.362	800.000	-0.078	-0.370
-479.347	166.333	0.100	0.187
-478.332	16.863	-0.173	0.179
-477.318	-51.489	-0.343	0.209
-476.303	-163.816	-0.251	0.015
-475.289	-95.884	0.654	-0.227
-474.274	-162.195	-0.318	-0.021
-473.259	80.068	-0.184	0.259
-472.245	-144.606	0.014	0.002
-471.230	-158.582	-0.328	0.024
-470.216	800.000	-0.104	0.458
-469.201	-30.096	-0.314	0.234
-468.186	23.444	0.336	-0.362
-467.172	160.744	0.059	0.109
-466.157	301.225	-0.128	0.312
-465.143	106.225	0.246	0.382
-464.128	661.339	0.049	0.168
-463.113	-35.467	-0.179	-0.127
-462.099	-200.000	0.065	-0.650
-461.084	800.000	-0.037	-0.198
-460.070	-200.000	0.001	0.500
-459.055	-56.358	-0.199	-0.115
-458.040	-102.055	-0.519	-0.163
-457.026	-27.079	-0.306	-0.233
-456.011	-73.699	0.546	-0.259
-454.997	-62.685	0.238	-0.129
-453.982	-200.000	0.008	-0.367
-452.968	-48.778	-0.350	0.220
-451.953	123.151	0.199	0.327
-450.938	85.457	-0.094	0.135
-449.924	800.000	-0.032	0.182
-448.909	-150.135	0.289	0.029
-447.895	-4.945	-0.229	0.207
-446.880	-3.344	0.125	0.114
-445.865	16.730	-0.187	-0.193
-444.851	-150.709	-0.242	-0.024
-443.836	-149.723	0.656	-0.067
-442.822	-14.400	-0.352	0.296
-441.807	-200.000	0.036	0.252
-440.792	-113.385	-0.689	-0.176
-439.778	800.000	0.043	-0.169
-438.763	800.000	0.042	0.217
-437.749	-139.350	-0.313	0.044
-436.734	-117.795	0.112	0.026
-435.719	800.000	-0.120	-0.510
-434.705	-97.617	-0.172	0.058
-433.690	-130.994	-0.541	0.094
-432.676	89.758	0.232	0.339
-431.661	-162.835	-0.163	0.010
-430.646	-25.783	0.273	-0.210
-429.632	-56.681	-0.561	-0.324
-428.617	114.929	0.139	-0.222
-427.603	-55.096	0.318	-0.187
-426.588	800.000	0.007	-0.037
-425.573	22.665	0.168	-0.180
-424.559	-84.592	-0.196	0.081
-423.544	-38.986	-0.337	0.231
-422.530	800.000	-0.021	-0.120
-421.515	-200.000	-0.005	0.033
-420.500	-104.729	0.310	0.093
-419.486	380.509	-0.072	-0.193
-418.471	-39.557	0.345	0.236
-417.457	62.873	0.148	-0.194
-416.442	-200.000	0.052	-0.401
-415.428	34.375	0.151	0.172
-414.413	-77.676	-0.256	0.115
-413.398	-200.000	0.037	0.307
-412.384	33.379	0.155	0.176
-411.369	-91.063	0.302	0.113
-410.355	14.957	0.380	-0.389
-409.340	-96.371	0.110	-0.038
-408.325	-56.243	-0.115	-0.067
-407.311	429.800	0.083	-0.236
-406.296	134.753	0.200	0.340
-405.282	335.115	0.023	-0.058
-404.267	-83.129	0.486	-0.204
-403.252	380.239	0.068	0.183
-402.238	342.365	0.136	0.349
-401.223	-118.783	0.315	0.072
-400.209	160.010	0.083	0.152
-399.194	-178.612	-0.357	0.011
-398.179	-46.419	0.380	0.243
-397.165	-33.932	0.319	0.229
-396.150	-102.258	-0.270	-0.084
-395.136	34.243	-0.298	-0.340
-394.121	800.000	0.061	0.251
-393.106	174.550	0.300	-0.568
-392.092	38.910	-0.184	-0.215
-391.077	-134.073	0.192	0.031
-390.063	-11.589	-0.150	0.129
-389.048	-74.742	0.113	-0.053
-388.033	5.200	0.036	-0.035
-387.019	-200.000	-0.008	-0.105
-386.004	37.128	0.212	0.246
-384.990	8.747	0.344	0.339
-383.975	-7.863	-0.059	-0.052
-382.960	-200.000	0.014	-0.331
-381.946	19.089	0.051	-0.054
-380.931	215.178	-0.197	0.410
-379.917	70.725	0.368	-0.498
-378.902	-125.882	-0.423	0.083
-377.888	-200.000	-0.072	-0.462
-376.873	-169.739	-0.269	-0.013
-375.858	-129.668	-0.284	0.051
-374.844	-121.704	-0.388	-0.083
-373.829	-123.463	0.024	-0.005
-372.815	-140.270	-0.334	-0.045
-371.800	-200.000	0.029	0.332
-370.785	83.898	-0.042	0.060
-369.771	-91.590	0.365	-0.135
-368.756	48.066	-0.012	0.014
-367.742	-23.247	0.292	-0.229
-366.727	-54.670	0.380	-0.223
-365.712	189.816	0.111	-0.219
-364.698	-200.000	-0.048	-0.279
-363.683	-139.350	0.434	0.060
-362.669	-18.248	-0.440	0.358
-361.654	-200.000	0.010	-0.109
-360.639	-79.940	-0.159	-0.069
-359.625	-22.023	0.181	0.143
-358.610	383.895	-0.167	0.451
-357.596	-158.854	0.535	0.039
-356.581	800.000	0.025	0.136
-355.566	-55.550	-0.146	0.085
-354.552	-200.000	0.001	0.412
-353.537	-200.000	0.037	0.391
-352.523	-39.789	-0.034	0.023
-351.508	365.354	0.077	0.202
-350.493	129.337	0.093	-0.155
-349.479	-2.276	-0.201	-0.184
-348.464	-55.957	0.099	-0.057
-347.450	-148.293	-0.152	-0.016
-346.435	241.996	0.027	0.059
-345.420	-25.046	-0.206	-0.159
-344.406	112.528	-0.318	0.502
-343.391	46.630	-0.139	-0.168
-342.377	-44.386	-0.241	-0.157
-341.362	640.428	0.061	-0.203
-340.348	-95.584	-0.344	0.120
-339.333	-132.316	-0.187	-0.031
-338.318	-82.026	0.119	0.051
-337.304	81.011	0.211	0.298
-336.289	-112.128	0.600	0.156
-335.275	100.676	0.033	0.050
-334.260	1.936	0.265	-0.249
-333.245	137.305	0.179	-0.305
-332.231	45.437	-0.104	-0.125
-331.216	-57.007	0.352	0.202
-330.202	-86.656	0.238	0.095
-329.187	-112.214	0.300	-0.078
-328.172	-29.944	0.400	-0.297
-327.158	72.540	0.375	-0.510
-326.143	318.098	0.131	0.324
-325.129	-26.635	0.232	-0.176
-324.114	670.582	0.047	0.161
-323.099	-136.443	-0.305	-0.046
-322.085	-46.510	-0.061	-0.039
-321.070	-114.443	0.239	-0.059
-320.056	419.518	0.087	0.244
-319.041	-200.000	-0.032	-0.210
-318.026	-200.000	-0.007	-0.049
-317.012	-114.588	-0.311	-0.077
-315.997	355.962	-0.124	0.324
-314.983	-140.099	-0.612	-0.083
-313.968	-44.662	-0.453	0.294
-312.953	800.000	-0.030	0.150
-311.939	-95.797	0.239	-0.083
-310.924	67.898	-0.126	0.168
-309.910	-157.969	0.732	-0.055
-308.895	50.476	0.311	-0.383
-307.880	-200.000	-0.043	-0.336
-306.866	78.957	-0.204	-0.285
-305.851	475.759	0.170	0.502
-304.837	-85.758	0.113	-0.045
-303.822	-65.952	0.507	0.263
-302.807	24.460	0.281	0.303
-301.793	0.108	-0.172	-0.159
-300.778	95.446	0.254	0.378
-299.764	-21.505	-0.117	0.093
-298.749	92.750	0.152	-0.224
-297.735	-35.759	0.317	-0.223
-296.720	-200.000	0.088	-0.726
-295.705	-101.812	-0.121	-0.038
-294.691	-167.559	0.172	0.009
-293.676	-163.344	-0.396	0.024
-292.662	-70.608	0.450	-0.221
-291.647	-5.019	0.040	-0.036
-290.632	44.623	-0.097	-0.117
-289.618	-139.359	0.448	-0.062
-288.603	-56.889	0.332	-0.190
-287.589	-98.510	0.356	0.118
-286.574	88.609	0.213	0.309
-285.559	-93.392	-0.192	0.069
-284.545	-36.025	0.269	-0.189
-283.530	-82.384	0.377	0.159
-282.516	-200.000	-0.017	-0.354
-281.501	-35.268	-0.406	0.287
-280.486	-200.000	-0.008	0.747
-279.472	-39.094	-0.278	-0.190
-278.457	96.721	-0.225	-0.336
-277.443	26.970	0.269	0.293
-276.428	713.502	0.027	0.094
-275.413	-59.561	0.314	-0.175
-274.399	117.493	0.083	0.133
-273.384	-17.905	-0.627	-0.511
-272.370	40.344	-0.084	-0.099
-271.355	78.622	0.127	0.177
-270.340	13.722	0.272	-0.275
-269.326	-99.715	-0.537	-0.174
-268.311	-136.006	-0.530	0.080
-267.297	800.000	-0.150	0.610
-266.282	88.560	-0.159	-0.231
-265.267	-200.000	0.028	-0.191
-264.253	800.000	-0.080	0.360
-263.238	91.669	0.286	0.419
-262.224	103.503	-0.159	-0.244
-261.209	175.860	0.186	-0.352
-260.195	800.000	-0.038	0.192
-259.180	283.049	-0.168	0.395
-258.165	-81.793	-0.701	0.297
-257.151	660.487	0.271	0.912
-256.136	-200.000	0.001	0.472
-255.122	78.412	-0.164	0.229
-254.107	255.003	0.198	-0.443
-253.092	34.948	0.134	0.153
-252.078	800.000	-0.063	0.233
-251.063	28.504	0.127	-0.139
-250.049	105.624	-0.267	0.410
-249.034	-85.480	-0.082	-0.033
-248.019	-200.000	-0.042	0.361
-247.005	-200.000	0.015	0.103
-245.990	800.000	-0.082	0.439
-244.976	92.618	0.213	-0.312
-243.961	148.629	-0.189	-0.332
-242.946	61.271	0.127	0.164
-241.932	-119.811	0.290	0.064
-240.917	-122.746	-0.115	-0.024
-239.903	-29.260	0.292	-0.217
-238.888	-73.479	-0.212	-0.100
-237.873	696.629	0.092	-0.317
-236.859	800.000	-0.032	0.175
-235.844	152.201	0.262	0.465
-234.830	80.976	-0.124	-0.174
-233.815	-177.232	0.517	0.016
-232.800	800.000	-0.023	-0.124
-231.786	-3.160	0.222	-0.201
-230.771	49.013	0.221	0.270
-229.757	61.856	-0.194	-0.251
-228.742	-16.651	0.055	0.045
-227.727	800.000	0.080	-0.415
-226.713	-200.000	0.001	-0.124
-225.698	-79.633	-0.285	-0.124
-224.684	-129.126	-0.252	0.045
-223.669	190.386	0.219	0.428
-222.655	-200.000	-0.035	-0.218
-221.640	-88.072	-0.239	-0.093
-220.625	-30.933	-0.234	0.171
-219.611	-138.177	-0.274	-0.039
-218.596	-9.485	0.121	0.105
-217.582	9.762	0.148	0.146
-216.567	575.498	-0.014	0.044
-215.552	800.000	-0.022	-0.083
-214.538	-200.000	0.054	-0.443
-213.523	3.248	-0.178	0.168
-212.509	-150.103	0.351	-0.035
-211.494	-62.177	-0.139	-0.075
-210.479	-124.843	0.159	-0.032
-209.465	-200.000	0.069	-0.532
-208.450	-200.000	0.019	-0.136
-207.436	258.242	-0.071	0.160
-206.421	-69.768	-0.348	0.172
-205.406	800.000	0.014	0.070
-204.392	358.412	0.230	-0.599
-203.377	-200.000	-0.073	-0.543
-202.363	-126.905	-0.237	0.045
-201.348	-98.505	-0.310	-0.102
-200.333	-34.594	-0.323	-0.229
-199.319	17.292	-0.162	-0.166
-198.304	217.920	-0.217	-0.451
-197.290	-28.291	-0.064	0.048
-196.275	-61.831	0.056	0.030
-195.260	454.290	-0.052	0.151
-194.246	11.209	-0.048	0.048
-193.231	800.000	0.054	-0.249
-192.217	-91.250	0.498	0.184
-191.202	-82.340	-0.324	-0.136
-190.187	18.226	-0.112	-0.116
-189.173	-41.318	0.368	-0.246
-188.158	-99.249	-0.626	0.204
-187.144	-26.929	-0.264	0.200
-186.129	90.209	-0.255	0.370
-185.114	-42.295	-0.045	-0.030
-184.100	112.086	0.173	-0.271
-183.085	170.067	0.144	-0.267
-182.071	800.000	0.093	0.349
-181.056	-60.091	-0.106	0.058
-180.042	-200.000	-0.026	-0.410
-179.027	67.887	0.474	-0.629
-178.012	-200.000	-0.039	-0.328
-176.998	-59.433	-0.336	0.187
-175.983	-64.547	0.333	0.175
-174.969	380.748	-0.130	-0.347
-173.954	37.804	0.273	-0.315
-172.939	226.261	0.141	0.298
-171.925	-200.000	-0.030	0.359
-170.910	12.346	-0.286	0.285
-169.896	-22.478	0.171	-0.134
-168.881	-46.725	0.181	0.115
-167.866	227.083	-0.154	0.326
-166.852	549.945	0.084	0.262
-165.837	230.270	-0.104	-0.220
-164.823	111.819	-0.144	-0.226
-163.808	-200.000	-0.012	0.255
-162.793	-116.605	-0.363	-0.086
-161.779	-17.302	0.224	-0.182
-160.764	-85.356	-0.267	0.107
-159.750	530.281	-0.083	-0.256
-158.735	-200.000	-0.035	-0.344
-157.720	-200.000	0.083	-0.656
-156.706	180.603	-0.126	0.241
-155.691	233.042	0.203	-0.434
-154.677	82.506	-0.248	-0.348
-153.662	-120.224	-0.200	0.044
-152.647	118.711	0.173	-0.277
-151.633	567.329	0.047	0.148
-150.618	-135.074	0.295	0.046
-149.604	-62.108	-0.216	-0.116
-148.589	-123.858	-0.349	0.071
-147.574	-200.000	0.016	-0.205
-146.560	-200.000	-0.013	-0.293
-145.545	-126.085	0.597	-0.115
-144.531	800.000	-0.046	-0.237
-143.516	-50.222	-0.265	0.162
-142.502	-42.154	-0.200	-0.132
-141.487	-80.790	0.120	-0.052
-140.472	417.180	-0.108	-0.300
-139.458	-34.071	-0.414	0.294
-138.443	0.178	-0.335	0.309
-137.429	-8.515	0.368	0.320
-136.414	-200.000	0.003	-0.034
-135.399	-119.561	-0.037	-0.008
-134.385	800.000	0.021	-0.091
-133.370	-45.233	0.634	-0.406
-132.356	191.668	0.118	0.231
-131.341	-123.830	-0.264	0.053
-130.326	-200.000	0.009	-0.364
-129.312	115.907	0.121	0.192
-128.297	-160.550	0.045	-0.003
-127.283	-67.120	-0.103	0.052
-126.268	180.369	-0.118	0.225
-125.253	358.399	-0.199	0.516
-124.239	-200.000	0.036	0.217
-123.224	14.451	0.274	0.276
-122.210	-25.685	-0.249	0.190
-121.195	-63.539	0.314	0.166
-120.180	-200.000	0.010	0.142
-119.166	38.698	0.267	0.308
-118.151	800.000	0.085	0.403
-117.137	184.113	0.239	0.458
-116.122	188.071	0.077	-0.148
-115.107	-121.848	-0.086	-0.018
-114.093	-148.024	0.454	0.048
-113.078	727.462	0.089	0.307
-112.064	800.000	0.029	0.143
-111.049	115.935	0.111	0.176
-110.034	89.141	-0.339	0.489
-109.020	589.568	0.119	-0.382
-108.005	-26.074	-0.304	-0.231
-106.991	-42.610	0.427	0.280
-105.976	1.835	-0.331	0.308
-104.962	11.060	-0.165	-0.163
-103.947	-126.720	-0.116	0.022
-102.932	-3.596	0.396	-0.356
-101.918	-105.407	-0.446	-0.130
-100.903	-200.000	-0.017	-0.444
-99.889	388.442	0.180	0.484
-98.874	-200.000	-0.003	0.599
-97.859	86.001	-0.195	-0.278
-96.845	-1.873	0.334	-0.303
-95.830	800.000	0.127	0.553
-94.816	-118.612	-0.341	-0.077
-93.801	140.683	-0.234	-0.400
-92.786	-44.238	0.404	0.261
-91.772	800.000	-0.065	0.245
-90.757	596.040	0.122	0.393
-89.743	-10.959	-0.064	-0.054
-88.728	-147.843	0.164	0.017
-87.713	-66.597	-0.315	0.160
-86.699	-119.652	0.220	0.049
-85.684	84.131	-0.360	0.509
-84.670	98.720	0.155	-0.231
-83.655	800.000	-0.109	0.448
-82.640	-200.000	0.016	0.317
-81.626	-90.456	-0.181	-0.067
-80.611	65.804	0.205	-0.269
-79.597	53.987	0.177	-0.220
-78.582	126.934	-0.133	-0.218
-77.567	-200.000	-0.023	-0.402
-76.553	-200.000	-0.006	0.152
-75.538	-32.811	-0.354	0.254
-74.524	-53.216	-0.271	-0.160
-73.509	-200.000	-0.023	-0.357
-72.494	151.616	0.157	0.276
-71.480	176.210	-0.246	0.462
-70.465	-164.298	-0.192	-0.011
-69.451	-21.541	0.139	-0.109
-68.436	525.896	-0.122	0.374
-67.422	800.000	-0.034	-0.135
-66.407	185.216	0.075	-0.144
-65.392	-22.899	0.299	-0.233
-64.378	-88.959	0.183	-0.070
-63.363	-174.752	0.240	0.009
-62.349	-33.135	-0.336	-0.239
-61.334	22.999	-2.001	-2.117
-60.319	94.921	1.048	1.541
-59.305	227.394	-3.592	-7.558
-58.290	62.304	3.827	4.931
-57.276	292.372	4.181	9.866
-56.261	-200.000	20.859	313.151
-55.246	373.345	1279.479	3371.332
-54.232	52.692	2860.775	3527.806
-53.217	63.044	2700.434	3490.649
-52.203	34.443	2430.636	2736.942
-51.188	34.332	2090.373	2352.320
-50.173	30.678	1973.379	2177.679
-49.159	29.347	1963.136	2150.703
-48.144	28.842	1959.408	2140.618
-47.130	28.869	1956.615	2137.799
-46.115	28.844	1955.928	2136.665
-45.100	28.882	1952.680	2133.483
-44.086	28.835	1952.675	2132.847
-43.071	28.750	1951.177	2130.135
-42.057	28.679	1950.320	2128.279
-41.042	28.628	1948.815	2125.959
-40.027	28.674	1947.200	2124.656
-39.013	28.737	1945.315	2123.239
-37.998	28.685	1944.248	2121.389
-36.984	28.844	1942.862	2121.639
-35.969	28.678	1941.261	2117.879
-34.954	28.595	1940.504	2116.014
-33.940	28.587	1939.088	2114.285
-32.925	28.605	1938.291	2113.548
-31.911	28.605	1937.211	2112.278
-30.896	28.522	1935.521	2109.398
-29.881	28.454	1934.308	2107.209
-28.867	28.725	1931.635	2107.335
-27.852	28.436	1931.615	2103.895
-26.838	28.639	1929.044	2103.348
-25.823	28.615	1927.976	2101.826
-24.809	28.489	1926.698	2098.905
-23.794	28.524	1925.253	2097.643
-22.779	28.436	1924.598	2095.841
-21.765	28.295	1923.527	2092.964
-20.750	28.610	1921.402	2094.181
-19.736	28.533	1920.473	2092.208
-18.721	28.533	1918.844	2090.347
-17.706	28.336	1918.635	2087.782
-16.692	28.358	1917.458	2086.669
-15.677	28.462	1915.532	2085.684
-14.663	28.488	1914.129	2084.373
-13.648	28.376	1913.067	2081.853
-12.633	28.379	1911.132	2079.698
-11.619	28.467	1910.192	2079.597
-10.604	28.339	1909.135	2076.905
-9.590	28.384	1907.648	2075.716
-8.575	28.378	1906.919	2074.770
-7.560	28.332	1905.924	2073.077
-6.546	28.432	1903.453	2071.452
-5.531	28.348	1903.312	2070.256
-4.517	28.398	1902.356	2069.702
-3.502	28.268	1901.709	2067.439
-2.487	28.444	1899.218	2066.643
-1.473	28.456	1895.035	2062.152
-0.458	27.865	1877.010	2035.833
0.556	24.222	2023.209	2137.673
1.571	22.861	2231.211	2339.054
2.586	23.730	2272.057	2393.371
3.600	23.802	2275.424	2397.600
4.615	23.941	2275.102	2398.856
5.629	23.987	2272.826	2396.796
6.644	23.890	2272.040	2394.370
7.659	24.011	2269.971	2393.541
8.673	23.976	2267.363	2390.034
9.688	23.530	2274.739	2391.469
10.702	22.010	2354.526	2453.726
11.717	20.812	2421.992	2506.401
12.731	11.684	2397.067	2349.051
13.746	2.245	2370.013	2186.981
14.761	0.518	2364.764	2157.084
15.775	0.215	2363.779	2151.576
16.790	0.264	2360.684	2149.193
17.804	0.137	2359.997	2146.497
18.819	0.212	2359.044	2146.448
19.834	0.158	2357.982	2144.448
20.848	0.208	2355.714	2142.841
21.863	0.153	2354.217	2140.435
22.877	0.177	2352.901	2139.335
23.892	0.152	2349.854	2135.949
24.907	0.232	2346.875	2134.121
25.921	0.295	2345.885	2133.868
26.936	0.186	2344.798	2131.065
27.950	0.335	2341.689	2130.100
28.965	0.188	2340.287	2126.486
29.980	0.217	2337.690	2124.293
30.994	0.260	2335.300	2122.467
32.009	5.501	2353.163	2213.092
33.023	17.497	2387.613	2417.380
34.038	22.534	2398.192	2499.825
35.053	23.223	2396.877	2507.970
36.067	23.192	2393.980	2504.204
37.082	23.023	2393.502	2500.998
38.096	23.205	2391.876	2501.584
39.111	23.640	2390.475	2505.998
40.126	23.728	2389.907	2506.344
41.140	23.871	2388.055	2506.125
42.155	23.641	2385.661	2500.060
43.169	23.692	2382.986	2497.683
44.184	23.717	2380.459	2495.081
45.199	23.655	2378.433	2491.786
46.213	23.613	2376.937	2489.329
47.228	23.670	2376.808	2489.706
48.242	23.650	2374.604	2486.811
49.257	23.879	2371.597	2486.584
50.271	23.882	2370.249	2484.925
51.286	23.798	2367.334	2480.388
52.301	23.667	2366.461	2477.340
53.315	23.614	2365.396	2475.180
54.330	23.812	2365.858	2478.146
55.344	23.975	2361.989	2476.081
56.359	23.895	2358.822	2471.340
57.374	23.886	2356.719	2468.717
58.388	23.875	2354.081	2465.506
59.403	24.078	2350.756	2464.557
60.417	24.214	2347.250	2462.473
61.432	24.227	2346.419	2461.487
62.447	24.242	2344.993	2459.909
63.461	24.199	2343.424	2457.366
64.476	24.239	2341.086	2455.174
65.490	24.382	2340.997	2456.764
66.505	24.524	2340.091	2457.491
67.520	24.106	2338.505	2449.749
68.534	23.538	2335.164	2438.105
69.549	23.537	2330.727	2433.167
70.563	23.666	2328.458	2432.292
71.578	23.544	2327.075	2428.878
72.593	23.705	2324.902	2428.524
73.607	23.732	2324.393	2428.079
74.622	23.729	2322.713	2425.985
75.636	23.554	2319.231	2419.659
76.651	23.593	2316.034	2416.580
77.666	23.476	2315.601	2414.235
78.680	23.653	2313.470	2414.135
79.695	23.825	2310.890	2413.507
80.709	23.867	2310.379	2413.262
81.724	23.994	2308.602	2412.841
82.739	23.891	2305.772	2408.194
83.753	23.640	2303.782	2402.415
84.768	23.573	2301.567	2398.906
85.782	23.369	2300.839	2395.084
86.797	23.531	2298.287	2394.340
87.812	23.492	2297.018	2392.205
88.826	23.472	2294.118	2388.629
89.841	23.678	2291.518	2388.429
90.855	23.576	2290.506	2385.700
91.870	23.467	2288.921	2382.300
92.884	23.543	2286.808	2380.839
93.899	23.639	2287.720	2382.798
94.914	23.542	2286.131	2379.552
95.928	23.649	2286.809	2381.411
96.943	23.700	2283.794	2378.669
97.957	23.506	2280.868	2372.728
98.972	23.501	2278.312	2369.727
99.987	23.508	2274.218	2365.278
101.001	23.338	2272.963	2361.406
102.016	23.434	2270.775	2360.135
103.030	23.529	2268.913	2359.192
104.045	23.587	2267.191	2357.891
105.060	23.740	2265.188	2357.565
106.074	23.681	2262.768	2353.978
107.089	23.647	2260.744	2351.142
108.103	23.710	2260.514	2351.457
109.118	23.716	2258.165	2348.807
110.133	23.955	2256.265	2349.732
111.147	23.779	2255.665	2346.484
112.162	23.692	2254.535	2343.875
113.176	23.792	2250.735	2340.970
114.191	23.721	2249.584	2338.557
115.206	23.738	2247.443	2336.273
116.220	23.639	2245.413	2332.569
117.235	23.605	2243.696	2330.057
118.249	23.620	2241.585	2327.794
119.264	23.730	2239.764	2327.065
120.279	23.723	2239.527	2326.455
121.293	23.643	2236.873	2322.368
122.308	23.618	2235.303	2320.131
123.322	23.846	2234.325	2321.831
124.337	23.728	2233.487	2319.138
125.352	23.928	2233.357	2321.344
126.366	24.048	2232.041	2321.272
127.381	23.680	2227.632	2311.588
128.395	23.540	2224.723	2306.464
129.410	23.887	2222.348	2308.255
130.424	23.816	2219.843	2304.461
131.439	23.553	2218.702	2299.568
132.454	23.497	2217.734	2297.562
133.468	23.592	2214.975	2295.661
134.483	23.763	2212.865	2295.425
135.497	23.686	2212.032	2293.282
136.512	23.749	2209.944	2291.659
137.527	23.707	2207.367	2288.175
138.541	23.543	2206.476	2284.854
139.556	23.442	2205.960	2282.734
140.570	23.473	2204.217	2281.057
141.585	23.640	2202.092	2280.743
142.600	23.679	2201.047	2279.892
143.614	23.617	2199.679	2277.401
144.629	23.659	2197.412	2275.326
145.643	23.659	2196.929	2274.556
146.658	23.729	2194.980	2273.167
147.673	23.674	2192.091	2269.187
148.687	23.745	2190.847	2268.543
149.702	23.634	2189.489	2265.438
150.716	23.522	2188.278	2262.478
151.731	23.571	2186.301	2260.796
152.746	23.648	2185.261	2260.435
153.760	23.484	2184.910	2257.696
154.775	23.608	2184.944	2259.056
155.789	23.589	2183.125	2256.660
156.804	23.419	2179.199	2250.157
157.819	23.397	2175.036	2245.317
158.833	23.443	2172.998	2243.522
159.848	23.682	2171.226	2244.465
160.862	23.703	2170.044	2243.247
161.877	23.653	2169.263	2241.537
162.892	23.693	2167.769	2240.225
163.906	23.805	2166.132	2239.685
164.921	23.805	2165.297	2238.558
165.935	23.773	2162.443	2234.929
166.950	23.801	2160.974	2233.495
167.964	23.802	2158.038	2230.212
168.979	23.697	2156.200	2226.715
169.994	23.773	2155.490	2226.674
171.008	23.798	2152.834	2223.978
172.023	23.614	2151.991	2220.535
173.037	23.655	2150.674	2219.427
174.052	23.788	2149.024	2219.121
175.067	23.606	2147.945	2215.458
176.081	23.516	2146.272	2212.343
177.096	23.655	2144.453	2211.937
178.110	23.440	2143.490	2207.988
179.125	23.585	2141.077	2207.053
180.140	23.686	2141.291	2208.268
181.154	23.693	2139.205	2205.940
182.169	23.618	2137.364	2202.847
183.183	23.553	2136.718	2201.103
184.198	23.831	2136.043	2203.615
185.213	23.795	2134.529	2201.334
186.227	23.527	2132.420	2195.563
187.242	23.551	2130.433	2193.553
188.256	23.576	2128.910	2192.033
189.271	23.497	2127.748	2189.595
190.286	23.534	2125.736	2187.725
191.300	23.513	2122.725	2184.107
192.315	23.501	2120.582	2181.489
193.329	23.674	2118.975	2181.712
194.344	23.727	2119.385	2182.524
195.359	23.822	2118.741	2182.771
196.373	23.810	2115.531	2179.053
197.388	23.742	2112.639	2174.981
198.402	23.474	2110.873	2169.608
199.417	23.508	2108.607	2167.433
200.432	23.580	2107.731	2167.157
201.446	23.556	2106.461	2165.297
202.461	23.616	2105.153	2164.432
203.475	23.528	2103.333	2161.229
204.490	23.613	2101.133	2159.749
205.504	23.600	2098.691	2156.819
206.519	23.540	2096.144	2153.212
207.534	23.524	2094.029	2150.589
208.548	23.504	2092.654	2148.666
209.563	23.590	2091.556	2148.340
210.577	23.415	2090.324	2144.684
211.592	23.456	2089.493	2144.070
212.607	23.549	2089.389	2144.837
213.621	23.558	2088.446	2143.727
214.636	23.768	2085.634	2143.122
215.650	23.432	2084.542	2137.680
216.665	23.407	2082.106	2134.615
217.680	23.398	2081.310	2133.442
218.694	23.444	2079.533	2131.921
219.709	23.630	2078.153	2132.491
220.723	23.814	2077.413	2133.699
221.738	23.792	2075.432	2131.141
222.753	23.784	2073.567	2128.878
223.767	23.770	2071.440	2126.272
224.782	23.521	2069.791	2121.327
225.796	23.565	2068.557	2120.347
226.811	23.732	2067.547	2121.055
227.826	23.841	2065.828	2120.342
228.840	23.826	2064.198	2118.241
229.855	23.801	2062.527	2115.970
230.869	23.860	2061.108	2114.969
231.884	23.663	2059.317	2110.523
232.899	23.527	2057.068	2106.343
233.913	23.486	2056.780	2105.309
234.928	23.659	2055.103	2105.403
235.942	23.667	2054.245	2104.363
236.957	23.631	2052.485	2101.886
237.972	23.650	2050.714	2100.041
238.986	23.632	2050.132	2098.981
240.001	23.764	2048.282	2098.398
241.015	23.703	2046.003	2095.089
242.030	23.771	2045.677	2095.316
243.045	23.886	2045.294	2096.038
244.059	23.939	2044.376	2095.472
245.074	23.731	2040.314	2088.603
246.088	23.693	2037.798	2085.319
247.103	23.731	2036.346	2084.033
248.117	23.710	2034.674	2081.827
249.132	23.741	2033.332	2080.571
250.147	23.577	2031.594	2076.618
251.161	23.629	2029.483	2074.823
252.176	23.779	2028.743	2075.575
253.190	23.780	2026.536	2073.087
254.205	23.711	2024.461	2069.902
255.220	23.735	2023.341	2068.791
256.234	23.871	2022.961	2069.751
257.249	23.712	2021.698	2066.353
258.263	23.775	2019.954	2065.057
259.278	23.618	2019.589	2062.595
260.293	23.605	2017.369	2059.929
261.307	23.794	2014.671	2059.130
262.322	23.629	2012.950	2055.205
263.336	23.474	2011.223	2051.393
264.351	23.602	2009.383	2050.758
265.366	23.656	2007.887	2049.612
266.380	23.708	2006.952	2049.014
267.395	23.509	2005.540	2045.031
268.409	23.432	2002.745	2041.040
269.424	23.531	2001.524	2040.698
270.439	23.588	2001.730	2041.318
271.453	23.720	2000.309	2041.155
272.468	23.862	1998.503	2040.703
273.482	23.855	1997.541	2039.394
274.497	23.625	1994.341	2033.232
275.512	23.453	1992.316	2028.951
276.526	23.585	1990.421	2028.300
277.541	23.712	1987.172	2026.200
278.555	23.540	1986.436	2023.236
279.570	23.431	1984.185	2019.446
280.585	23.402	1984.015	2018.709
281.599	23.476	1982.471	2017.732
282.614	23.542	1980.059	2015.791
283.628	23.442	1979.609	2013.949
284.643	23.619	1978.276	2014.380
285.657	23.685	1977.193	2013.784
286.672	23.553	1975.577	2010.391
287.687	23.533	1973.117	2007.421
288.701	23.411	1971.642	2004.296
289.716	23.358	1970.993	2002.791
290.730	23.418	1969.774	2001.991
291.745	23.428	1967.253	1999.308
292.760	23.449	1967.325	1999.375
293.774	23.629	1966.585	2000.430
294.789	23.747	1965.121	2000.029
295.803	23.580	1963.431	1996.189
296.818	23.538	1962.385	1994.406
297.833	23.786	1960.471	1995.023
298.847	23.837	1958.858	1993.715
299.862	23.755	1958.349	1992.040
300.876	23.702	1956.872	1989.704
301.891	23.857	1955.667	1989.978
302.906	24.003	1954.654	1990.351
303.920	23.749	1952.574	1985.150
304.935	23.692	1949.780	1981.423
305.949	23.619	1947.629	1978.187
306.964	23.884	1946.842	1980.119
307.979	23.809	1944.770	1976.932
308.993	23.693	1942.612	1973.207
310.008	23.631	1940.926	1970.571
311.022	23.729	1939.761	1970.243
312.037	23.562	1938.222	1966.581
313.052	23.480	1936.308	1963.497
314.066	23.339	1933.520	1958.858
315.081	23.164	1933.069	1956.225
316.095	23.164	1931.950	1954.858
317.110	23.198	1930.786	1953.821
318.125	23.377	1929.786	1954.563
319.139	23.612	1928.572	1955.700
320.154	23.686	1926.436	1954.128
321.168	23.662	1925.491	1952.669
322.183	23.626	1924.116	1950.640
323.197	23.684	1922.636	1949.547
324.212	23.689	1920.542	1947.249
325.227	23.615	1919.595	1945.235
326.241	23.518	1917.458	1941.769
327.256	23.528	1916.211	1940.388
328.270	23.645	1915.280	1940.498
329.285	23.580	1915.614	1939.885
330.300	23.453	1916.200	1938.857
331.314	23.736	1914.460	1939.963
332.329	23.826	1911.773	1938.004
333.343	23.548	1909.419	1932.339
334.358	23.579	1908.108	1931.120
335.373	23.639	1906.098	1929.510
336.387	23.571	1904.146	1926.558
337.402	23.450	1902.938	1923.789
338.416	23.583	1900.365	1922.406
339.431	23.664	1899.695	1922.373
340.446	23.836	1897.471	1921.767
341.460	23.783	1896.074	1919.545
342.475	23.722	1894.503	1917.064
343.489	23.576	1893.548	1914.284
344.504	23.605	1892.617	1913.434
345.519	23.573	1889.753	1909.961
346.533	23.599	1887.323	1907.551
347.548	23.620	1886.491	1906.711
348.562	23.808	1885.374	1907.386
349.577	23.618	1885.490	1905.225
350.592	23.639	1883.409	1903.116
351.606	23.546	1882.196	1900.666
352.621	23.694	1879.938	1899.747
353.635	23.431	1878.754	1895.493
354.650	23.408	1877.912	1894.176
355.665	23.549	1876.309	1893.840
356.679	23.716	1875.765	1894.861
357.694	23.700	1873.375	1892.048
358.708	23.657	1872.106	1890.079
359.723	23.787	1872.936	1892.083
360.738	23.957	1871.298	1892.019
361.752	23.731	1869.894	1887.953
362.767	23.648	1867.117	1884.039
363.781	23.416	1864.751	1878.961
364.796	23.390	1863.254	1876.951
365.810	23.402	1861.545	1875.133
366.825	23.332	1861.416	1874.030
367.840	23.545	1860.810	1875.458
368.854	23.683	1858.887	1874.757
369.869	23.588	1858.239	1872.875
370.883	23.652	1856.825	1871.899
371.898	23.483	1854.570	1867.618
372.913	23.485	1853.540	1866.376
373.927	23.600	1852.608	1866.433
374.942	23.706	1850.580	1865.289
375.956	23.697	1849.057	1863.432
376.971	23.499	1846.818	1858.863
377.986	23.367	1845.679	1856.104
379.000	23.636	1844.866	1857.901
380.015	23.841	1843.676	1858.632
381.029	23.845	1841.776	1856.536
382.044	23.833	1839.807	1854.200
383.059	23.807	1838.664	1852.558
384.073	23.830	1837.172	1851.073
385.088	23.518	1835.335	1845.736
386.102	23.531	1833.803	1844.108
387.117	23.632	1832.972	1844.112
388.132	23.759	1832.035	1844.271
389.146	23.627	1833.035	1843.675
390.161	23.804	1831.259	1843.515
391.175	23.671	1828.169	1838.802
392.190	23.686	1824.346	1834.891
393.205	23.651	1822.591	1832.543
394.219	23.645	1821.171	1830.838
395.234	23.577	1820.378	1829.118
396.248	23.615	1818.048	1826.947
397.263	23.764	1815.906	1826.114
398.278	23.534	1814.151	1821.755
399.292	23.604	1813.079	1821.182
400.307	23.722	1813.432	1822.537
401.321	23.654	1811.233	1819.409
402.336	23.349	1809.349	1814.165
403.350	23.319	1808.079	1812.359
404.365	23.456	1807.556	1813.030
405.380	23.752	1806.287	1814.582
406.394	23.695	1805.297	1812.779
407.409	23.593	1803.663	1809.885
408.423	23.532	1801.485	1806.850
409.438	23.470	1799.383	1803.890
410.453	23.598	1798.655	1804.259
411.467	23.742	1798.295	1805.156
412.482	23.710	1797.685	1803.998
413.496	23.607	1795.890	1800.930
414.511	23.587	1793.625	1798.240
415.526	23.664	1792.133	1797.312
416.540	23.763	1790.592	1796.554
417.555	23.744	1789.363	1794.917
418.569	23.604	1789.331	1793.244
419.584	23.629	1788.998	1792.950
420.599	23.604	1788.616	1792.098
421.613	23.518	1786.725	1789.116
422.628	23.545	1786.124	1788.579
423.642	23.696	1784.257	1788.019
424.657	23.638	1782.860	1785.817
425.672	23.447	1780.751	1781.562
426.686	23.550	1779.902	1781.544
427.701	23.695	1778.318	1781.206
428.715	23.729	1776.713	1779.725
429.730	23.745	1775.029	1777.992
430.745	23.755	1773.705	1776.552
431.759	23.383	1773.234	1772.127
432.774	23.024	1770.435	1765.515
433.788	22.592	1768.281	1758.819
434.803	22.315	1768.257	1755.809
435.818	22.288	1767.430	1754.510
436.832	22.365	1766.528	1754.177
437.847	21.193	1758.262	1734.066
438.861	11.755	1734.142	1616.721
439.876	2.177	1715.657	1504.803
440.890	0.508	1711.723	1484.673
441.905	0.301	1709.921	1480.893
442.920	0.223	1708.553	1478.755
443.934	0.167	1707.151	1476.818
444.949	0.248	1705.350	1475.877
445.963	0.341	1704.409	1475.806
446.978	0.246	1703.864	1474.219
447.993	0.253	1702.087	1472.576
449.007	0.286	1700.126	1471.030
450.022	0.302	1698.173	1469.318
451.036	0.422	1697.659	1469.875
452.051	1.677	1700.463	1484.429
453.066	8.707	1720.651	1571.416
454.080	19.109	1738.715	1690.941
455.095	22.594	1744.018	1730.352
456.109	23.669	1745.799	1742.525
457.124	23.923	1745.439	1744.458
458.139	23.781	1743.829	1741.243
459.153	23.644	1742.807	1738.668
460.168	23.715	1739.694	1736.045
461.182	23.644	1737.946	1733.403
462.197	23.665	1736.206	1731.660
463.212	23.580	1735.132	1729.550
464.226	23.630	1733.287	1727.990
465.241	23.692	1732.967	1728.072
466.255	23.738	1732.226	1727.581
467.270	23.800	1731.517	1727.268
468.285	23.551	1729.474	1722.597
469.299	23.600	1727.901	1721.298
470.314	23.678	1726.272	1720.229
471.328	23.695	1725.113	1719.040
472.343	23.778	1724.017	1718.541
473.358	23.773	1722.407	1716.691
474.372	23.852	1721.039	1715.884
475.387	23.988	1719.969	1715.926
476.401	23.785	1718.916	1712.710
477.416	23.635	1718.334	1710.470
478.430	23.902	1717.091	1711.614
479.445	23.896	1715.155	1709.421
480.460	23.839	1713.516	1707.027
481.474	23.798	1712.693	1705.608
482.489	23.992	1711.776	1706.368
483.503	23.788	1710.202	1702.629
484.518	23.874	1709.259	1702.310
485.533	23.886	1707.465	1700.437
486.547	24.049	1705.705	1700.039
487.562	24.123	1704.391	1699.242
488.576	24.121	1703.202	1697.836
489.591	24.100	1702.575	1696.802
490.606	24.145	1701.091	1695.554
491.620	23.999	1699.125	1691.993
492.635	24.081	1697.543	1691.003
493.649	24.038	1695.962	1688.810
494.664	23.713	1694.883	1684.439
495.679	23.685	1693.306	1682.399
496.693	23.667	1692.193	1680.926
497.708	23.702	1691.444	1680.311
498.722	23.782	1690.492	1679.928
499.737	23.817	1688.843	1678.413
500.752	23.735	1686.561	1675.167
501.766	23.799	1685.386	1674.406
502.781	23.768	1684.233	1672.768
503.795	23.747	1682.914	1671.063
504.810	23.727	1681.678	1669.449
505.825	23.821	1680.946	1669.410
506.839	23.881	1679.617	1668.457
507.854	23.874	1678.166	1666.746
508.868	23.867	1676.131	1664.463
509.883	23.682	1675.886	1662.279
510.898	23.853	1674.391	1662.203
511.912	23.660	1672.650	1658.466
512.927	23.543	1671.047	1655.577
513.941	23.649	1669.615	1654.950
514.956	23.948	1669.280	1657.225
515.971	24.176	1667.703	1657.594
516.985	24.172	1666.682	1656.341
518.000	23.934	1666.554	1653.790
519.014	23.851	1665.200	1651.478
520.029	23.856	1662.968	1649.112
521.043	23.895	1661.657	1647.973
522.058	23.746	1659.982	1644.730
523.073	23.891	1659.375	1645.280
524.087	23.884	1658.662	1644.316
525.102	23.848	1657.374	1642.502
526.116	23.662	1656.095	1639.314
527.131	23.733	1654.865	1638.555
528.146	23.882	1654.018	1638.906
529.160	23.918	1652.593	1637.627
530.175	23.972	1651.814	1637.158
531.189	23.975	1650.323	1635.517
532.204	23.975	1648.995	1634.008
533.219	23.905	1647.301	1631.481
534.233	23.632	1647.309	1628.780
535.248	23.859	1645.792	1629.175
536.262	23.923	1645.209	1628.991
537.277	24.089	1644.164	1629.293
538.292	24.213	1641.729	1627.816
539.306	24.155	1640.191	1625.568
540.321	24.197	1638.594	1624.175
541.335	24.068	1637.051	1621.270
542.350	24.107	1635.720	1620.115
543.365	24.119	1634.643	1618.963
544.379	24.085	1633.817	1617.639
545.394	24.203	1632.627	1617.351
546.408	24.114	1630.579	1614.314
547.423	23.787	1629.406	1609.978
548.438	23.700	1628.272	1607.877
549.452	23.899	1626.837	1608.076
550.467	23.918	1625.849	1607.083
551.481	23.807	1624.788	1604.832
552.496	23.953	1624.215	1605.395
553.511	24.083	1622.711	1604.894
554.525	23.992	1621.280	1602.465
555.540	23.930	1620.891	1601.332
556.554	23.870	1619.799	1599.518
557.569	24.022	1617.844	1598.762
558.583	24.016	1615.780	1596.480
559.598	24.035	1614.444	1595.139
560.613	23.945	1614.593	1594.283
561.627	24.022	1612.795	1593.012
562.642	23.859	1611.271	1589.856
563.656	23.916	1609.707	1588.626
564.671	23.775	1609.332	1586.807
565.686	23.770	1608.736	1585.978
566.700	23.805	1607.247	1584.640
567.715	24.036	1605.212	1584.507
568.729	24.000	1604.655	1583.446
569.744	24.223	1602.412	1583.034
570.759	24.242	1601.536	1582.153
571.773	24.211	1600.153	1580.317
572.788	24.122	1599.400	1578.596
573.802	23.983	1597.697	1575.482
574.817	23.903	1596.315	1573.221
575.832	23.821	1594.842	1570.852
576.846	23.955	1594.027	1571.054
577.861	23.868	1592.578	1568.663
578.875	23.817	1592.487	1567.933
579.890	24.134	1590.500	1568.600
580.905	23.997	1589.145	1565.864
581.919	24.086	1589.021	1566.340
582.934	24.175	1588.428	1566.353
583.948	24.122	1586.664	1563.958
584.963	24.013	1585.344	1561.514
585.978	23.923	1584.074	1559.280
586.992	23.948	1583.590	1558.837
588.007	24.218	1582.586	1560.039
589.021	24.117	1580.854	1557.254
590.036	23.935	1579.603	1554.242
591.051	24.030	1578.800	1554.098
592.065	24.286	1576.576	1553.962
593.080	24.330	1575.474	1553.080
594.094	24.278	1573.916	1550.904
595.109	24.120	1571.661	1547.115
596.123	23.981	1570.046	1544.125
597.138	24.044	1569.642	1544.093
598.153	23.944	1568.996	1542.402
599.167	23.995	1566.927	1540.627
600.182	24.037	1565.593	1539.499
601.196	24.113	1564.828	1539.224
602.211	24.084	1564.461	1538.422
603.226	24.036	1563.124	1536.507
604.240	24.095	1561.372	1535.109
605.255	23.891	1560.685	1532.483
606.269	23.977	1559.676	1532.053
607.284	23.932	1558.476	1530.309
608.299	23.876	1556.866	1528.060
609.313	24.051	1555.770	1528.313
610.328	24.080	1554.882	1527.501
611.342	24.054	1553.149	1525.395
612.357	24.090	1551.806	1524.206
613.372	24.160	1550.878	1523.709
614.386	23.988	1549.525	1520.724
615.401	23.971	1549.096	1519.973
616.415	24.055	1548.156	1519.586
617.430	23.954	1547.545	1517.943
618.445	24.085	1545.608	1516.981
619.459	24.107	1544.470	1515.872
620.474	24.060	1543.743	1514.574
621.488	24.097	1543.446	1514.419
622.503	24.338	1541.891	1514.767
623.518	24.326	1540.222	1512.848
624.532	24.172	1539.150	1510.302
625.547	24.128	1537.843	1508.463
626.561	24.039	1537.081	1506.778
627.576	23.969	1536.357	1505.295
628.591	24.053	1535.421	1504.912
629.605	24.231	1533.904	1504.753
630.620	24.465	1532.560	1505.236
631.634	24.319	1532.000	1503.270
632.649	24.615	1530.544	1504.164
633.663	24.547	1529.191	1502.078
634.678	24.310	1527.858	1498.592
635.693	24.238	1525.615	1495.605
636.707	24.059	1524.186	1492.514
637.722	23.991	1523.151	1490.751
638.736	24.001	1522.237	1489.762
639.751	24.143	1521.090	1489.657
640.766	24.024	1519.525	1486.946
641.780	24.064	1517.867	1485.479
642.795	24.097	1517.185	1484.909
643.809	24.140	1517.283	1485.188
644.824	24.040	1516.314	1483.223
645.839	24.045	1516.015	1482.795
646.853	24.076	1514.183	1481.089
647.868	24.133	1512.435	1479.672
648.882	24.143	1510.984	1478.162
649.897	24.061	1509.891	1476.232
650.912	24.083	1508.354	1474.734
651.926	24.308	1506.593	1474.709
652.941	24.105	1506.215	1472.479
653.955	24.051	1504.900	1470.568
654.970	24.093	1502.580	1468.467
655.985	24.015	1501.194	1466.295
656.999	23.881	1500.425	1464.256
658.014	23.913	1499.012	1462.970
659.028	24.057	1498.450	1463.434
660.043	24.248	1497.838	1464.241
661.058	24.298	1495.728	1462.413
662.072	24.179	1495.134	1460.675
663.087	24.149	1494.375	1459.510
664.101	24.107	1493.075	1457.724
665.116	24.072	1491.191	1455.421
666.131	24.060	1490.778	1454.751
667.145	23.972	1490.102	1453.192
668.160	24.166	1487.857	1452.417
669.174	24.023	1486.701	1449.947
670.189	23.888	1486.076	1448.059
671.204	24.029	1486.004	1448.966
672.218	23.960	1485.037	1447.290
673.233	23.989	1483.262	1445.615
674.247	24.031	1481.799	1444.366
675.262	23.995	1481.314	1443.427
676.276	23.899	1480.186	1441.370
677.291	24.049	1479.119	1441.378
678.306	24.011	1477.724	1439.539
679.320	23.971	1476.349	1437.702
680.335	23.897	1476.441	1437.022
681.349	23.905	1475.530	1436.021
682.364	24.056	1474.185	1435.765
683.379	23.933	1472.711	1433.165
684.393	23.888	1471.831	1431.772
685.408	24.006	1470.260	1431.025
686.422	23.850	1469.795	1429.138
687.437	23.967	1468.249	1428.414
688.452	23.807	1467.763	1426.473
689.466	23.873	1465.991	1425.112
690.481	24.075	1464.584	1425.202
691.495	24.122	1464.523	1425.350
692.510	24.411	1463.541	1426.549
693.525	24.547	1461.468	1425.449
694.539	24.309	1460.788	1422.703
695.554	24.042	1459.628	1419.268
696.568	24.088	1457.865	1417.752
697.583	23.886	1457.257	1415.370
698.598	23.869	1456.340	1414.177
699.612	23.856	1455.215	1412.814
700.627	24.017	1453.856	1412.605
701.641	23.992	1452.472	1410.891
702.656	24.097	1451.081	1410.208
703.671	23.948	1450.979	1408.756
704.685	24.004	1450.825	1408.887
705.700	24.000	1449.325	1407.223
706.714	23.966	1447.492	1405.005
707.729	24.019	1446.517	1404.318
708.744	24.050	1445.239	1403.152
709.758	24.120	1443.698	1402.041
710.773	23.907	1442.009	1398.554
711.787	23.940	1441.352	1398.007
712.802	24.242	1439.634	1398.558
713.816	24.243	1438.949	1397.732
714.831	24.232	1438.021	1396.578
715.846	24.043	1437.394	1394.313
716.860	23.980	1436.056	1392.353
717.875	24.021	1434.904	1391.386
718.889	23.990	1434.011	1390.113
719.904	23.943	1432.906	1388.504
720.919	23.901	1431.545	1386.696
721.933	23.923	1431.284	1386.443
722.948	24.004	1429.861	1385.532
723.962	23.996	1428.168	1383.668
724.977	23.987	1426.527	1381.838
725.992	23.882	1426.028	1380.369
727.006	23.883	1424.981	1379.201
728.021	23.866	1423.801	1377.758
729.035	23.844	1421.897	1375.584
730.050	24.079	1421.031	1376.410
731.065	23.915	1420.712	1374.655
732.079	23.828	1419.629	1372.770
733.094	23.798	1418.068	1370.861
734.108	23.910	1417.066	1370.604
735.123	23.759	1415.946	1368.183
736.138	23.915	1414.507	1367.836
737.152	23.978	1413.142	1366.837
738.167	23.907	1412.427	1365.437
739.181	23.926	1410.924	1363.967
740.196	23.864	1409.971	1362.400
741.211	23.805	1409.487	1361.320
742.225	23.877	1408.763	1361.013
743.240	23.780	1408.215	1359.569
744.254	23.788	1406.568	1357.880
745.269	23.709	1404.879	1355.481
746.284	23.818	1404.075	1355.381
747.298	23.961	1403.281	1355.542
748.313	24.136	1402.679	1356.139
749.327	24.189	1402.487	1356.201
750.342	24.259	1401.807	1355.917
751.356	24.418	1400.874	1356.063
752.371	24.246	1399.217	1352.988
753.386	23.994	1397.574	1349.315
754.400	23.893	1396.158	1347.013
755.415	23.792	1394.873	1344.846
756.429	23.873	1393.543	1344.021
757.444	23.869	1392.661	1342.979
758.459	23.726	1392.137	1341.230
759.473	23.781	1390.659	1340.057
760.488	23.947	1388.954	1339.512
761.502	23.857	1387.826	1337.584
762.517	23.932	1386.719	1336.924
763.532	23.861	1385.955	1335.488
764.546	23.952	1384.575	1334.690
765.561	23.964	1384.197	1334.256
766.575	23.704	1383.193	1331.170
767.590	23.738	1382.473	1330.573
768.605	24.017	1381.435	1331.514
769.619	24.070	1380.105	1330.467
770.634	24.028	1378.429	1328.376
771.648	23.941	1376.723	1325.923
772.663	23.773	1376.209	1324.014
773.678	23.803	1375.652	1323.544
774.692	23.796	1374.894	1322.600
775.707	23.816	1374.601	1322.308
776.721	23.873	1373.432	1321.454
777.736	23.869	1371.615	1319.517
778.751	23.767	1371.067	1318.071
779.765	23.783	1369.988	1316.997
780.780	23.655	1369.586	1315.498
781.794	23.818	1368.000	1315.026
782.809	23.717	1367.041	1313.198
783.824	23.616	1366.370	1311.650
784.838	23.762	1365.718	1311.951
785.853	24.067	1365.207	1313.564
786.867	24.075	1364.607	1312.886
787.882	24.032	1363.342	1311.196
788.897	24.010	1361.848	1309.441
789.911	23.790	1360.268	1306.141
790.926	23.644	1359.544	1304.206
791.940	23.780	1357.128	1302.734
792.955	23.666	1356.044	1300.702
793.969	23.759	1354.634	1299.878
794.984	23.654	1355.002	1299.302
795.999	23.606	1354.165	1297.988
797.013	23.778	1351.533	1296.576
798.028	23.825	1349.857	1295.157
799.042	23.733	1349.756	1294.229
800.057	23.733	1348.757	1293.115
801.072	23.548	1347.960	1290.846
802.086	23.510	1346.969	1289.464
803.101	23.674	1345.278	1288.888
804.115	23.472	1345.067	1287.059
805.130	23.554	1343.758	1286.250
806.145	23.599	1342.554	1285.267
807.159	23.680	1340.444	1283.687
808.174	23.795	1339.754	1283.706
809.188	23.913	1338.652	1283.352
810.203	23.844	1336.882	1281.002
811.218	23.837	1335.667	1279.631
812.232	23.817	1334.343	1278.068
813.247	23.799	1333.497	1276.971
814.261	23.870	1333.316	1277.162
815.276	23.913	1331.759	1275.826
816.291	23.674	1330.760	1272.992
817.305	23.489	1330.145	1270.924
818.320	23.460	1328.473	1268.963
819.334	23.657	1327.320	1269.122
820.349	23.619	1325.599	1267.057
821.364	23.613	1323.968	1265.299
822.378	23.670	1322.512	1264.168
823.393	23.652	1320.967	1262.409
824.407	23.656	1320.305	1261.653
825.422	23.471	1320.274	1260.154
826.437	23.515	1319.317	1259.402
827.451	23.588	1317.642	1258.174
828.466	23.892	1317.020	1259.590
829.480	24.105	1315.724	1259.714
830.495	23.862	1313.898	1256.090
831.509	23.716	1312.756	1253.818
832.524	23.587	1311.329	1251.388
833.539	23.628	1309.814	1250.083
834.553	23.593	1308.315	1248.254
835.568	23.636	1307.704	1247.828
836.582	23.532	1307.010	1246.281
837.597	23.660	1305.393	1245.489
838.612	23.509	1304.324	1243.258
839.626	23.544	1303.166	1242.256
840.641	23.630	1302.518	1242.091
841.655	23.722	1301.449	1241.571
842.670	23.646	1301.207	1240.656
843.685	23.597	1299.978	1238.992
844.699	23.588	1298.167	1237.056
845.714	23.587	1296.508	1235.322
846.728	23.732	1295.562	1235.281
847.743	23.587	1294.510	1233.123
848.758	23.402	1293.202	1230.434
849.772	23.559	1291.939	1230.179
850.787	23.503	1290.662	1228.425
851.801	23.559	1289.801	1227.849
852.816	23.547	1288.893	1226.758
853.831	23.516	1287.147	1224.732
854.845	23.477	1285.485	1222.734
855.860	23.431	1284.152	1220.999
856.874	23.675	1282.588	1221.057
857.889	23.648	1282.592	1220.726
858.904	23.914	1281.323	1221.205
859.918	24.122	1279.791	1221.034
860.933	24.080	1278.465	1219.337
861.947	23.941	1277.528	1217.338
862.962	23.829	1276.411	1215.360
863.977	23.798	1274.591	1213.269
864.991	23.694	1273.797	1211.655
866.006	23.544	1272.976	1209.703
867.020	23.500	1271.896	1208.228
868.035	23.461	1270.854	1206.824
869.049	23.489	1270.185	1206.235
870.064	23.457	1269.061	1204.810
871.079	23.461	1268.548	1204.206
872.093	23.461	1268.182	1203.710
873.108	23.418	1266.318	1201.508
874.122	23.493	1265.077	1200.694
875.137	23.597	1265.381	1201.546
876.152	23.627	1264.000	1200.295
877.166	23.583	1261.673	1197.644
878.181	23.613	1260.121	1196.233
879.195	23.328	1260.213	1194.247
880.210	23.314	1259.577	1193.404
881.225	23.377	1258.750	1192.902
882.239	23.557	1257.185	1192.497
883.254	23.386	1256.097	1190.163
884.268	23.463	1255.341	1189.825
885.283	23.369	1254.274	1188.036
886.298	23.402	1252.403	1186.350
887.312	23.531	1251.350	1186.073
888.327	23.615	1250.243	1185.445
889.341	23.557	1248.906	1183.648
890.356	23.466	1248.469	1182.482
891.371	23.394	1248.745	1182.118
892.385	23.521	1247.981	1182.104
893.400	23.511	1246.852	1180.830
894.414	23.565	1245.316	1179.590
895.429	23.792	1244.321	1180.027
896.444	24.023	1243.226	1180.384
897.458	24.145	1242.424	1180.294
898.473	23.948	1241.834	1178.283
899.487	23.767	1240.375	1175.555
900.502	23.633	1238.395	1172.642
901.517	23.492	1237.738	1170.949
902.531	23.405	1236.435	1168.995
903.546	23.445	1235.767	1168.490
904.560	23.320	1234.658	1166.474
905.575	23.475	1233.177	1165.960
906.589	23.514	1231.848	1164.823
907.604	23.478	1232.273	1164.847
