DTS Sentinel unit serial number:	SN409020Multiplexer serial number:	ORYXHardware model number:	OX4-SRSoftware version number:	ORYX F/W v3.00 Oryx Data Collector v3.7.2.0data status	okinstallation	HaddamTimeLapsedifferential loss correction	single-endedforward channel	channel 3reverse channel	N/Adate	2011/06/22time	08:06:17forward acquisition time	30.00reverse acquisition time	0.00gamma	498.7831k internal	0.1768k external	0.1768temperature offset calibration	1.0074default loss term (dB/km)	0.3790temperature slope calibration	1.3530multiplexer offset coefficient	1.0000multiplexer slope coefficient	1.0000fibre end	0.00T internal ref (°C)	24.75T ext. ref 1 (°C)	22.81T ext. ref 2 (°C)	0.16length (m)	temperature (°C)	Stokes	anti-Stokes-747.200	-136.439	-0.150	-0.023
-746.185	127.059	0.067	0.113
-745.171	-147.388	-0.266	0.029
-744.156	-93.025	-0.282	-0.103
-743.142	351.879	0.120	-0.315
-742.127	-200.000	-0.062	-0.659
-741.112	93.950	-0.074	-0.110
-740.098	800.000	-0.043	0.247
-739.083	52.131	-0.502	-0.630
-738.069	208.854	0.138	0.285
-737.054	-117.867	-0.114	-0.027
-736.039	-102.154	-0.300	0.094
-735.025	-15.772	-0.292	0.244
-734.010	-65.637	-0.322	-0.169
-732.996	356.981	-0.116	0.305
-731.981	301.503	-0.188	-0.458
-730.966	-50.219	-0.297	-0.184
-729.952	-200.000	-0.027	-0.789
-728.937	800.000	-0.114	-0.520
-727.923	-47.161	-0.238	-0.152
-726.908	234.147	-0.171	-0.373
-725.894	-200.000	0.024	-0.412
-724.879	-30.994	-0.278	0.206
-723.864	-137.049	-0.777	-0.116
-722.850	800.000	0.116	0.508
-721.835	-173.186	0.243	-0.010
-720.821	-76.482	0.258	0.119
-719.806	-154.749	-0.510	0.044
-718.791	-92.759	0.337	-0.123
-717.777	-49.607	-0.340	0.212
-716.762	72.341	-0.190	-0.260
-715.748	-200.000	0.261	0.000
-714.733	84.967	0.335	0.483
-713.718	800.000	0.082	0.314
-712.704	6.891	-0.308	0.301
-711.689	-25.040	-0.262	-0.204
-710.675	5.710	-0.509	-0.494
-709.660	-101.198	-0.595	-0.190
-708.645	216.606	-0.106	0.222
-707.631	-80.225	-0.204	-0.089
-706.616	-160.350	-0.708	-0.049
-705.602	-119.020	-0.024	-0.006
-704.587	-149.227	0.091	0.009
-703.572	454.870	0.066	-0.193
-702.558	-19.221	0.109	0.089
-701.543	437.020	0.192	0.552
-700.529	-94.794	0.394	0.140
-699.514	-129.406	-0.567	-0.102
-698.499	-200.000	-0.010	0.082
-697.485	141.913	-0.121	0.212
-696.470	69.644	-0.175	-0.237
-695.456	-104.406	-0.382	-0.115
-694.441	-148.142	0.165	0.018
-693.426	-134.367	0.684	0.109
-692.412	59.155	0.414	0.536
-691.397	175.504	-0.070	0.134
-690.383	-44.397	-0.351	-0.230
-689.368	-134.022	0.217	-0.035
-688.354	-150.336	0.512	-0.051
-687.339	760.574	0.045	-0.162
-686.324	800.000	-0.193	0.710
-685.310	-158.642	-0.203	0.015
-684.295	-200.000	0.001	-0.070
-683.281	-9.506	-0.168	-0.147
-682.266	-104.638	-0.160	0.048
-681.251	77.501	-0.301	-0.421
-680.237	-104.609	-0.333	-0.100
-679.222	156.167	-0.179	-0.324
-678.208	-57.689	-0.373	0.213
-677.193	85.562	-0.149	0.215
-676.178	-40.437	-0.326	-0.222
-675.164	-200.000	-0.027	-0.517
-674.149	-200.000	-0.075	-0.692
-673.135	-68.559	0.111	0.056
-672.120	51.068	0.167	-0.208
-671.105	-113.931	-0.402	-0.102
-670.091	83.494	0.239	-0.342
-669.076	-200.000	-0.009	-0.053
-668.062	-39.197	0.342	-0.235
-667.047	-200.000	-0.033	-0.415
-666.032	-200.000	-0.102	-0.752
-665.018	-176.023	-0.051	0.002
-664.003	-69.840	0.256	0.128
-662.989	259.163	-0.115	0.261
-661.974	-132.616	-0.247	-0.041
-660.959	-64.066	-0.284	-0.152
-659.945	-23.289	-0.259	-0.204
-658.930	14.302	-0.141	0.144
-657.916	140.346	0.217	-0.376
-656.901	29.147	0.124	0.138
-655.886	-1.566	0.323	-0.299
-654.872	-77.207	0.286	0.130
-653.857	-17.946	0.219	-0.180
-652.843	800.000	-0.027	0.151
-651.828	-49.538	0.287	0.179
-650.814	467.257	0.119	-0.353
-649.799	-90.276	0.195	-0.074
-648.784	-76.190	-0.446	0.205
-647.770	-4.463	0.088	0.080
-646.755	23.849	0.070	-0.076
-645.741	-100.966	0.195	0.062
-644.726	50.327	-0.135	-0.168
-643.711	8.428	0.264	0.260
-642.697	587.498	0.097	-0.314
-641.682	17.269	0.163	0.169
-640.668	800.000	-0.104	-0.553
-639.653	-136.617	0.526	-0.079
-638.638	207.825	-0.263	-0.539
-637.624	482.713	-0.120	-0.359
-636.609	800.000	0.021	-0.086
-635.595	56.529	-0.128	0.163
-634.580	9.970	0.228	0.227
-633.565	-110.596	0.343	0.092
-632.551	109.264	-0.188	-0.295
-631.536	327.616	0.108	-0.274
-630.522	-200.000	0.021	-0.446
-629.507	-112.786	0.106	-0.027
-628.492	542.385	0.138	-0.434
-627.478	59.671	0.346	-0.448
-626.463	-108.621	0.204	-0.057
-625.449	75.138	0.105	-0.145
-624.434	-98.086	-0.158	0.053
-623.419	-200.000	-0.037	-0.217
-622.405	-151.064	0.343	0.033
-621.390	-126.395	-0.132	0.026
-620.376	-200.000	0.059	-0.426
-619.361	800.000	-0.093	0.487
-618.346	87.680	0.228	0.331
-617.332	-200.000	0.062	-0.371
-616.317	-100.994	-0.452	-0.144
-615.303	574.243	-0.115	-0.370
-614.288	-39.546	0.117	0.080
-613.273	110.593	0.450	-0.710
-612.259	-52.219	0.167	0.101
-611.244	-91.356	-0.242	0.090
-610.230	29.003	-0.157	0.174
-609.215	800.000	0.037	-0.177
-608.201	-97.121	-0.640	0.218
-607.186	-142.738	0.317	-0.040
-606.171	-42.230	-0.396	-0.264
-605.157	-200.000	-0.541	-0.003
-604.142	549.822	-0.060	0.190
-603.128	-107.411	0.328	0.093
-602.113	-156.496	-0.386	-0.031
-601.098	29.010	0.129	0.144
-600.084	800.000	-0.046	-0.227
-599.069	-164.456	0.295	0.017
-598.055	319.174	-0.116	0.289
-597.040	-88.982	-0.140	0.054
-596.025	800.000	-0.078	0.328
-595.011	800.000	-0.089	0.348
-593.996	46.489	0.040	-0.049
-592.982	-101.585	0.116	0.037
-591.967	-164.705	0.075	-0.004
-590.952	-51.152	0.260	0.159
-589.938	-128.839	0.450	0.082
-588.923	-52.024	-0.211	0.128
-587.909	-95.916	0.139	0.048
-586.894	-200.000	0.019	-0.168
-585.879	-200.000	-0.013	-0.206
-584.865	-74.705	0.153	0.072
-583.850	-200.000	-0.029	0.322
-582.836	-65.156	-0.087	0.046
-581.821	-58.639	-0.219	-0.124
-580.806	35.707	-0.169	0.195
-579.792	-83.389	-0.223	0.093
-578.777	121.680	-0.149	-0.243
-577.763	-103.281	-0.150	0.046
-576.748	-200.000	0.015	0.458
-575.733	-200.000	0.015	-0.477
-574.719	-182.625	-0.428	-0.010
-573.704	-200.000	-0.022	0.170
-572.690	85.827	-0.321	-0.462
-571.675	7.158	-0.305	-0.297
-570.661	-67.015	-0.334	0.172
-569.646	-200.000	0.026	0.154
-568.631	-145.017	0.210	0.025
-567.617	-54.559	-0.454	-0.267
-566.602	7.389	-0.168	0.164
-565.588	96.308	0.232	0.348
-564.573	-200.000	-0.078	-0.556
-563.558	-10.907	-0.364	-0.314
-562.544	46.848	0.155	-0.188
-561.529	-152.795	-0.373	-0.034
-560.515	168.609	-0.156	-0.290
-559.500	37.852	0.364	0.423
-558.485	-200.000	-0.040	0.511
-557.471	-81.475	-0.106	-0.045
-556.456	59.427	-0.023	0.030
-555.442	85.617	0.133	-0.191
-554.427	800.000	0.075	-0.329
-553.412	98.167	0.038	-0.057
-552.398	48.509	-0.093	-0.114
-551.383	-200.000	0.010	0.204
-550.369	-200.000	0.004	-0.108
-549.354	-22.493	0.061	0.049
-548.339	126.472	-0.179	0.296
-547.325	-14.227	-0.320	0.269
-546.310	-22.931	0.216	-0.170
-545.296	336.880	-0.302	-0.770
-544.281	800.000	0.072	-0.281
-543.266	183.109	0.070	-0.135
-542.252	77.440	-0.286	0.397
-541.237	96.310	0.145	-0.217
-540.223	-200.000	0.003	0.087
-539.208	-26.839	-0.567	0.432
-538.193	-134.374	-0.406	-0.064
-537.179	-83.919	-0.149	-0.062
-536.164	-200.000	-0.040	0.287
-535.150	23.142	-0.196	0.210
-534.135	7.639	0.040	0.039
-533.121	-200.000	-0.013	-0.137
-532.106	-60.032	0.414	0.230
-531.091	444.138	0.096	0.275
-530.077	-200.000	-0.000	0.096
-529.062	-200.000	-0.082	0.601
-528.048	-3.516	0.553	-0.501
-527.033	45.962	0.426	-0.514
-526.018	-200.000	-0.010	0.188
-525.004	-65.680	0.168	-0.088
-523.989	-58.284	0.287	0.163
-522.975	800.000	0.101	-0.564
-521.960	800.000	-0.173	0.630
-520.945	-65.470	-0.057	-0.030
-519.931	-51.392	-0.089	0.054
-518.916	124.557	-0.125	0.205
-517.902	-39.219	0.447	-0.305
-516.887	1.192	-0.350	0.328
-515.872	381.231	-0.117	-0.315
-514.858	-18.468	-0.358	0.291
-513.843	-200.000	-0.010	-0.170
-512.829	669.027	-0.143	-0.485
-511.814	58.379	-0.131	0.168
-510.799	-200.000	-0.014	-0.292
-509.785	-7.976	-0.104	0.091
-508.770	-143.198	0.187	-0.023
-507.756	-165.317	-0.365	0.021
-506.741	73.511	0.083	-0.113
-505.726	800.000	0.071	0.385
-504.712	-62.566	0.411	0.221
-503.697	-187.901	0.365	-0.006
-502.683	-41.443	-0.183	0.123
-501.668	34.408	0.198	-0.225
-500.653	-73.888	0.342	0.161
-499.639	-133.759	-0.297	0.048
-498.624	176.529	-0.109	0.208
-497.610	-57.572	-0.438	0.249
-496.595	25.846	0.123	0.133
-495.581	-182.492	-0.377	-0.009
-494.566	717.012	-0.122	-0.424
-493.551	-200.000	0.019	-0.403
-492.537	62.307	-0.120	0.156
-491.522	-116.835	0.391	0.093
-490.508	-108.562	0.597	-0.166
-489.493	-62.836	-0.138	-0.074
-488.478	21.649	0.099	-0.105
-487.464	139.124	0.083	0.142
-486.449	162.808	0.110	0.202
-485.435	-74.053	-0.221	0.104
-484.420	160.023	0.157	-0.285
-483.405	221.295	-0.041	0.085
-482.391	-122.112	-0.185	0.039
-481.376	-17.014	-0.187	-0.153
-480.362	184.526	0.255	-0.493
-479.347	586.583	-0.052	-0.168
-478.332	-44.027	0.055	-0.036
-477.318	-56.962	-0.358	-0.205
-476.303	-22.265	0.105	-0.083
-475.289	31.397	0.370	0.414
-474.274	-178.755	0.155	-0.005
-473.259	-61.961	-0.167	0.090
-472.245	-200.000	-0.021	0.140
-471.230	241.103	0.136	0.296
-470.216	-34.556	0.384	0.273
-469.201	-126.237	0.197	-0.038
-468.186	56.594	0.362	0.458
-467.172	-29.126	-0.168	0.125
-466.157	-137.831	-0.517	-0.075
-465.143	230.470	-0.160	0.342
-464.128	-21.677	0.204	0.162
-463.113	719.747	0.143	0.499
-462.099	92.602	0.109	0.160
-461.084	-9.324	0.175	0.152
-460.070	7.169	-0.339	0.329
-459.055	800.000	0.033	0.182
-458.040	800.000	0.177	0.902
-457.026	149.086	-0.087	0.154
-456.011	11.240	-0.109	-0.109
-454.997	-89.679	-0.248	-0.094
-453.982	-8.366	0.563	-0.492
-452.968	-128.886	-0.348	-0.063
-451.953	-70.940	-0.134	-0.065
-450.938	463.940	0.146	-0.427
-449.924	83.533	0.326	0.463
-448.909	137.623	0.173	0.296
-447.895	-84.088	0.380	-0.156
-446.880	222.221	-0.077	-0.163
-445.865	-200.000	0.012	-0.084
-444.851	-59.802	0.499	0.277
-443.836	-24.083	0.099	-0.077
-442.822	800.000	0.085	0.377
-441.807	-87.175	0.200	-0.079
-440.792	-200.000	-0.013	-0.111
-439.778	-125.891	0.189	-0.037
-438.763	-200.000	-0.029	0.344
-437.749	-200.000	0.028	-0.229
-436.734	6.168	-0.436	-0.420
-435.719	-41.315	0.175	0.117
-434.705	-91.022	0.099	0.037
-433.690	-50.742	-0.361	0.220
-432.676	-200.000	-0.067	0.431
-431.661	299.217	0.116	0.279
-430.646	-151.709	0.454	-0.043
-429.632	800.000	-0.001	0.005
-428.617	800.000	-0.128	-0.499
-427.603	-200.000	-0.011	-0.172
-426.588	-200.000	0.009	-0.075
-425.573	32.114	-0.155	0.174
-424.559	-54.924	-0.243	0.142
-423.544	-115.974	-0.224	0.054
-422.530	702.031	-0.091	-0.312
-421.515	481.901	-0.103	0.305
-420.500	-200.000	0.001	-0.060
-419.486	-200.000	-0.027	0.282
-418.471	-134.526	0.287	0.045
-417.457	-200.000	0.025	-0.182
-416.442	156.640	0.255	-0.459
-415.428	-42.123	-0.314	-0.208
-414.413	-200.000	0.043	-0.296
-413.398	52.572	0.154	-0.192
-412.384	800.000	-0.069	0.303
-411.369	-10.957	-0.163	0.140
-410.355	-181.837	-0.272	0.007
-409.340	161.216	-0.151	-0.275
-408.325	-5.928	0.096	0.086
-407.311	117.587	0.267	-0.428
-406.296	-181.661	0.082	0.002
-405.282	800.000	-0.039	0.184
-404.267	164.275	0.154	-0.282
-403.252	-149.522	0.254	-0.026
-402.238	76.035	0.186	0.255
-401.223	-135.086	0.328	0.051
-400.209	-91.930	0.267	-0.098
-399.194	800.000	-0.104	0.527
-398.179	-64.421	-0.318	0.167
-397.165	-200.000	0.010	0.084
-396.150	800.000	0.024	0.090
-395.136	-123.035	-0.197	-0.041
-394.121	-85.954	-0.296	0.118
-393.106	-50.359	0.427	-0.261
-392.092	548.935	-0.078	0.242
-391.077	-114.435	-0.334	-0.083
-390.063	-63.020	0.134	0.072
-389.048	120.750	-0.073	-0.118
-388.033	-84.267	-0.187	0.076
-387.019	-200.000	-0.026	0.441
-386.004	-66.730	0.221	-0.113
-384.990	800.000	0.153	-0.636
-383.975	-200.000	0.019	0.239
-382.960	-55.183	0.203	-0.118
-381.946	-144.130	-0.300	-0.036
-380.931	112.218	0.234	0.367
-379.917	800.000	0.111	0.454
-378.902	-21.423	0.202	0.160
-377.888	235.333	-0.135	-0.289
-376.873	273.306	0.123	-0.283
-375.858	86.631	-0.107	-0.153
-374.844	-134.497	-0.195	0.031
-373.829	-52.874	0.237	0.141
-372.815	-200.000	0.029	-0.268
-371.800	-167.797	-0.045	-0.002
-370.785	-200.000	0.001	-0.126
-369.771	-47.331	-0.319	-0.201
-368.756	-200.000	0.043	0.249
-367.742	-200.000	0.015	0.094
-366.727	-200.000	-0.122	-0.001
-365.712	122.120	-0.125	-0.202
-364.698	190.532	0.097	0.190
-363.683	-102.492	0.175	0.054
-362.669	-200.000	-0.060	0.476
-361.654	-174.701	0.523	-0.019
-360.639	202.110	-0.099	0.198
-359.625	116.527	-0.228	-0.362
-358.610	608.841	-0.149	0.483
-357.596	-200.000	0.011	-0.192
-356.581	-6.496	-0.294	0.259
-355.566	-200.000	0.016	0.561
-354.552	-114.614	0.421	-0.104
-353.537	800.000	-0.017	0.066
-352.523	-36.537	0.079	0.055
-351.508	-109.750	0.414	-0.112
-350.493	540.154	-0.177	-0.550
-349.479	800.000	0.102	0.369
-348.464	-144.362	0.396	0.047
-347.450	-165.482	0.147	-0.008
-346.435	173.538	0.165	-0.310
-345.420	67.678	-0.026	0.034
-344.406	109.525	-0.081	-0.126
-343.391	-78.934	-0.034	0.015
-342.377	-195.391	-0.607	0.006
-341.362	433.253	-0.152	0.429
-340.348	-163.686	0.251	0.015
-339.333	-71.198	0.274	0.132
-338.318	531.718	-0.051	0.157
-337.304	59.131	0.246	0.314
-336.289	71.880	-0.210	-0.283
-335.275	-101.285	-0.366	-0.115
-334.260	800.000	0.094	0.445
-333.245	-8.390	0.091	0.079
-332.231	49.999	0.212	0.259
-331.216	38.208	-0.147	0.169
-330.202	-114.206	0.464	-0.115
-329.187	-29.057	0.148	0.110
-328.172	81.896	-0.112	0.157
-327.158	279.646	0.131	0.303
-326.143	-155.580	0.380	0.031
-325.129	-142.799	0.271	0.034
-324.114	-126.523	0.140	-0.027
-323.099	488.195	0.067	0.199
-322.085	-162.491	-0.088	0.006
-321.070	-200.000	0.093	-0.816
-320.056	190.714	-0.107	-0.210
-319.041	-200.000	0.024	0.333
-318.026	-200.000	-0.041	-0.265
-317.012	229.882	-0.258	-0.546
-315.997	45.725	0.382	0.456
-314.983	-5.510	0.057	0.050
-313.968	-200.000	-0.024	0.139
-312.953	364.564	-0.144	0.376
-311.939	-129.233	0.151	0.027
-310.924	800.000	0.054	0.197
-309.910	-57.490	0.118	-0.067
-308.895	73.726	0.023	-0.031
-307.880	-10.267	-0.336	0.288
-306.866	-32.826	-0.205	-0.147
-305.851	76.229	-0.259	0.355
-304.837	-81.578	0.424	-0.179
-303.822	-95.282	-0.038	-0.013
-302.807	232.305	-0.024	-0.051
-301.793	51.637	0.253	0.312
-300.778	-108.184	-0.502	0.140
-299.764	199.248	0.249	0.495
-298.749	288.677	0.158	-0.371
-297.735	-79.768	0.246	-0.107
-296.720	-122.072	0.200	0.042
-295.705	71.802	0.202	0.271
-294.691	-0.188	0.207	0.190
-293.676	-200.000	0.021	-0.214
-292.662	-200.000	0.021	-0.170
-291.647	295.450	0.018	-0.042
-290.632	-113.574	-0.311	0.078
-289.618	386.974	0.129	0.347
-288.603	-132.129	-0.273	0.045
-287.589	-110.421	0.445	0.119
-286.574	739.118	0.108	-0.378
-285.559	-43.558	-0.484	0.315
-284.545	-80.657	0.582	-0.249
-283.530	-72.662	0.298	-0.142
-282.516	-162.096	0.172	-0.011
-281.501	167.842	0.183	0.338
-280.486	11.689	-0.301	-0.298
-279.472	800.000	-0.152	-0.548
-278.457	-100.776	-0.492	-0.155
-277.443	226.544	0.223	-0.468
-276.428	800.000	-0.011	-0.053
-275.413	-35.817	0.163	0.114
-274.399	194.718	0.110	0.217
-273.384	107.369	-0.306	0.472
-272.370	800.000	-0.033	0.149
-271.355	-19.185	-0.520	-0.417
-270.340	-200.000	-0.001	-0.173
-269.326	-148.410	0.131	-0.014
-268.311	166.747	-0.106	-0.194
-267.297	231.078	0.132	-0.279
-266.282	-72.292	0.291	-0.139
-265.267	179.347	0.019	0.036
-264.253	86.803	0.165	0.236
-263.238	-59.296	0.475	-0.263
-262.224	-99.069	-0.340	0.110
-261.209	-86.499	-0.346	0.136
-260.195	172.821	-0.176	-0.329
-259.180	301.122	0.203	-0.485
-258.165	32.995	0.122	-0.136
-257.151	66.911	-0.231	-0.304
-256.136	85.757	0.090	0.127
-255.122	4.830	-0.287	0.272
-254.107	187.137	-0.059	-0.114
-253.092	-134.618	0.139	0.022
-252.078	-30.834	0.172	-0.125
-251.063	-11.461	-0.192	0.163
-250.049	644.820	0.060	0.199
-249.034	18.623	0.196	-0.202
-248.019	132.915	-0.289	-0.482
-247.005	-3.853	0.269	-0.241
-245.990	31.881	-0.181	-0.202
-244.976	-200.000	-0.006	-0.336
-243.961	103.212	-0.265	0.402
-242.946	397.064	-0.090	-0.244
-241.932	-31.618	-0.406	0.294
-240.917	345.461	0.073	0.185
-239.903	-195.590	-0.309	0.003
-238.888	325.025	0.051	0.127
-237.873	-98.734	0.423	0.138
-236.859	-29.420	0.310	-0.228
-235.844	-40.317	0.046	-0.031
-234.830	-13.235	0.260	0.217
-233.815	800.000	0.043	0.157
-232.800	-28.005	-0.406	0.302
-231.786	-57.560	-0.461	0.260
-230.771	-186.092	-0.565	-0.010
-229.757	-60.818	-0.389	-0.211
-228.742	800.000	-0.095	-0.442
-227.727	79.430	-0.110	0.153
-226.713	37.962	0.054	0.062
-225.698	180.387	0.313	-0.593
-224.684	-91.263	-0.396	0.145
-223.669	-200.000	-0.016	-0.401
-222.655	-134.236	0.309	0.049
-221.640	800.000	0.064	-0.358
-220.625	-123.311	-0.247	0.050
-219.611	-165.927	-0.251	-0.014
-218.596	-137.080	-0.545	0.079
-217.582	-93.725	-0.481	0.170
-216.567	800.000	-0.101	0.577
-215.552	-71.107	-0.348	0.168
-214.538	77.080	-0.215	0.295
-213.523	260.361	0.040	-0.090
-212.509	45.385	-0.167	-0.199
-211.494	58.125	0.253	0.319
-210.479	-115.812	0.381	-0.091
-209.465	-64.168	0.346	0.181
-208.450	800.000	-0.082	-0.301
-207.436	-121.728	-0.099	-0.021
-206.421	-200.000	-0.033	0.538
-205.406	-48.426	-0.099	-0.061
-204.392	1.595	0.085	-0.079
-203.377	800.000	-0.026	-0.122
-202.363	-190.272	-0.243	-0.003
-201.348	467.855	-0.069	0.201
-200.333	184.144	-0.173	-0.330
-199.319	-39.832	-0.066	-0.044
-198.304	-37.876	-0.533	0.364
-197.290	167.808	0.256	0.469
-196.275	56.012	-0.050	-0.062
-195.260	-200.000	0.017	0.310
-194.246	-200.000	-0.054	0.401
-193.231	-146.462	-0.095	0.011
-192.217	-105.419	0.284	0.083
-191.202	335.528	-0.087	-0.218
-190.187	80.691	0.198	-0.275
-189.173	274.472	-0.148	-0.338
-188.158	141.425	-0.267	-0.456
-187.144	-79.440	0.608	-0.263
-186.129	-200.000	0.003	0.244
-185.114	-200.000	-0.027	-0.472
-184.100	139.044	0.184	0.312
-183.085	-126.920	-0.586	0.110
-182.071	-112.802	0.239	-0.061
-181.056	370.951	0.018	-0.046
-180.042	-200.000	0.103	-0.620
-179.027	-200.000	0.075	0.544
-178.012	800.000	0.041	0.207
-176.998	223.280	0.189	0.393
-175.983	-56.271	0.232	0.132
-174.969	279.644	0.183	-0.423
-173.954	115.903	0.050	-0.078
-172.939	448.205	-0.208	0.593
-171.925	-103.104	0.051	0.016
-170.910	-12.670	-0.097	-0.081
-169.896	-158.852	-0.163	-0.012
-168.881	-90.586	0.240	-0.089
-167.866	800.000	-0.067	-0.367
-166.852	304.514	-0.124	-0.296
-165.837	-77.520	-0.226	-0.100
-164.823	-200.000	-0.005	0.501
-163.808	-200.000	0.023	0.179
-162.793	92.747	-0.101	-0.147
-161.779	-95.115	-0.177	-0.061
-160.764	-47.743	-0.116	0.072
-159.750	-92.071	0.223	-0.081
-158.735	-200.000	0.010	-0.398
-157.720	-78.081	0.725	-0.319
-156.706	-56.393	0.519	-0.295
-155.691	565.722	-0.275	-0.861
-154.677	-200.000	-0.008	-0.248
-153.662	-200.000	-0.031	0.449
-152.647	800.000	-0.169	-0.619
-151.633	-42.883	-0.503	0.328
-150.618	50.443	0.394	0.479
-149.604	33.930	-0.431	-0.483
-148.589	-200.000	0.027	-0.327
-147.574	-139.550	0.491	0.067
-146.560	-44.635	0.366	0.234
-145.545	-114.188	0.300	0.074
-144.531	-119.884	-0.143	-0.031
-143.516	105.084	-0.026	-0.039
-142.502	-50.088	0.109	0.066
-141.487	188.081	0.254	0.488
-140.472	-66.326	0.183	0.093
-139.458	63.400	-0.261	-0.337
-138.443	-76.727	0.209	0.094
-137.429	247.936	-0.087	0.190
-136.414	-10.201	0.271	0.231
-135.399	40.174	0.106	-0.122
-134.385	-70.779	0.132	0.064
-133.370	285.504	-0.217	0.505
-132.356	49.092	-0.139	0.168
-131.341	800.000	0.075	0.305
-130.326	84.595	0.078	0.110
-129.312	152.521	0.197	-0.347
-128.297	280.146	-0.173	0.400
-127.283	96.051	0.154	-0.226
-126.268	-200.000	0.009	0.557
-125.253	81.477	-0.132	-0.183
-124.239	-200.000	0.035	0.279
-123.224	-22.825	0.090	0.070
-122.210	256.093	-0.165	-0.365
-121.195	-146.845	0.383	0.042
-120.180	277.319	-0.023	0.052
-119.166	391.055	0.013	-0.034
-118.151	-22.344	-0.352	0.273
-117.137	-39.339	-0.165	-0.111
-116.122	800.000	-0.053	0.208
-115.107	-72.194	-0.314	0.149
-114.093	-200.000	0.012	0.462
-113.078	278.083	-0.121	0.277
-112.064	78.919	-0.093	-0.128
-111.049	-195.033	0.043	-0.000
-110.034	-200.000	-0.014	0.273
-109.020	-118.207	-0.207	-0.047
-108.005	-97.398	-0.113	-0.038
-106.991	-81.665	-0.554	-0.232
-105.976	-180.109	0.301	-0.008
-104.962	89.352	0.061	0.087
-103.947	-200.000	-0.044	-0.544
-102.932	-10.150	0.103	0.087
-101.918	-159.820	0.464	-0.032
-100.903	-8.027	0.199	-0.172
-99.889	-200.000	0.029	-0.237
-98.874	-135.465	0.300	0.045
-97.859	-156.684	-0.336	-0.026
-96.845	153.286	0.092	0.162
-95.830	398.391	-0.171	0.462
-94.816	-90.829	0.120	-0.044
-93.801	22.134	-0.218	-0.228
-92.786	-50.022	-0.284	-0.172
-91.772	583.823	-0.065	-0.206
-90.757	16.083	-0.220	-0.223
-89.743	72.368	0.058	-0.078
-88.728	186.188	-0.078	-0.148
-87.713	-165.298	0.156	-0.009
-86.699	-200.000	0.013	0.145
-85.684	285.750	-0.029	-0.066
-84.670	20.477	0.231	-0.239
-83.655	108.574	0.057	0.087
-82.640	-100.806	-0.257	-0.080
-81.626	-200.000	-0.020	0.510
-80.611	-36.924	0.186	0.127
-79.597	-200.000	0.043	0.354
-78.582	-200.000	-0.025	-0.159
-77.567	-71.322	0.232	-0.111
-76.553	-200.000	-0.065	0.606
-75.538	-48.815	-0.230	0.141
-74.524	413.767	-0.256	0.701
-73.509	28.204	-0.472	0.510
-72.494	-200.000	0.007	-0.250
-71.480	800.000	-0.054	-0.205
-70.465	-144.286	-0.303	0.036
-69.451	144.545	0.217	0.372
-68.436	-76.501	0.169	-0.076
-67.422	312.271	-0.062	0.151
-66.407	-100.685	-0.325	-0.102
-65.392	-188.746	-0.035	0.001
-64.378	28.049	0.019	0.020
-63.363	138.278	0.102	-0.172
-62.349	292.030	-0.080	0.187
-61.334	36.503	-2.113	-2.389
-60.319	-11.456	1.275	1.073
-59.305	206.753	-3.558	-7.124
-58.290	52.992	3.864	4.739
-57.276	381.803	4.046	10.694
-56.261	-200.000	20.968	290.063
-55.246	381.927	1264.657	3342.708
-54.232	56.620	2830.295	3529.704
-53.217	61.962	2669.213	3409.920
-52.203	30.842	2401.398	2634.111
-51.188	30.502	2065.807	2261.758
-50.173	26.977	1950.130	2094.227
-49.159	25.705	1939.901	2068.468
-48.144	25.203	1935.400	2057.810
-47.130	25.137	1933.029	2054.444
-46.115	25.016	1931.735	2051.597
-45.100	24.910	1930.514	2048.993
-44.086	24.870	1929.177	2047.038
-43.071	24.903	1927.845	2045.920
-42.057	25.027	1926.332	2045.660
-41.042	24.983	1924.682	2043.313
-40.027	24.882	1923.759	2041.100
-39.013	24.941	1921.811	2039.632
-37.998	24.894	1920.424	2037.540
-36.984	24.852	1919.128	2035.601
-35.969	24.816	1918.552	2034.500
-34.954	24.794	1916.609	2032.109
-33.940	24.816	1915.819	2031.436
-32.925	24.879	1914.079	2030.228
-31.911	24.780	1914.197	2029.141
-30.896	24.968	1910.493	2027.282
-29.881	24.870	1910.094	2025.660
-28.867	24.881	1908.845	2024.384
-27.852	24.828	1906.907	2021.638
-26.838	24.903	1905.946	2021.392
-25.823	24.841	1905.409	2020.036
-24.809	24.805	1903.603	2017.636
-23.794	24.818	1902.483	2016.514
-22.779	24.796	1900.954	2014.567
-21.765	24.835	1899.546	2013.432
-20.750	24.764	1899.121	2012.109
-19.736	24.645	1898.430	2009.945
-18.721	24.746	1895.732	2008.155
-17.706	24.612	1895.330	2006.128
-16.692	24.606	1894.090	2004.670
-15.677	24.662	1892.760	2003.821
-14.663	24.647	1891.482	2002.220
-13.648	24.662	1889.356	2000.059
-12.633	24.477	1889.183	1997.713
-11.619	24.695	1887.803	1998.619
-10.604	24.647	1886.653	1996.789
-9.590	24.693	1884.859	1995.330
-8.575	24.616	1883.348	1992.786
-7.560	24.586	1883.196	1992.207
-6.546	24.678	1880.728	1990.548
-5.531	24.668	1880.047	1989.636
-4.517	24.582	1879.305	1987.813
-3.502	24.611	1877.898	1986.562
-2.487	24.788	1876.561	1987.051
-1.473	24.632	1874.292	1982.833
-0.458	24.825	1857.277	1966.885
0.556	22.323	2004.323	2080.495
1.571	21.609	2212.669	2287.118
2.586	22.566	2254.923	2343.317
3.600	22.604	2257.153	2345.853
4.615	22.659	2256.583	2345.711
5.629	22.644	2253.833	2342.383
6.644	22.671	2252.439	2341.013
7.659	22.662	2250.906	2339.010
8.673	22.596	2248.668	2335.527
9.688	22.364	2257.129	2340.931
10.702	21.167	2335.626	2405.485
11.717	19.596	2401.206	2450.340
12.731	9.814	2375.540	2285.219
13.746	1.488	2353.417	2145.878
14.761	0.318	2349.227	2125.221
15.775	0.125	2347.626	2120.792
16.790	0.110	2345.361	2118.280
17.804	0.034	2344.687	2116.335
18.819	0.029	2343.762	2115.184
19.834	0.128	2341.110	2113.925
20.848	0.076	2340.685	2112.556
21.863	0.022	2338.667	2109.727
22.877	0.013	2336.286	2107.194
23.892	0.063	2333.548	2105.174
24.907	-0.062	2332.874	2102.555
25.921	0.015	2330.419	2101.171
26.936	-0.012	2328.270	2098.611
27.950	-0.024	2325.820	2095.980
28.965	0.050	2323.760	2094.914
29.980	0.059	2322.905	2094.017
30.994	0.085	2320.591	2092.045
32.009	4.920	2337.075	2174.594
33.023	17.533	2373.826	2387.272
34.038	23.102	2386.267	2478.165
35.053	24.014	2383.863	2488.190
36.067	24.147	2381.938	2487.754
37.082	23.856	2380.050	2481.398
38.096	23.777	2378.408	2478.289
39.111	23.857	2375.542	2476.128
40.126	23.882	2373.592	2474.136
41.140	24.252	2372.618	2478.007
42.155	23.956	2369.906	2470.739
43.169	24.068	2368.872	2470.930
44.184	24.418	2367.000	2473.558
45.199	24.470	2364.385	2471.251
46.213	24.164	2362.773	2465.016
47.228	23.698	2360.561	2455.932
48.242	24.155	2359.847	2461.256
49.257	24.426	2357.219	2461.973
50.271	24.034	2354.064	2452.950
51.286	23.994	2351.757	2449.709
52.301	24.334	2352.945	2455.354
53.315	23.570	2348.158	2439.505
54.330	22.359	2342.626	2416.760
55.344	21.858	2338.825	2405.646
56.359	21.801	2335.712	2401.378
57.374	21.725	2333.952	2398.234
58.388	21.823	2331.680	2396.955
59.403	21.982	2328.160	2395.232
60.417	21.990	2326.906	2393.766
61.432	22.173	2324.854	2393.876
62.447	22.165	2324.348	2392.952
63.461	22.188	2321.518	2390.067
64.476	22.277	2318.846	2388.246
65.490	22.506	2319.099	2391.356
66.505	22.840	2318.787	2395.300
67.520	23.258	2319.673	2401.627
68.534	23.724	2317.709	2405.655
69.549	24.504	2316.568	2414.781
70.563	24.434	2315.577	2412.518
71.578	24.431	2312.853	2409.352
72.593	24.343	2310.560	2405.471
73.607	24.406	2310.701	2406.187
74.622	24.828	2309.076	2409.928
75.636	25.118	2307.098	2411.496
76.651	25.133	2304.737	2408.940
77.666	25.061	2302.346	2405.175
78.680	24.768	2300.659	2399.182
79.695	24.866	2298.322	2397.771
80.709	24.979	2298.107	2398.790
81.724	25.363	2296.159	2401.626
82.739	25.073	2291.947	2393.039
83.753	24.838	2292.052	2389.710
84.768	25.131	2290.090	2391.306
85.782	25.330	2288.870	2392.417
86.797	25.107	2286.650	2386.827
87.812	24.588	2282.682	2375.459
88.826	24.719	2282.324	2376.555
89.841	24.962	2280.491	2377.610
90.855	25.026	2278.549	2376.151
91.870	24.753	2275.963	2369.533
92.884	24.904	2274.814	2370.057
93.899	24.918	2274.075	2369.193
94.914	24.520	2271.116	2360.537
95.928	23.184	2267.469	2338.737
96.943	22.595	2263.390	2326.437
97.957	23.604	2264.361	2340.542
98.972	24.474	2264.669	2352.097
99.987	24.233	2260.189	2343.983
101.001	24.410	2258.524	2344.315
102.016	24.551	2258.046	2345.392
103.030	24.167	2254.196	2336.054
104.045	24.089	2251.158	2331.606
105.060	24.350	2249.017	2332.536
106.074	24.404	2247.454	2331.342
107.089	24.343	2246.545	2329.321
108.103	24.695	2246.091	2333.192
109.118	24.786	2244.622	2332.586
110.133	24.640	2242.673	2328.366
111.147	24.774	2241.416	2328.531
112.162	25.250	2240.964	2334.012
113.176	25.092	2237.739	2328.316
114.191	24.597	2234.417	2318.124
115.206	24.520	2233.071	2315.444
116.220	24.443	2231.957	2313.013
117.235	24.245	2228.559	2306.641
118.249	24.129	2226.266	2302.475
119.264	24.338	2225.373	2303.990
120.279	24.603	2224.107	2305.839
121.293	24.479	2221.740	2301.509
122.308	24.360	2220.779	2298.692
123.322	24.361	2218.899	2296.488
124.337	23.754	2215.887	2285.253
125.352	22.933	2212.698	2271.078
126.366	22.890	2212.321	2269.869
127.381	23.541	2210.514	2276.143
128.395	23.640	2207.426	2273.967
129.410	23.915	2208.194	2278.027
130.424	24.437	2206.384	2282.601
131.439	24.235	2203.558	2276.812
132.454	24.229	2202.746	2275.624
133.468	24.298	2199.899	2273.288
134.483	24.224	2197.321	2269.407
135.497	23.977	2196.991	2265.629
136.512	24.211	2194.494	2265.772
137.527	24.130	2193.545	2263.492
138.541	24.294	2191.753	2263.461
139.556	24.134	2190.955	2260.332
140.570	24.270	2189.883	2260.689
141.585	24.368	2188.155	2259.880
142.600	24.324	2186.184	2257.018
143.614	24.196	2184.422	2253.297
144.629	24.318	2183.279	2253.404
145.643	24.188	2181.697	2249.848
146.658	24.226	2178.571	2246.842
147.673	24.306	2177.669	2246.655
148.687	24.623	2177.203	2249.910
149.702	24.819	2176.823	2251.728
150.716	24.841	2176.852	2251.770
151.731	25.036	2174.978	2252.026
152.746	25.018	2173.294	2249.786
153.760	24.321	2170.340	2237.667
154.775	22.861	2165.976	2214.508
155.789	22.223	2162.703	2202.863
156.804	23.152	2162.110	2213.685
157.819	24.117	2161.089	2224.499
158.833	24.648	2160.089	2229.862
159.848	24.761	2157.930	2228.788
160.862	24.656	2156.814	2226.056
161.877	24.698	2156.145	2225.622
162.892	24.695	2154.522	2223.647
163.906	24.849	2153.179	2223.918
164.921	24.730	2150.769	2219.680
165.935	24.488	2148.416	2213.964
166.950	24.369	2146.981	2210.740
167.964	24.295	2143.632	2206.106
168.979	24.210	2142.308	2203.418
169.994	24.465	2140.573	2204.534
171.008	24.540	2140.070	2204.690
172.023	24.715	2140.007	2206.533
173.037	24.995	2138.099	2207.770
174.052	24.584	2135.799	2200.041
175.067	24.173	2133.261	2192.076
176.081	24.399	2132.249	2193.575
177.096	24.210	2130.928	2189.621
178.110	23.907	2127.259	2181.845
179.125	24.076	2127.422	2183.838
180.140	24.536	2126.469	2188.267
181.154	24.258	2125.633	2183.719
182.169	23.798	2123.520	2175.625
183.183	23.509	2119.609	2167.816
184.198	22.523	2115.702	2151.460
185.213	22.503	2115.672	2150.928
186.227	23.609	2115.973	2164.543
187.242	23.885	2115.679	2167.368
188.256	23.973	2114.454	2166.933
189.271	24.601	2114.466	2174.367
190.286	24.630	2112.992	2172.939
191.300	24.194	2108.137	2162.374
192.315	24.152	2106.727	2160.153
193.329	24.323	2106.928	2162.193
194.344	24.678	2105.796	2165.094
195.359	24.641	2103.953	2162.484
196.373	24.403	2101.602	2156.920
197.388	24.352	2098.268	2152.626
198.402	24.247	2097.220	2150.011
199.417	24.250	2095.387	2147.911
200.432	24.446	2093.957	2148.565
201.446	24.496	2093.438	2148.385
202.461	24.517	2090.901	2145.773
203.475	24.283	2089.193	2140.936
204.490	24.404	2087.214	2140.115
205.504	24.374	2084.961	2137.188
206.519	24.312	2081.784	2132.933
207.534	24.202	2081.356	2130.918
208.548	24.351	2079.961	2131.023
209.563	24.408	2079.261	2130.736
210.577	24.176	2077.208	2125.585
211.592	24.102	2075.904	2123.112
212.607	23.699	2072.868	2114.928
213.621	22.396	2069.110	2095.270
214.636	22.396	2068.495	2094.391
215.650	23.543	2068.585	2107.941
216.665	24.255	2068.705	2116.313
217.680	24.531	2069.271	2119.927
218.694	25.203	2068.641	2127.042
219.709	25.393	2066.886	2127.245
220.723	25.190	2064.694	2122.326
221.738	24.875	2062.193	2115.755
222.753	24.608	2060.273	2110.357
223.767	24.391	2058.603	2105.820
224.782	24.099	2056.279	2099.731
225.796	24.140	2054.738	2098.399
226.811	24.524	2053.410	2101.336
227.826	24.543	2051.957	2099.814
228.840	24.592	2050.582	2098.734
229.855	24.285	2048.293	2092.520
230.869	24.551	2047.999	2095.107
231.884	24.573	2045.990	2093.057
232.899	24.198	2043.969	2086.335
233.913	24.038	2042.487	2082.684
234.928	24.202	2041.913	2083.775
235.942	24.381	2039.639	2083.315
236.957	24.249	2038.295	2080.135
237.972	24.249	2037.504	2079.085
238.986	24.374	2037.126	2079.908
240.001	24.221	2034.328	2075.019
241.015	24.039	2033.117	2071.411
242.030	23.998	2030.912	2068.432
243.045	22.910	2026.595	2051.099
244.059	22.615	2025.185	2045.985
245.074	23.529	2024.901	2056.105
246.088	23.826	2022.510	2056.885
247.103	23.774	2022.185	2055.706
248.117	24.073	2020.861	2057.592
249.132	24.300	2019.258	2058.341
250.147	24.128	2017.062	2053.863
251.161	23.834	2016.528	2049.674
252.176	24.143	2013.816	2050.238
253.190	24.220	2012.402	2049.450
254.205	24.239	2010.049	2047.028
255.220	24.365	2009.129	2047.293
256.234	24.283	2008.830	2045.807
257.249	24.074	2007.435	2041.729
258.263	24.022	2005.967	2039.391
259.278	24.145	2004.736	2039.306
260.293	23.964	2002.503	2034.710
261.307	24.127	2001.069	2034.889
262.322	24.238	1999.797	2034.621
263.336	24.046	1998.056	2030.406
264.351	24.175	1996.365	2029.925
265.366	24.317	1995.187	2030.112
266.380	24.497	1994.934	2031.665
267.395	24.338	1992.703	2027.332
268.409	24.226	1992.063	2025.157
269.424	24.775	1990.572	2029.663
270.439	24.796	1990.928	2030.021
271.453	24.262	1986.380	2019.065
272.468	22.705	1980.272	1994.933
273.482	22.552	1979.650	1992.327
274.497	23.687	1980.601	2005.946
275.512	24.400	1979.253	2012.429
276.526	24.507	1977.572	2011.685
277.541	24.620	1976.028	2011.157
278.555	24.647	1974.529	2009.692
279.570	24.485	1972.144	2005.196
280.585	24.370	1969.952	2001.428
281.599	24.434	1968.565	2000.499
282.614	24.145	1967.982	1996.417
283.628	24.080	1965.320	1992.745
284.643	24.107	1964.323	1991.802
285.657	24.051	1963.505	1990.095
286.672	23.934	1960.572	1985.582
287.687	23.297	1957.824	1975.415
288.701	23.395	1956.698	1975.144
289.716	23.218	1955.366	1971.575
290.730	23.010	1952.601	1966.226
291.745	23.058	1952.113	1966.041
292.760	23.290	1952.237	1968.517
293.774	23.656	1952.376	1972.521
294.789	24.056	1951.365	1975.721
295.803	24.002	1948.637	1972.126
296.818	24.188	1948.404	1973.724
297.833	24.179	1947.630	1972.600
298.847	23.897	1944.944	1966.508
299.862	24.126	1943.158	1967.014
300.876	23.682	1940.091	1958.748
301.891	22.733	1937.379	1945.263
302.906	22.839	1937.236	1946.061
303.920	23.786	1937.900	1956.981
304.935	23.982	1936.112	1957.109
305.949	23.904	1933.783	1953.660
306.964	24.100	1931.572	1953.356
307.979	23.908	1931.031	1950.458
308.993	23.437	1927.976	1941.955
310.008	23.755	1926.755	1943.987
311.022	23.898	1927.094	1945.670
312.037	23.696	1924.121	1940.220
313.052	23.271	1921.185	1932.366
314.066	23.127	1919.009	1928.365
315.081	23.106	1918.155	1927.055
316.095	23.077	1917.018	1925.359
317.110	22.981	1915.678	1922.739
318.125	23.417	1915.344	1926.934
319.139	23.863	1914.950	1931.175
320.154	24.211	1913.975	1933.758
321.168	24.345	1913.064	1934.069
322.183	24.352	1912.299	1933.144
323.197	24.490	1910.351	1932.443
324.212	24.514	1908.985	1931.088
325.227	24.513	1907.715	1929.560
326.241	24.613	1906.217	1928.907
327.256	24.727	1904.776	1928.448
328.270	24.828	1904.184	1928.712
329.285	24.680	1903.983	1926.669
330.300	24.087	1901.677	1917.692
331.314	22.747	1896.694	1897.965
332.329	22.524	1895.010	1893.637
333.343	23.940	1895.141	1908.833
334.358	24.838	1895.933	1919.087
335.373	25.116	1894.584	1920.483
336.387	24.877	1892.481	1915.547
337.402	25.041	1891.186	1915.771
338.416	24.666	1889.376	1909.687
339.431	24.719	1888.428	1909.060
340.446	24.946	1885.954	1908.768
341.460	24.632	1883.625	1902.819
342.475	24.380	1881.961	1898.214
343.489	24.113	1880.552	1893.714
344.504	24.134	1878.903	1892.050
345.519	23.718	1875.648	1884.112
346.533	23.294	1873.472	1877.182
347.548	23.441	1872.681	1877.738
348.562	23.643	1871.399	1878.373
349.577	23.474	1870.121	1875.065
350.592	23.341	1867.985	1871.293
351.606	23.505	1867.898	1872.720
352.621	23.563	1866.546	1871.753
353.635	23.392	1864.693	1867.859
354.650	23.210	1862.548	1863.564
355.665	23.451	1861.888	1865.228
356.679	23.867	1860.935	1868.450
357.694	24.027	1860.151	1869.126
358.708	23.971	1859.388	1867.543
359.723	23.599	1857.464	1861.470
360.738	22.715	1854.009	1848.476
361.752	22.725	1853.751	1848.102
362.767	23.442	1853.502	1855.173
363.781	23.934	1852.616	1859.239
364.796	24.380	1851.600	1862.683
365.810	24.518	1851.599	1863.901
366.825	24.418	1849.822	1860.840
367.840	24.648	1849.109	1862.312
368.854	24.831	1848.302	1863.196
369.869	24.628	1846.160	1858.693
370.883	24.247	1843.560	1851.869
371.898	24.060	1841.838	1847.970
372.913	23.977	1840.005	1845.041
373.927	23.934	1838.985	1843.356
374.942	23.839	1838.736	1841.886
375.956	24.367	1837.506	1845.931
376.971	24.800	1837.213	1849.917
377.986	24.971	1835.045	1849.283
379.000	24.908	1834.606	1847.972
380.015	24.889	1833.745	1846.690
381.029	25.022	1830.921	1844.995
382.044	24.901	1829.384	1841.977
383.059	24.920	1828.267	1840.826
384.073	24.710	1827.355	1837.524
385.088	24.441	1824.667	1831.824
386.102	24.344	1823.173	1829.106
387.117	24.328	1821.228	1826.764
388.132	24.267	1820.451	1825.142
389.146	24.084	1820.769	1823.357
390.161	22.907	1814.833	1805.113
391.175	22.842	1812.297	1801.710
392.190	24.109	1810.895	1813.078
393.205	24.059	1809.410	1810.864
394.219	24.252	1809.557	1812.761
395.234	24.570	1809.038	1815.279
396.248	24.610	1807.169	1813.591
397.263	24.654	1804.035	1810.674
398.278	24.212	1802.752	1804.671
399.292	24.123	1801.154	1801.949
400.307	24.096	1800.704	1801.011
401.321	24.314	1798.516	1800.826
402.336	23.914	1796.841	1794.875
403.350	23.865	1795.834	1793.159
404.365	24.415	1795.175	1797.851
405.380	24.746	1794.334	1800.149
406.394	24.609	1793.581	1797.787
407.409	24.522	1791.281	1794.390
408.423	24.217	1788.729	1788.544
409.438	23.706	1786.301	1780.752
410.453	23.783	1785.560	1780.577
411.467	23.946	1785.160	1781.604
412.482	23.797	1783.851	1778.585
413.496	24.078	1783.514	1780.860
414.511	24.023	1781.482	1778.067
415.526	23.933	1778.734	1774.207
416.540	23.980	1776.869	1772.614
417.555	23.922	1776.820	1771.764
418.569	23.665	1776.681	1768.841
419.584	23.733	1776.231	1768.861
420.599	24.300	1776.768	1774.864
421.613	24.481	1776.125	1775.813
422.628	24.679	1774.894	1776.352
423.642	24.584	1772.002	1772.296
424.657	24.255	1770.441	1767.249
425.672	24.246	1768.324	1764.832
426.686	24.122	1767.694	1762.754
427.701	23.797	1765.666	1757.290
428.715	23.604	1763.374	1752.883
429.730	23.766	1761.870	1752.793
430.745	23.766	1760.512	1751.225
431.759	23.561	1759.115	1747.597
432.774	23.158	1757.525	1741.819
433.788	22.473	1755.678	1733.016
434.803	22.124	1755.135	1728.815
435.818	22.100	1754.754	1728.000
436.832	22.168	1753.693	1727.422
437.847	21.123	1744.700	1708.074
438.861	11.736	1719.114	1591.422
439.876	2.185	1701.604	1482.209
440.890	0.294	1697.829	1460.334
441.905	0.178	1696.497	1457.890
442.920	0.069	1695.278	1455.608
443.934	0.080	1693.593	1454.086
444.949	0.200	1692.487	1454.136
445.963	0.125	1691.470	1452.358
446.978	0.032	1691.548	1451.346
447.993	-0.044	1690.478	1449.519
449.007	0.102	1686.826	1447.624
450.022	0.153	1685.203	1446.553
451.036	0.218	1683.933	1445.918
452.051	0.648	1686.812	1452.376
453.066	8.643	1707.232	1547.738
454.080	18.617	1723.057	1659.329
455.095	20.794	1727.293	1684.394
456.109	21.393	1726.787	1689.521
457.124	21.398	1725.135	1687.750
458.139	21.322	1724.997	1686.676
459.153	21.260	1723.823	1684.727
460.168	21.288	1721.931	1682.953
461.182	21.328	1720.528	1681.758
462.197	21.354	1719.162	1680.482
463.212	21.697	1717.365	1681.827
464.226	21.887	1716.107	1682.231
465.241	21.557	1715.238	1678.000
466.255	21.494	1713.842	1675.824
467.270	21.477	1712.836	1674.471
468.285	21.663	1711.198	1674.459
469.299	21.815	1710.411	1674.948
470.314	21.611	1708.543	1670.964
471.328	21.465	1707.388	1668.231
472.343	21.440	1705.575	1666.019
473.358	21.434	1703.765	1663.995
474.372	21.327	1703.170	1662.195
475.387	21.151	1702.701	1659.856
476.401	21.288	1699.747	1658.088
477.416	21.164	1697.933	1654.937
478.430	21.043	1697.246	1652.911
479.445	21.210	1697.366	1654.429
480.460	21.337	1695.656	1653.764
481.474	21.324	1694.767	1652.583
482.489	21.301	1692.443	1649.894
483.503	21.033	1690.120	1644.892
484.518	21.019	1688.976	1643.456
485.533	20.987	1688.318	1642.308
486.547	20.829	1686.363	1638.721
487.562	20.550	1683.960	1633.554
488.576	20.750	1683.178	1634.487
489.591	20.804	1682.657	1634.298
490.606	21.008	1682.212	1635.587
491.620	20.939	1680.370	1632.953
492.635	20.872	1678.387	1630.200
493.649	20.650	1676.534	1626.126
494.664	20.983	1677.063	1629.572
495.679	21.376	1675.859	1631.894
496.693	21.238	1674.837	1629.405
497.708	21.272	1673.515	1628.247
498.722	21.135	1671.579	1624.881
499.737	21.132	1669.785	1622.920
500.752	21.337	1668.744	1623.630
501.766	21.465	1667.686	1623.599
502.781	21.371	1666.444	1621.314
503.795	21.499	1664.247	1620.181
504.810	21.413	1663.368	1618.330
505.825	21.258	1662.348	1615.700
506.839	21.165	1661.644	1613.958
507.854	21.232	1660.364	1613.142
508.868	21.246	1658.276	1611.054
509.883	21.085	1657.395	1608.516
510.898	20.855	1656.035	1604.865
511.912	20.972	1654.051	1603.834
512.927	21.110	1652.316	1603.234
513.941	21.120	1651.132	1601.990
514.956	21.157	1650.447	1601.471
515.971	21.073	1649.344	1599.441
516.985	21.010	1647.935	1597.297
518.000	21.055	1647.505	1597.106
519.014	20.784	1645.591	1592.568
520.029	20.709	1643.466	1589.633
521.043	20.762	1642.384	1588.886
522.058	20.904	1641.737	1589.366
523.073	20.981	1640.097	1588.298
524.087	20.703	1639.251	1584.742
525.102	20.849	1637.853	1584.532
526.116	21.251	1637.689	1587.857
527.131	21.444	1636.954	1588.721
528.146	21.054	1635.363	1583.425
529.160	20.930	1633.354	1580.163
530.175	20.855	1632.614	1578.579
531.189	20.857	1631.416	1577.249
532.204	20.932	1628.886	1575.296
533.219	20.840	1628.866	1574.251
534.233	21.221	1627.763	1576.455
535.248	20.890	1626.010	1571.567
536.262	20.548	1624.571	1566.887
537.277	20.633	1622.866	1565.823
538.292	20.694	1621.481	1564.854
539.306	20.783	1619.424	1563.485
540.321	20.497	1618.812	1560.121
541.335	20.524	1617.752	1559.161
542.350	20.589	1615.655	1557.537
543.365	20.583	1613.924	1555.634
544.379	20.464	1613.187	1553.664
545.394	20.294	1612.695	1551.473
546.408	20.778	1611.727	1554.704
547.423	20.992	1611.911	1556.617
548.438	21.142	1610.423	1556.336
549.452	20.998	1608.506	1553.005
550.467	20.749	1607.213	1549.352
551.481	20.745	1606.211	1548.160
552.496	20.665	1605.218	1546.308
553.511	20.557	1603.605	1543.604
554.525	20.633	1602.049	1542.594
555.540	20.629	1601.689	1542.026
556.554	20.533	1600.466	1539.809
557.569	20.583	1598.756	1538.424
558.583	20.801	1597.422	1538.897
559.598	20.797	1596.720	1537.996
560.613	20.789	1595.607	1536.677
561.627	20.842	1592.620	1534.085
562.642	20.535	1591.127	1529.747
563.656	20.300	1590.229	1526.623
564.671	20.219	1589.336	1524.861
565.686	20.293	1588.517	1524.550
566.700	20.312	1586.762	1522.851
567.715	20.429	1585.761	1522.735
568.729	20.464	1584.734	1521.883
569.744	20.656	1583.400	1522.108
570.759	20.436	1582.382	1519.007
571.773	20.676	1580.893	1519.507
572.788	20.398	1579.373	1515.423
573.802	20.392	1577.616	1513.508
574.817	20.382	1575.288	1511.001
575.832	20.095	1574.450	1507.508
576.846	20.315	1573.865	1508.694
577.861	20.514	1572.618	1509.054
578.875	20.487	1571.638	1507.692
579.890	20.418	1570.993	1506.298
580.905	20.239	1570.107	1503.707
581.919	20.310	1569.490	1503.552
582.934	20.182	1567.911	1500.743
583.948	20.169	1566.559	1499.156
584.963	20.300	1565.290	1498.899
585.978	20.382	1564.885	1499.046
586.992	20.265	1563.158	1496.197
588.007	20.030	1562.110	1492.985
589.021	20.204	1561.074	1493.321
590.036	20.432	1559.939	1494.027
591.051	20.153	1559.101	1490.630
592.065	19.897	1557.469	1486.683
593.080	20.053	1554.967	1485.461
594.094	20.112	1553.879	1484.753
595.109	20.363	1553.122	1486.017
596.123	20.617	1552.215	1487.149
597.138	20.596	1550.470	1485.124
598.153	20.490	1548.647	1482.289
599.167	20.340	1547.797	1480.014
600.182	20.245	1546.822	1478.091
601.196	20.231	1545.928	1476.936
602.211	20.260	1544.940	1476.065
603.226	20.226	1543.138	1473.879
604.240	20.209	1540.929	1471.441
605.255	20.033	1540.048	1468.925
606.269	20.032	1539.791	1468.499
607.284	20.310	1538.223	1469.197
608.299	20.187	1537.081	1466.882
609.313	20.340	1536.308	1467.263
610.328	20.238	1534.740	1464.727
611.342	20.189	1533.164	1462.636
612.357	20.109	1532.651	1461.293
613.372	20.085	1531.374	1459.691
614.386	19.924	1530.629	1457.448
615.401	20.070	1529.420	1457.353
616.415	19.975	1527.834	1454.869
617.430	19.848	1527.194	1453.016
618.445	19.830	1525.764	1451.329
619.459	19.873	1525.593	1451.356
620.474	20.015	1524.746	1451.572
621.488	20.252	1523.846	1452.531
622.503	20.452	1522.320	1452.583
623.518	20.157	1520.675	1448.367
624.532	19.886	1519.686	1444.977
625.547	19.753	1517.930	1442.018
626.561	19.688	1516.634	1440.073
627.576	19.580	1515.468	1437.887
628.591	19.807	1515.456	1439.601
629.605	20.087	1514.295	1440.669
630.620	20.106	1513.096	1439.515
631.634	20.127	1512.399	1438.856
632.649	20.161	1511.055	1437.689
633.663	19.836	1509.469	1433.299
634.678	19.689	1507.980	1430.494
635.693	19.521	1505.599	1426.662
636.707	19.687	1503.853	1426.215
637.722	19.530	1503.139	1424.070
638.736	19.705	1502.085	1424.347
639.751	19.799	1501.693	1424.587
640.766	19.901	1500.027	1423.677
641.780	19.810	1498.974	1421.758
642.795	19.895	1498.335	1421.684
643.809	20.043	1497.211	1421.666
644.824	20.092	1496.140	1420.884
645.839	19.997	1495.404	1419.232
646.853	20.069	1493.770	1418.103
647.868	19.971	1492.635	1416.050
648.882	19.928	1491.816	1414.753
649.897	19.972	1490.032	1413.252
650.912	19.862	1488.834	1411.039
651.926	19.928	1487.229	1409.896
652.941	19.795	1486.643	1408.082
653.955	19.974	1485.910	1408.679
654.970	20.035	1483.906	1407.110
655.985	20.109	1482.180	1405.913
656.999	20.057	1481.585	1404.756
658.014	19.918	1479.805	1401.766
659.028	19.919	1478.559	1400.422
660.043	19.950	1477.356	1399.368
661.058	19.768	1476.298	1396.723
662.072	19.887	1475.527	1396.791
663.087	19.888	1474.524	1395.686
664.101	19.899	1474.127	1395.232
665.116	19.894	1472.538	1393.515
666.131	19.616	1471.702	1390.315
667.145	19.850	1470.592	1390.985
668.160	19.722	1469.281	1388.551
669.174	19.720	1467.080	1386.284
670.189	19.722	1466.247	1385.352
671.204	19.793	1466.213	1385.721
672.218	19.840	1465.016	1384.805
673.233	19.820	1463.087	1382.652
674.247	19.654	1462.358	1380.464
675.262	19.476	1461.778	1378.326
676.276	19.548	1460.164	1377.216
677.291	19.818	1459.315	1378.412
678.306	19.876	1458.803	1378.225
679.320	20.014	1456.702	1377.184
680.335	19.703	1456.317	1374.170
681.349	19.661	1455.642	1373.031
682.364	19.683	1454.613	1372.067
683.379	19.708	1453.775	1371.312
684.393	19.575	1451.644	1368.083
685.408	19.352	1451.249	1365.768
686.422	19.487	1450.134	1365.633
687.437	19.483	1449.094	1364.461
688.452	19.303	1447.902	1361.740
689.466	19.486	1445.856	1361.108
690.481	19.258	1445.225	1358.539
691.495	19.388	1444.858	1359.067
692.510	19.758	1444.099	1361.115
693.525	20.013	1442.118	1361.102
694.539	19.868	1440.539	1358.307
695.554	19.525	1439.950	1354.884
696.568	19.362	1439.163	1352.693
697.583	19.244	1438.132	1350.629
698.598	19.213	1437.620	1349.745
699.612	19.243	1436.015	1348.312
700.627	19.440	1434.481	1348.262
701.641	19.521	1433.008	1347.349
702.656	19.610	1432.096	1347.029
703.671	19.569	1431.680	1346.152
704.685	19.522	1431.031	1345.014
705.700	19.555	1429.889	1344.035
706.714	19.578	1429.247	1343.451
707.729	19.601	1427.794	1342.106
708.744	19.761	1425.355	1340.903
709.758	19.546	1424.537	1338.292
710.773	19.649	1424.073	1338.498
711.787	19.754	1422.460	1337.640
712.802	19.624	1420.586	1334.712
713.816	19.540	1420.384	1333.709
714.831	19.703	1419.446	1333.932
715.846	19.401	1417.817	1329.900
716.860	19.433	1416.876	1329.109
717.875	19.664	1415.543	1329.486
718.889	19.522	1415.229	1327.932
719.904	19.529	1414.037	1326.712
720.919	19.444	1412.585	1324.529
721.933	19.335	1412.266	1323.236
722.948	19.406	1410.640	1322.095
723.962	19.473	1409.533	1321.420
724.977	19.442	1408.574	1320.125
725.992	19.448	1407.054	1318.587
727.006	19.514	1406.245	1318.180
728.021	19.359	1404.878	1315.551
729.035	19.195	1404.236	1313.537
730.050	19.334	1402.726	1313.025
731.065	19.529	1401.393	1313.115
732.079	19.537	1400.254	1311.953
733.094	19.475	1399.831	1310.922
734.108	19.533	1398.040	1309.532
735.123	19.490	1396.339	1307.453
736.138	19.500	1395.407	1306.503
737.152	19.536	1394.753	1306.011
738.167	19.255	1393.921	1302.933
739.181	19.306	1392.681	1302.005
740.196	19.410	1391.536	1301.571
741.211	19.371	1391.258	1300.858
742.225	19.307	1390.417	1299.433
743.240	19.477	1388.093	1298.390
744.254	19.443	1387.104	1297.052
745.269	19.203	1386.424	1294.447
746.284	19.171	1385.677	1293.353
747.298	19.155	1384.726	1292.190
748.313	19.247	1383.968	1292.024
749.327	19.523	1383.808	1293.796
750.342	19.619	1383.268	1293.864
751.356	19.830	1381.874	1293.992
752.371	19.710	1379.980	1291.164
753.386	19.404	1378.676	1287.489
754.400	19.319	1377.226	1285.348
755.415	19.419	1376.294	1285.073
756.429	19.462	1374.861	1283.904
757.444	19.339	1373.731	1281.772
758.459	19.398	1372.806	1281.199
759.473	19.323	1371.950	1279.687
760.488	19.255	1371.081	1278.214
761.502	19.387	1369.806	1277.858
762.517	19.423	1368.670	1276.907
763.532	19.475	1367.634	1276.175
764.546	19.324	1367.117	1274.424
765.561	19.463	1366.129	1274.380
766.575	19.689	1365.883	1275.671
767.590	19.753	1364.426	1274.633
768.605	19.640	1362.790	1272.118
769.619	19.485	1361.331	1269.454
770.634	19.374	1359.594	1266.865
771.648	19.398	1358.669	1266.029
772.663	19.251	1358.508	1264.641
773.678	19.391	1357.642	1264.716
774.692	19.257	1357.083	1263.062
775.707	19.234	1356.189	1261.908
776.721	19.340	1355.155	1261.569
777.736	19.291	1353.949	1259.935
778.751	19.265	1352.803	1258.531
779.765	19.294	1351.855	1257.712
780.780	19.357	1351.023	1257.251
781.794	19.104	1350.478	1254.736
782.809	19.162	1348.809	1253.464
783.824	19.141	1347.882	1252.297
784.838	19.117	1347.627	1251.731
785.853	19.464	1346.113	1252.709
786.867	19.268	1345.583	1250.635
787.882	19.241	1345.229	1249.960
788.897	19.023	1344.250	1247.314
789.911	19.033	1342.730	1245.824
790.926	19.123	1340.875	1244.611
791.940	19.012	1339.338	1242.232
792.955	19.090	1337.866	1241.281
793.969	18.977	1337.758	1240.209
794.984	19.078	1336.898	1239.999
795.999	19.177	1335.259	1239.045
797.013	19.206	1333.681	1237.646
798.028	19.199	1332.781	1236.611
799.042	19.183	1331.873	1235.500
800.057	19.188	1330.710	1234.311
801.072	19.238	1329.040	1232.978
802.086	19.107	1328.252	1231.151
803.101	19.119	1327.902	1230.770
804.115	19.244	1326.790	1230.488
805.130	19.081	1325.877	1228.328
806.145	19.209	1324.316	1227.651
807.159	19.232	1322.332	1225.827
808.174	19.282	1321.945	1225.680
809.188	19.338	1320.850	1224.917
810.203	19.227	1319.288	1222.527
811.218	19.402	1318.104	1222.537
812.232	19.509	1316.435	1221.599
813.247	19.469	1316.010	1220.776
814.261	19.262	1315.749	1218.914
815.276	19.317	1313.796	1217.351
816.291	19.149	1313.198	1215.459
817.305	19.299	1312.214	1215.468
818.320	19.097	1311.062	1212.827
819.334	18.926	1310.186	1210.655
820.349	19.158	1308.320	1210.430
821.364	19.074	1306.263	1207.786
822.378	19.107	1305.324	1207.010
823.393	19.168	1303.650	1205.747
824.407	19.097	1302.393	1203.936
825.422	18.948	1302.373	1202.725
826.437	19.023	1301.206	1202.036
827.451	19.111	1299.411	1200.851
828.466	19.238	1297.710	1200.019
829.480	19.354	1296.479	1199.549
830.495	19.346	1294.432	1197.462
831.509	19.066	1294.089	1195.041
832.524	19.076	1293.194	1194.145
833.539	18.999	1292.129	1192.480
834.553	19.075	1291.305	1192.106
835.568	19.182	1289.697	1191.221
836.582	19.309	1288.566	1190.919
837.597	19.190	1287.836	1189.273
838.612	19.165	1286.539	1187.762
839.626	19.279	1285.224	1187.197
840.641	19.309	1284.789	1186.859
841.655	19.283	1284.088	1185.886
842.670	19.490	1283.290	1186.439
843.685	19.471	1282.793	1185.707
844.699	19.428	1281.025	1183.638
845.714	19.398	1278.958	1181.380
846.728	19.343	1278.342	1180.288
847.743	19.287	1277.071	1178.587
848.758	19.080	1275.940	1175.985
849.772	19.192	1274.517	1175.297
850.787	19.171	1272.839	1173.468
851.801	19.112	1271.724	1171.896
852.816	19.101	1270.706	1170.744
853.831	19.072	1269.751	1169.520
854.845	18.999	1268.092	1167.355
855.860	18.976	1266.224	1165.339
856.874	19.035	1265.095	1164.566
857.889	19.160	1263.977	1164.243
858.904	19.306	1262.815	1164.029
859.918	19.507	1261.476	1164.017
860.933	19.466	1260.550	1162.745
861.947	19.293	1259.906	1160.840
862.962	19.144	1258.490	1158.389
863.977	19.072	1256.752	1156.163
864.991	18.904	1256.429	1154.592
866.006	19.037	1256.165	1155.111
867.020	19.144	1254.771	1154.414
868.035	19.087	1253.381	1152.613
869.049	19.130	1252.445	1151.903
870.064	19.196	1251.592	1151.424
871.079	18.994	1251.370	1149.721
872.093	19.197	1250.852	1150.474
873.108	19.274	1249.153	1149.289
874.122	19.274	1248.080	1148.166
875.137	19.410	1247.961	1148.829
876.152	19.475	1246.797	1148.056
877.166	19.512	1244.873	1146.392
878.181	19.426	1243.577	1144.489
879.195	19.317	1243.097	1143.184
880.210	19.281	1242.590	1142.342
881.225	19.239	1241.268	1140.707
882.239	19.177	1240.236	1139.209
883.254	19.248	1239.383	1138.762
884.268	19.157	1238.454	1137.165
885.283	19.362	1236.598	1136.685
886.298	19.149	1234.928	1133.603
887.312	19.188	1234.014	1132.891
888.327	19.281	1233.324	1132.733
889.341	19.231	1231.993	1131.047
890.356	19.095	1231.685	1129.731
891.371	19.084	1231.578	1129.423
892.385	19.142	1230.701	1128.866
893.400	19.168	1229.498	1127.804
894.414	19.133	1228.474	1126.497
895.429	19.255	1227.070	1125.878
896.444	19.604	1225.376	1126.474
897.458	19.899	1224.975	1127.904
898.473	19.594	1223.896	1124.781
899.487	19.442	1222.822	1122.664
900.502	19.195	1222.072	1120.227
901.517	19.219	1220.791	1119.077
902.531	19.110	1219.062	1116.645
903.546	19.295	1218.750	1117.428
904.560	19.124	1218.520	1115.970
905.575	19.349	1217.585	1116.449
906.589	19.400	1216.803	1115.925
907.604	19.315	1216.037	1114.537
