DTS Sentinel unit serial number:	SN409020Multiplexer serial number:	ORYXHardware model number:	OX4-SRSoftware version number:	ORYX F/W v3.00 Oryx Data Collector v3.7.2.0data status	okinstallation	HaddamTimeLapsedifferential loss correction	single-endedforward channel	channel 3reverse channel	N/Adate	2011/06/21time	18:51:17forward acquisition time	30.00reverse acquisition time	0.00gamma	498.7831k internal	0.1811k external	0.1811temperature offset calibration	1.0074default loss term (dB/km)	0.3790temperature slope calibration	1.3530multiplexer offset coefficient	1.0000multiplexer slope coefficient	1.0000fibre end	0.00T internal ref (°C)	35.47T ext. ref 1 (°C)	27.21T ext. ref 2 (°C)	0.25length (m)	temperature (°C)	Stokes	anti-Stokes-747.200	-126.376	-0.652	-0.124
-746.185	-200.000	0.008	0.229
-745.171	800.000	0.073	-0.388
-744.156	579.124	0.133	0.419
-743.142	-69.323	-0.426	-0.209
-742.127	-200.000	0.022	0.328
-741.112	800.000	0.041	-0.202
-740.098	800.000	-0.084	0.387
-739.083	-85.059	-0.246	0.099
-738.069	-45.771	0.274	0.173
-737.054	-14.840	0.290	-0.239
-736.039	190.382	0.082	0.159
-735.025	-138.617	0.576	-0.080
-734.010	194.464	0.280	0.548
-732.996	-200.000	0.000	0.007
-731.981	172.364	0.198	0.366
-730.966	-156.874	0.763	0.059
-729.952	-117.307	-0.341	-0.079
-728.937	-126.836	-0.283	-0.053
-727.923	-26.962	-0.286	0.214
-726.908	-200.000	0.002	0.466
-725.894	-200.000	0.022	0.414
-724.879	-116.790	-0.263	-0.061
-723.864	-53.727	-0.404	-0.236
-722.850	235.360	-0.183	-0.389
-721.835	-64.295	-0.449	-0.234
-720.821	-118.905	-0.438	-0.098
-719.806	21.932	-0.602	0.629
-718.791	-80.387	0.562	0.240
-717.777	26.325	-0.015	0.017
-716.762	-32.837	-0.096	-0.068
-715.748	-13.678	-0.059	-0.049
-714.733	-92.017	-0.451	0.163
-713.718	-88.201	-0.183	-0.070
-712.704	800.000	-0.163	-0.584
-711.689	-81.385	-0.259	-0.109
-710.675	-55.829	0.237	-0.135
-709.660	800.000	0.082	-0.440
-708.645	-144.923	-0.345	-0.040
-707.631	800.000	0.074	0.290
-706.616	-8.449	-0.167	0.144
-705.602	294.426	0.188	-0.442
-704.587	49.643	0.196	-0.237
-703.572	65.000	0.079	0.103
-702.558	407.428	0.100	-0.274
-701.543	-44.596	-0.267	-0.171
-700.529	-110.730	-0.834	-0.219
-699.514	732.398	0.068	-0.234
-698.499	-61.811	0.150	0.080
-697.485	-33.423	0.085	0.060
-696.470	93.086	0.125	-0.182
-695.456	211.514	0.080	-0.162
-694.441	-200.000	0.005	-0.280
-693.426	89.898	0.281	-0.403
-692.412	-63.731	-0.330	-0.173
-691.397	800.000	0.034	0.142
-690.383	-200.000	0.025	-0.241
-689.368	524.620	-0.120	-0.363
-688.354	-104.234	-0.105	0.031
-687.339	-157.539	-0.222	0.017
-686.324	88.025	0.155	-0.220
-685.310	-200.000	0.009	-0.309
-684.295	-150.044	0.108	-0.011
-683.281	-200.000	-0.020	-0.424
-682.266	-90.542	0.454	0.168
-681.251	-51.584	0.280	-0.167
-680.237	-54.196	0.656	-0.381
-679.222	-152.445	0.717	0.065
-678.208	3.087	-0.200	-0.186
-677.193	-190.736	-0.151	0.002
-676.178	18.911	0.131	-0.135
-675.164	-78.169	-0.335	-0.147
-674.149	-200.000	-0.004	0.198
-673.135	-53.434	0.207	0.121
-672.120	-200.000	0.042	-0.347
-671.105	409.999	0.112	0.307
-670.091	-71.329	-0.447	0.214
-669.076	-200.000	-0.018	0.239
-668.062	-85.982	0.282	0.111
-667.047	-100.481	0.343	-0.108
-666.032	13.338	-0.154	-0.153
-665.018	115.752	-0.039	-0.062
-664.003	-8.045	-0.193	-0.166
-662.989	800.000	-0.022	0.081
-661.974	-104.595	-0.355	0.104
-660.959	800.000	-0.052	0.189
-659.945	-107.693	0.173	-0.048
-658.930	800.000	-0.090	0.436
-657.916	29.271	-0.326	-0.355
-656.901	105.469	-0.198	0.300
-655.886	296.052	0.091	-0.215
-654.872	-99.822	-0.146	-0.046
-653.857	214.245	0.197	-0.400
-652.843	-147.250	0.302	0.032
-651.828	202.928	0.115	0.229
-650.814	25.454	0.196	-0.208
-649.799	-61.854	0.499	-0.266
-648.784	35.686	-0.052	-0.058
-647.770	-93.696	-0.292	0.102
-646.755	-200.000	-0.014	0.200
-645.741	-128.224	0.262	0.047
-644.726	93.057	0.121	0.175
-643.711	-158.110	0.518	-0.038
-642.697	22.976	0.046	0.048
-641.682	234.756	0.083	-0.175
-640.668	800.000	-0.051	-0.207
-639.653	800.000	0.044	-0.196
-638.638	218.807	0.218	0.448
-637.624	-93.345	0.467	-0.165
-636.609	-48.246	-0.335	-0.206
-635.595	153.795	0.130	-0.228
-634.580	29.358	0.124	-0.135
-633.565	-25.368	-0.088	-0.067
-632.551	243.465	-0.048	0.103
-631.536	-100.487	0.563	-0.177
-630.522	-70.302	0.389	-0.188
-629.507	200.241	0.151	0.298
-628.492	33.061	-0.157	-0.174
-627.478	36.242	-0.302	-0.340
-626.463	-200.000	0.027	0.208
-625.449	728.434	0.118	0.407
-624.434	-44.352	-0.428	0.274
-623.419	279.691	-0.212	0.487
-622.405	-77.153	-0.279	0.124
-621.390	-51.743	0.205	0.121
-620.376	-141.029	-0.279	0.036
-619.361	800.000	0.014	-0.067
-618.346	-88.921	-0.431	-0.162
-617.332	-10.656	0.126	-0.107
-616.317	179.939	-0.119	0.223
-615.303	-29.924	-0.351	-0.255
-614.288	50.980	-0.379	-0.460
-613.273	23.405	0.315	0.331
-612.259	-19.222	-0.318	0.252
-611.244	-70.313	-0.170	0.082
-610.230	112.362	0.111	0.171
-609.215	-113.363	0.140	0.035
-608.201	21.177	-0.082	-0.085
-607.186	-58.279	-0.252	0.140
-606.171	-200.000	0.038	0.283
-605.157	-200.000	-0.018	0.156
-604.142	98.312	-0.183	-0.270
-603.128	-171.544	-0.519	0.022
-602.113	-72.382	0.190	-0.090
-601.098	-200.000	-0.005	-0.268
-600.084	-2.485	0.223	-0.199
-599.069	574.791	0.047	0.149
-598.055	93.340	0.275	-0.398
-597.040	-182.792	0.294	0.007
-596.025	800.000	-0.144	-0.594
-595.011	-200.000	-0.045	0.530
-593.996	800.000	-0.038	0.210
-592.982	102.644	0.225	0.336
-591.967	-2.045	0.162	0.145
-590.952	-7.694	0.131	0.113
-589.938	386.621	0.054	0.143
-588.923	17.130	0.316	-0.319
-587.909	272.495	0.144	-0.325
-586.894	501.016	0.108	-0.318
-585.879	79.920	0.325	-0.447
-584.865	26.072	0.351	-0.374
-583.850	73.721	0.407	-0.545
-582.836	15.507	0.290	0.290
-581.821	-75.299	-0.266	0.121
-580.806	-59.660	0.451	-0.246
-579.792	330.916	-0.273	0.674
-578.777	800.000	-0.070	0.269
-577.763	175.866	0.134	0.249
-576.748	-84.698	-0.266	0.106
-575.733	-200.000	0.018	-0.226
-574.719	-127.017	0.220	-0.041
-573.704	-200.000	0.021	0.565
-572.690	800.000	-0.101	-0.502
-571.675	79.968	-0.117	-0.161
-570.661	37.991	0.625	-0.709
-569.646	-9.411	0.095	0.081
-568.631	-200.000	0.002	-0.280
-567.617	-25.591	0.315	0.237
-566.602	314.061	-0.159	-0.384
-565.588	-60.479	-0.128	-0.069
-564.573	-131.156	-0.222	-0.037
-563.558	-70.835	-0.133	0.064
-562.544	-200.000	0.020	0.325
-561.529	-71.276	-0.146	0.070
-560.515	-57.552	0.391	0.218
-559.500	-180.024	-0.138	0.004
-558.485	-200.000	-0.057	0.731
-557.471	-77.900	-0.126	0.055
-556.456	-200.000	-0.061	0.659
-555.442	-105.790	0.295	0.084
-554.427	-100.958	-0.392	0.122
-553.412	-111.083	-0.248	0.064
-552.398	800.000	-0.027	0.126
-551.383	116.417	0.131	-0.204
-550.369	-79.462	-0.051	-0.022
-549.354	-115.277	0.271	0.065
-548.339	11.564	-0.110	-0.107
-547.325	120.724	0.192	-0.305
-546.310	-200.000	0.022	0.243
-545.296	-132.805	-0.519	-0.084
-544.281	4.985	-0.115	0.107
-543.266	563.124	0.041	-0.127
-542.252	-43.469	0.414	-0.265
-541.237	436.635	0.167	0.465
-540.223	41.362	0.064	-0.074
-539.208	-77.813	0.439	0.192
-538.193	4.413	-0.164	-0.153
-537.179	-128.933	-0.131	-0.023
-536.164	-200.000	0.004	0.070
-535.150	-21.798	0.448	0.347
-534.135	-82.858	0.207	-0.085
-533.121	-3.758	0.146	0.129
-532.106	-200.000	0.012	0.229
-531.091	-57.993	-0.333	-0.185
-530.077	149.620	0.100	0.173
-529.062	800.000	-0.046	0.256
-528.048	-68.749	0.492	0.242
-527.033	-49.732	0.361	0.218
-526.018	800.000	0.045	0.179
-525.004	-55.765	-0.236	-0.134
-523.989	-200.000	-0.002	0.139
-522.975	46.561	-0.154	-0.182
-521.960	-154.932	-0.619	0.051
-520.945	-115.421	-0.537	-0.128
-519.931	-153.128	0.596	0.053
-518.916	13.007	0.480	0.472
-517.902	91.434	-0.266	0.381
-516.887	800.000	-0.128	0.609
-515.872	91.222	0.038	0.055
-514.858	193.575	-0.165	-0.319
-513.843	69.736	0.026	-0.034
-512.829	800.000	0.053	0.207
-511.814	-17.214	-0.096	0.077
-510.799	-200.000	-0.017	-0.133
-509.785	-153.168	0.081	0.007
-508.770	-47.480	0.282	0.174
-507.756	-84.771	0.079	0.031
-506.741	-184.968	0.157	-0.003
-505.726	-200.000	-0.076	0.443
-504.712	-35.764	0.205	0.141
-503.697	233.299	0.062	0.130
-502.683	56.749	-0.192	0.238
-501.668	46.281	-0.295	0.347
-500.653	-200.000	0.003	0.107
-499.639	-148.526	0.412	-0.042
-498.624	-55.552	0.305	-0.173
-497.610	173.314	-0.112	0.205
-496.595	-184.534	0.439	-0.009
-495.581	151.745	0.201	0.350
-494.566	281.757	0.073	0.168
-493.551	64.499	-0.124	0.158
-492.537	-105.428	-0.354	-0.102
-491.522	115.320	0.203	-0.316
-490.508	95.832	0.087	0.126
-489.493	217.433	-0.251	0.509
-488.478	-69.108	-0.655	-0.319
-487.464	-78.800	-0.302	-0.130
-486.449	188.282	0.129	-0.245
-485.435	-57.171	0.228	-0.127
-484.420	471.009	-0.089	-0.254
-483.405	212.502	-0.079	-0.158
-482.391	-70.126	0.076	-0.036
-481.376	242.794	0.183	0.391
-480.362	-13.157	0.332	-0.274
-479.347	-131.734	0.124	0.020
-478.332	-156.027	-0.342	-0.027
-477.318	-89.569	-0.343	-0.127
-476.303	-24.375	-0.167	-0.126
-475.289	-48.505	-0.331	-0.202
-474.274	197.238	0.153	-0.298
-473.259	198.963	-0.043	-0.084
-472.245	-100.017	-0.364	-0.115
-471.230	30.270	-0.307	-0.333
-470.216	35.291	-0.161	0.179
-469.201	800.000	0.011	-0.055
-468.186	-147.900	-0.280	-0.029
-467.172	-200.000	-0.098	0.598
-466.157	-104.068	0.146	0.043
-465.143	615.586	0.021	-0.067
-464.128	-200.000	-0.007	0.309
-463.113	-200.000	0.033	-0.371
-462.099	-148.474	-0.152	-0.016
-461.084	-8.583	-0.231	-0.197
-460.070	415.241	-0.107	-0.292
-459.055	97.973	-0.120	0.175
-458.040	66.161	-0.150	0.194
-457.026	-56.503	-0.329	-0.185
-456.011	168.845	0.098	-0.177
-454.997	-61.841	-0.460	-0.243
-453.982	121.871	-0.213	-0.338
-452.968	-85.854	0.331	0.129
-451.953	-120.219	-0.187	0.040
-450.938	-200.000	-0.008	0.214
-449.924	-166.463	-0.253	0.013
-448.909	-200.000	-0.023	-0.330
-447.895	787.385	0.106	0.372
-446.880	198.623	0.202	0.393
-445.865	-35.612	-0.118	0.081
-444.851	387.157	0.159	-0.419
-443.836	-200.000	-0.004	-0.133
-442.822	-200.000	-0.060	0.422
-441.807	-70.770	0.254	-0.121
-440.792	-200.000	0.004	-0.038
-439.778	800.000	0.199	0.752
-438.763	-168.927	-0.360	0.017
-437.749	-37.412	-0.032	-0.022
-436.734	172.161	-0.268	0.491
-435.719	-98.316	-0.176	0.057
-434.705	-63.198	-0.091	-0.047
-433.690	-200.000	-0.018	0.304
-432.676	97.982	0.106	-0.155
-431.661	800.000	0.085	-0.345
-430.646	800.000	-0.125	-0.444
-429.632	-43.514	0.210	-0.134
-428.617	800.000	-0.096	0.473
-427.603	-200.000	-0.046	-0.274
-426.588	-84.931	-0.279	-0.111
-425.573	-7.952	0.128	-0.109
-424.559	2.668	-0.348	-0.319
-423.544	-0.888	0.435	0.390
-422.530	-200.000	0.020	-0.432
-421.515	236.125	0.127	-0.267
-420.500	-84.502	-0.367	0.146
-419.486	-10.910	0.215	0.180
-418.471	800.000	-0.033	0.137
-417.457	89.894	-0.197	-0.279
-416.442	-119.290	0.243	0.053
-415.428	634.878	0.076	0.246
-414.413	-94.599	-0.239	0.082
-413.398	-75.961	-0.605	-0.270
-412.384	-200.000	0.014	0.134
-411.369	-96.452	0.029	-0.010
-410.355	99.146	0.189	0.277
-409.340	-124.913	0.159	-0.031
-408.325	-200.000	0.038	-0.301
-407.311	-122.012	0.107	-0.022
-406.296	-134.056	-0.223	-0.035
-405.282	495.216	0.146	0.428
-404.267	-98.220	0.252	0.082
-403.252	-62.998	0.288	-0.150
-402.238	-90.765	-0.177	-0.064
-401.223	99.606	-0.192	0.282
-400.209	-93.826	-0.211	-0.073
-399.194	-41.315	0.245	-0.160
-398.179	-31.134	-0.345	0.246
-397.165	54.591	0.109	-0.133
-396.150	-130.949	-0.321	-0.054
-395.136	800.000	0.102	-0.430
-394.121	88.802	-0.185	0.261
-393.106	36.841	0.134	0.150
-392.092	-200.000	-0.105	-0.720
-391.077	-89.700	0.322	-0.119
-390.063	141.086	-0.047	0.078
-389.048	612.448	-0.128	-0.408
-388.033	-15.172	-0.110	-0.089
-387.019	800.000	-0.032	-0.151
-386.004	23.067	0.417	-0.433
-384.990	15.582	-0.237	-0.235
-383.975	238.926	0.087	0.183
-382.960	-200.000	-0.027	0.742
-381.946	-57.298	-0.239	-0.132
-380.931	-200.000	0.020	-0.112
-379.917	-124.151	0.230	0.045
-378.902	800.000	0.006	-0.024
-377.888	154.434	-0.304	0.530
-376.873	800.000	-0.174	-0.657
-375.858	0.479	0.123	0.111
-374.844	800.000	-0.012	0.044
-373.829	-139.811	-0.273	0.036
-372.815	345.914	-0.089	0.223
-371.800	-71.661	0.233	0.110
-370.785	-42.156	0.193	0.125
-369.771	128.361	0.080	-0.129
-368.756	800.000	-0.071	-0.394
-367.742	-67.945	-0.286	-0.141
-366.727	-200.000	0.086	0.507
-365.712	164.805	-0.163	-0.292
-364.698	455.099	-0.093	-0.263
-363.683	-108.247	0.298	0.081
-362.669	800.000	-0.088	-0.384
-361.654	-31.404	-0.280	0.199
-360.639	-41.531	0.319	-0.207
-359.625	94.395	0.379	-0.546
-358.610	-134.606	0.384	-0.059
-357.596	196.349	-0.058	0.112
-356.581	239.730	-0.087	0.184
-355.566	-148.601	-0.294	-0.030
-354.552	-79.820	-0.282	-0.120
-353.537	-124.749	0.269	-0.052
-352.523	-84.130	-0.203	-0.081
-351.508	-89.276	-0.058	-0.022
-350.493	-200.000	-0.035	0.204
-349.479	-26.208	-0.111	0.083
-348.464	51.770	-0.127	0.153
-347.450	78.700	0.280	0.379
-346.435	-200.000	0.012	-0.324
-345.420	289.699	-0.126	0.290
-344.406	-133.013	-0.460	0.073
-343.391	-200.000	0.057	0.330
-342.377	800.000	0.073	-0.310
-341.362	-172.263	0.154	0.006
-340.348	800.000	0.145	-0.746
-339.333	48.737	0.351	0.417
-338.318	-94.029	-0.509	-0.176
-337.304	-40.190	0.101	-0.066
-336.289	146.839	0.335	0.571
-335.275	-200.000	-0.035	0.283
-334.260	-200.000	0.042	-0.290
-333.245	-93.283	-0.183	-0.064
-332.231	-115.785	-0.560	-0.131
-331.216	-85.777	-0.347	0.135
-330.202	-32.412	-0.299	-0.210
-329.187	376.987	0.254	-0.658
-328.172	-75.517	0.489	0.219
-327.158	-40.347	-0.329	-0.216
-326.143	43.164	0.144	0.167
-325.129	-200.000	-0.099	0.573
-324.114	-200.000	0.008	0.288
-323.099	73.717	-0.183	0.243
-322.085	321.110	-0.100	0.241
-321.070	30.247	-0.085	-0.092
-320.056	800.000	-0.055	0.225
-319.041	-74.755	-0.394	-0.178
-318.026	800.000	0.041	-0.214
-317.012	234.120	0.177	0.369
-315.997	-116.317	0.381	-0.088
-314.983	3.295	-0.210	0.193
-313.968	-98.941	-0.381	-0.121
-312.953	190.991	-0.208	-0.396
-311.939	19.131	0.125	0.126
-310.924	-159.855	0.411	-0.028
-309.910	800.000	-0.053	-0.219
-308.895	-200.000	-0.013	-0.157
-307.880	799.892	-0.017	0.059
-306.866	-120.235	-0.553	-0.118
-305.851	-102.717	0.083	0.025
-304.837	800.000	0.068	-0.316
-303.822	20.332	0.418	0.426
-302.807	107.778	0.144	-0.217
-301.793	465.011	-0.155	0.440
-300.778	-91.636	-0.235	0.084
-299.764	-71.532	0.677	0.318
-298.749	77.825	0.141	0.190
-297.735	-174.850	-0.563	0.020
-296.720	-200.000	-0.005	-0.238
-295.705	-200.000	0.005	0.363
-294.691	-200.000	-0.068	-0.525
-293.676	-47.292	-0.095	0.058
-292.662	800.000	-0.149	-0.622
-291.647	-109.535	-0.357	0.094
-290.632	-200.000	-0.005	-0.289
-289.618	154.787	0.200	-0.348
-288.603	378.483	0.129	0.334
-287.589	-137.515	0.604	0.085
-286.574	-147.873	0.095	-0.010
-285.559	323.619	-0.133	0.320
-284.545	-71.801	0.143	-0.067
-283.530	95.259	0.256	-0.368
-282.516	-74.369	-0.338	0.153
-281.501	800.000	0.120	0.629
-280.486	-50.134	0.153	0.091
-279.472	-65.452	0.202	0.102
-278.457	-48.307	-0.368	0.223
-277.443	-176.890	-0.127	0.004
-276.428	251.121	0.303	-0.652
-275.413	-200.000	0.031	0.210
-274.399	-130.947	0.155	0.026
-273.384	-200.000	0.038	0.217
-272.370	-17.185	-0.227	0.181
-271.355	16.199	0.128	-0.127
-270.340	-200.000	0.025	0.252
-269.326	161.539	0.234	0.414
-268.311	-49.488	0.235	-0.141
-267.297	260.865	0.105	-0.230
-266.282	-122.433	-0.153	0.031
-265.267	-200.000	0.008	-0.456
-264.253	7.483	0.548	0.516
-263.238	-200.000	0.011	-0.273
-262.224	800.000	-0.035	-0.189
-261.209	-11.755	0.158	-0.131
-260.195	146.684	-0.305	-0.518
-259.180	-118.829	-0.481	-0.106
-258.165	340.272	0.082	-0.202
-257.151	-19.359	0.117	-0.091
-256.136	125.802	-0.203	-0.324
-255.122	-42.951	0.485	-0.309
-254.107	754.230	-0.065	-0.223
-253.092	-0.097	-0.069	-0.062
-252.078	-200.000	0.032	-0.233
-251.063	163.826	0.105	-0.188
-250.049	47.683	-0.142	-0.167
-249.034	800.000	-0.047	-0.239
-248.019	-116.836	0.294	-0.067
-247.005	437.427	0.034	0.093
-245.990	153.177	-0.133	0.230
-244.976	-125.270	0.282	0.054
-243.961	-39.906	-0.294	-0.193
-242.946	-200.000	0.073	0.527
-241.932	106.707	-0.213	-0.318
-240.917	-8.107	0.193	0.163
-239.903	-145.266	-0.350	0.039
-238.888	285.337	-0.168	0.384
-237.873	-55.518	-0.072	-0.040
-236.859	145.780	0.162	-0.274
-235.844	-94.595	-0.304	-0.104
-234.830	-39.964	-0.107	0.070
-233.815	-200.000	0.022	-0.256
-232.800	-82.558	-0.377	0.153
-231.786	15.222	0.216	0.213
-230.771	131.589	0.156	0.254
-229.757	82.077	-0.109	-0.149
-228.742	267.985	-0.095	0.209
-227.727	-51.802	-0.177	-0.104
-226.713	-55.418	-0.237	0.134
-225.698	19.408	-0.293	-0.296
-224.684	-130.488	-0.214	0.036
-223.669	59.573	-0.239	-0.297
-222.655	-123.796	0.201	0.040
-221.640	-93.030	-0.271	-0.094
-220.625	-18.546	-0.424	-0.332
-219.611	-200.000	0.025	-0.278
-218.596	-51.862	-0.276	-0.161
-217.582	-48.997	0.353	0.212
-216.567	23.092	-0.129	-0.133
-215.552	-200.000	0.002	-0.259
-214.538	-104.913	0.177	-0.051
-213.523	-81.191	0.225	-0.093
-212.509	-106.127	-0.130	-0.037
-211.494	-142.154	0.249	-0.031
-210.479	-44.724	-0.532	-0.333
-209.465	-146.125	-0.297	0.032
-208.450	-200.000	0.011	0.125
-207.436	-94.733	0.117	0.040
-206.421	246.995	-0.224	-0.477
-205.406	-135.181	0.366	0.055
-204.392	-169.147	-0.139	-0.006
-203.377	67.949	0.166	0.214
-202.363	191.852	0.388	-0.737
-201.348	58.819	0.153	0.189
-200.333	-139.041	0.517	-0.070
-199.319	501.289	0.113	0.330
-198.304	186.761	0.035	-0.067
-197.290	418.161	0.077	0.207
-196.275	-138.499	0.366	0.050
-195.260	129.609	0.203	0.327
-194.246	281.443	0.123	-0.279
-193.231	45.079	0.299	0.347
-192.217	99.950	0.199	-0.290
-191.202	-200.000	0.038	-0.332
-190.187	-200.000	0.053	0.305
-189.173	25.205	0.362	-0.378
-188.158	105.931	-0.088	-0.131
-187.144	800.000	0.096	-0.422
-186.129	-200.000	-0.006	-0.305
-185.114	-200.000	-0.010	0.305
-184.100	232.201	0.259	0.536
-183.085	128.479	-0.132	0.212
-182.071	8.029	0.245	0.231
-181.056	-84.985	0.153	0.060
-180.042	458.214	0.046	0.130
-179.027	-188.101	0.352	-0.006
-178.012	-18.359	0.478	-0.375
-176.998	270.175	-0.182	-0.404
-175.983	-200.000	0.015	-0.182
-174.969	-169.935	0.493	0.022
-173.954	-64.057	-0.439	-0.224
-172.939	-175.754	-0.270	0.009
-171.925	-200.000	0.007	0.299
-170.910	800.000	-0.043	0.188
-169.896	209.297	-0.160	0.316
-168.881	-184.726	0.131	-0.003
-167.866	26.125	-0.384	-0.403
-166.852	-9.636	0.283	-0.237
-165.837	-30.116	0.173	0.123
-164.823	-200.000	-0.016	0.162
-163.808	272.743	-0.055	0.123
-162.793	-200.000	-0.043	0.360
-161.779	-24.888	-0.306	0.227
-160.764	-80.439	0.220	-0.092
-159.750	-101.642	0.082	0.025
-158.735	-133.026	-0.060	0.009
-157.720	-131.551	-0.239	0.039
-156.706	-108.196	-0.195	0.053
-155.691	203.270	-0.235	0.457
-154.677	-200.000	0.006	-0.039
-153.662	-200.000	0.028	0.244
-152.647	-35.557	-0.106	-0.072
-151.633	-62.483	-0.168	-0.087
-150.618	171.897	0.046	-0.084
-149.604	-113.430	0.270	-0.066
-148.589	-162.384	-0.509	-0.031
-147.574	188.432	-0.142	-0.268
-146.560	-71.475	-0.490	0.229
-145.545	-120.250	0.336	-0.071
-144.531	79.351	0.120	-0.162
-143.516	-164.600	0.235	-0.013
-142.502	70.580	-0.124	0.160
-141.487	-200.000	0.026	-0.481
-140.472	-66.505	0.361	-0.179
-139.458	-101.001	0.386	0.118
-138.443	72.015	0.063	-0.082
-137.429	800.000	0.102	-0.424
-136.414	172.801	-0.148	0.268
-135.399	0.227	-0.085	-0.076
-134.385	-15.923	-0.169	0.134
-133.370	-182.976	0.182	0.004
-132.356	800.000	0.049	0.214
-131.341	58.812	-0.235	0.290
-130.326	-50.476	0.232	-0.137
-129.312	-109.500	0.123	-0.032
-128.297	200.346	-0.194	0.375
-127.283	-86.198	-0.326	-0.125
-126.268	59.027	0.163	0.201
-125.253	620.833	0.100	0.317
-124.239	171.486	0.134	0.242
-123.224	788.845	0.233	0.809
-122.210	-97.660	0.404	-0.131
-121.195	264.134	0.083	-0.183
-120.180	-99.950	-0.150	-0.047
-119.166	-0.787	-0.349	-0.309
-118.151	-200.000	0.016	-0.188
-117.137	91.637	-0.067	-0.095
-116.122	-109.082	-0.146	-0.039
-115.107	-200.000	-0.016	0.246
-114.093	-109.961	-0.192	0.050
-113.078	40.350	0.096	0.108
-112.064	800.000	0.018	-0.065
-111.049	-200.000	-0.008	0.315
-110.034	6.933	-0.111	-0.104
-109.020	-10.742	0.265	0.219
-108.005	64.466	-0.102	-0.128
-106.991	258.165	0.106	-0.231
-105.976	-36.601	0.163	0.110
-104.962	-189.593	-0.224	0.003
-103.947	-175.259	-0.249	0.008
-102.932	-102.985	0.140	-0.041
-101.918	-40.134	-0.059	-0.038
-100.903	-7.723	0.275	-0.233
-99.889	-17.568	0.322	0.253
-98.874	131.292	-0.024	-0.039
-97.859	78.001	0.211	0.282
-96.845	-200.000	-0.082	-0.608
-95.830	704.660	0.047	0.155
-94.816	-200.000	-0.100	-0.676
-93.801	-90.696	-0.057	-0.020
-92.786	-200.000	-0.029	-0.416
-91.772	-96.110	-0.739	0.244
-90.757	-200.000	0.093	-0.528
-89.743	-93.929	-0.224	-0.077
-88.728	5.900	-0.119	0.110
-87.713	716.405	0.086	-0.288
-86.699	-57.197	0.438	-0.241
-85.684	-134.425	0.187	0.028
-84.670	-70.678	-0.136	-0.064
-83.655	-44.738	0.059	-0.037
-82.640	-91.076	0.179	0.064
-81.626	-122.343	0.128	0.026
-80.611	502.642	-0.106	-0.309
-79.597	-200.000	-0.066	0.507
-78.582	-200.000	-0.018	0.237
-77.567	-200.000	-0.002	-0.159
-76.553	450.822	0.082	-0.228
-75.538	-93.085	-0.452	-0.157
-74.524	45.972	0.093	0.108
-73.509	-67.588	-0.162	-0.079
-72.494	-34.790	-0.419	-0.286
-71.480	327.798	0.101	-0.245
-70.465	355.732	0.335	-0.838
-69.451	429.733	-0.109	-0.297
-68.436	-121.075	-0.200	0.042
-67.422	597.335	0.158	0.492
-66.407	94.770	-0.202	0.288
-65.392	-86.616	0.138	0.052
-64.378	438.613	-0.108	-0.296
-63.363	-148.772	-0.166	-0.017
-62.349	164.982	0.221	0.392
-61.334	-0.650	-1.455	-1.289
-60.319	-41.991	0.417	0.266
-59.305	360.730	-2.540	-6.389
-58.290	-17.424	3.673	2.886
-57.276	434.106	3.937	10.744
-56.261	-200.000	14.395	227.854
-55.246	470.104	1165.796	3292.130
-54.232	63.453	2813.088	3531.212
-53.217	71.762	2713.777	3530.201
-52.203	66.428	2439.664	3102.225
-51.188	41.096	2086.909	2357.257
-50.173	38.919	1955.646	2184.574
-49.159	36.448	1943.818	2143.760
-48.144	35.929	1940.534	2134.272
-47.130	35.929	1937.835	2131.215
-46.115	35.783	1936.430	2127.961
-45.100	35.755	1935.933	2127.016
-44.086	35.732	1933.367	2123.860
-43.071	35.691	1932.371	2122.233
-42.057	35.655	1931.161	2120.415
-41.042	35.739	1929.582	2119.532
-40.027	35.657	1928.887	2117.777
-39.013	35.744	1926.769	2116.330
-37.998	35.704	1925.070	2113.930
-36.984	35.742	1924.025	2113.117
-35.969	35.791	1922.848	2112.288
-34.954	35.631	1921.441	2108.896
-33.940	35.539	1921.962	2108.366
-32.925	35.645	1919.639	2106.900
-31.911	35.642	1918.215	2105.224
-30.896	35.589	1916.301	2102.452
-29.881	35.578	1915.230	2101.072
-28.867	35.544	1913.808	2099.062
-27.852	35.570	1912.351	2097.665
-26.838	35.518	1910.383	2094.853
-25.823	35.428	1909.188	2092.473
-24.809	35.439	1908.288	2091.524
-23.794	35.508	1906.513	2090.246
-22.779	35.483	1905.549	2088.830
-21.765	35.409	1903.957	2086.196
-20.750	35.406	1903.741	2085.845
-19.736	35.453	1902.315	2084.712
-18.721	35.409	1901.003	2082.714
-17.706	35.423	1899.482	2081.120
-16.692	35.421	1898.307	2079.729
-15.677	35.426	1896.738	2077.980
-14.663	35.467	1895.359	2076.827
-13.648	35.285	1894.926	2074.291
-12.633	35.348	1893.022	2072.817
-11.619	35.266	1892.481	2071.244
-10.604	35.360	1890.481	2069.991
-9.590	35.328	1889.697	2068.709
-8.575	35.311	1888.327	2066.941
-7.560	35.226	1887.946	2065.526
-6.546	35.239	1886.229	2063.697
-5.531	35.289	1885.203	2063.036
-4.517	35.327	1883.954	2061.999
-3.502	35.241	1883.525	2060.516
-2.487	35.377	1882.088	2060.329
-1.473	35.458	1878.347	2057.029
-0.458	35.280	1858.644	2033.471
0.556	30.851	1989.865	2113.913
1.571	29.142	2203.185	2318.652
2.586	30.477	2251.208	2386.153
3.600	30.500	2252.946	2388.008
4.615	30.664	2252.519	2389.384
5.629	30.428	2249.865	2383.233
6.644	30.590	2248.463	2383.562
7.659	30.818	2247.381	2385.060
8.673	30.943	2246.136	2385.066
9.688	30.102	2249.888	2377.920
10.702	26.732	2318.105	2404.865
11.717	23.180	2379.748	2419.792
12.731	11.798	2351.604	2235.419
13.746	1.982	2324.127	2075.300
14.761	0.339	2319.247	2048.258
15.775	0.219	2316.897	2044.307
16.790	0.155	2315.746	2042.169
17.804	0.147	2314.372	2040.604
18.819	0.043	2313.978	2038.600
19.834	0.141	2311.181	2037.223
20.848	0.154	2309.740	2035.886
21.863	0.074	2308.224	2033.213
22.877	0.086	2306.493	2031.609
23.892	0.092	2304.147	2029.378
24.907	-0.027	2302.133	2025.750
25.921	0.041	2301.249	2025.660
26.936	0.068	2297.963	2022.883
27.950	0.054	2295.372	2020.171
28.965	0.073	2293.759	2018.767
29.980	0.106	2291.927	2017.358
30.994	0.223	2290.555	2017.487
32.009	6.067	2310.956	2114.432
33.023	19.946	2349.934	2339.605
34.038	25.986	2362.793	2434.361
35.053	26.468	2361.221	2438.979
36.067	26.354	2357.856	2433.665
37.082	26.145	2355.876	2428.510
38.096	26.229	2354.630	2428.068
39.111	26.568	2352.646	2430.312
40.126	26.553	2349.754	2426.823
41.140	26.774	2348.737	2428.456
42.155	26.711	2347.316	2425.855
43.169	26.470	2344.576	2419.491
44.184	26.438	2342.545	2416.674
45.199	26.490	2339.785	2414.242
46.213	26.504	2337.662	2411.949
47.228	26.372	2337.579	2409.802
48.242	26.583	2336.883	2411.627
49.257	26.760	2335.424	2412.198
50.271	27.017	2333.538	2413.390
51.286	26.887	2330.721	2408.458
52.301	26.459	2328.143	2399.801
53.315	26.532	2329.122	2401.492
54.330	27.156	2328.889	2409.290
55.344	27.596	2325.686	2411.534
56.359	27.755	2323.743	2411.341
57.374	27.640	2322.691	2408.443
58.388	27.569	2319.014	2403.392
59.403	27.460	2314.677	2397.169
60.417	27.183	2312.183	2390.644
61.432	27.456	2311.277	2393.019
62.447	27.310	2309.576	2389.046
63.461	27.412	2307.204	2387.649
64.476	27.532	2304.389	2386.030
65.490	27.642	2304.013	2386.807
66.505	27.196	2301.742	2378.306
67.520	26.689	2299.595	2369.142
68.534	26.696	2297.637	2366.934
69.549	26.632	2293.325	2361.368
70.563	26.509	2290.294	2356.356
71.578	26.558	2288.362	2354.726
72.593	26.801	2287.493	2356.729
73.607	26.795	2285.586	2354.393
74.622	26.736	2284.628	2352.366
75.636	26.818	2282.925	2351.390
76.651	26.782	2280.193	2347.829
77.666	27.010	2278.631	2348.903
78.680	26.956	2275.317	2344.505
79.695	26.526	2272.180	2335.419
80.709	25.884	2268.933	2323.484
81.724	25.560	2265.805	2315.813
82.739	26.064	2266.693	2322.970
83.753	27.075	2266.849	2335.922
84.768	27.036	2264.859	2333.092
85.782	27.025	2263.158	2330.911
86.797	26.909	2262.372	2328.332
87.812	26.725	2259.197	2322.412
88.826	26.764	2257.568	2320.960
89.841	27.041	2256.689	2323.345
90.855	27.424	2253.973	2325.190
91.870	27.153	2251.973	2319.365
92.884	27.026	2250.367	2315.812
93.899	27.014	2248.972	2313.941
94.914	26.763	2247.679	2309.117
95.928	26.467	2247.220	2304.582
96.943	26.607	2244.350	2303.152
97.957	26.545	2240.776	2298.422
98.972	26.630	2240.367	2298.809
99.987	26.605	2236.390	2294.141
101.001	26.356	2233.845	2288.088
102.016	26.801	2232.710	2292.304
103.030	26.712	2230.311	2288.443
104.045	26.570	2226.677	2282.642
105.060	26.786	2226.681	2285.100
106.074	27.005	2225.808	2286.706
107.089	26.694	2223.496	2280.120
108.103	26.329	2221.564	2273.259
109.118	26.663	2219.785	2275.386
110.133	26.746	2218.617	2274.958
111.147	26.796	2216.880	2273.542
112.162	26.936	2215.139	2273.249
113.176	26.859	2213.614	2270.437
114.191	26.603	2210.030	2263.271
115.206	26.426	2209.643	2260.384
116.220	26.787	2208.311	2263.285
117.235	26.703	2205.271	2258.844
118.249	26.678	2202.836	2255.769
119.264	26.578	2202.125	2253.517
120.279	26.557	2199.453	2250.251
121.293	26.514	2197.000	2246.939
122.308	26.518	2196.995	2246.705
123.322	26.344	2195.694	2242.943
124.337	25.901	2192.408	2233.797
125.352	26.152	2193.518	2237.787
126.366	27.007	2194.177	2248.847
127.381	27.227	2191.721	2248.796
128.395	27.201	2188.373	2244.761
129.410	26.968	2184.507	2237.648
130.424	26.666	2183.212	2232.310
131.439	26.988	2181.949	2234.729
132.454	26.763	2180.258	2229.959
133.468	26.854	2178.830	2229.352
134.483	26.913	2176.768	2227.705
135.497	26.996	2175.075	2226.722
136.512	27.214	2173.476	2227.505
137.527	27.245	2172.450	2226.576
138.541	27.210	2170.404	2223.776
139.556	27.224	2169.334	2222.593
140.570	27.016	2167.921	2218.316
141.585	26.798	2165.162	2212.556
142.600	26.544	2163.593	2207.581
143.614	26.559	2162.544	2206.430
144.629	26.761	2160.807	2206.858
145.643	26.574	2158.100	2201.552
146.658	26.489	2156.244	2198.352
147.673	26.160	2153.039	2190.810
148.687	26.174	2151.937	2189.600
149.702	26.123	2151.268	2188.028
150.716	26.233	2151.450	2189.288
151.731	27.057	2150.760	2198.363
152.746	26.806	2148.738	2192.984
153.760	26.448	2147.744	2187.351
154.775	26.464	2147.484	2187.016
155.789	26.664	2145.823	2187.489
156.804	26.712	2142.979	2184.912
157.819	26.613	2139.274	2179.680
158.833	26.626	2136.805	2177.055
159.848	26.797	2134.951	2176.969
160.862	26.985	2134.089	2178.101
161.877	27.124	2133.828	2179.253
162.892	27.073	2133.016	2177.543
163.906	27.275	2131.923	2178.602
164.921	27.314	2129.361	2176.192
165.935	27.055	2126.054	2169.441
166.950	26.633	2124.200	2162.226
167.964	26.646	2121.884	2159.771
168.979	26.505	2120.472	2156.377
169.994	26.640	2119.528	2156.779
171.008	26.492	2116.815	2151.987
172.023	26.363	2115.073	2148.426
173.037	26.729	2114.913	2152.374
174.052	26.845	2113.054	2151.612
175.067	26.579	2111.591	2146.696
176.081	26.481	2109.812	2143.456
177.096	26.659	2108.714	2144.205
178.110	26.719	2107.095	2143.010
179.125	26.628	2105.209	2139.762
180.140	26.815	2104.101	2140.590
181.154	27.041	2104.703	2143.631
182.169	27.123	2103.755	2143.388
183.183	27.064	2102.872	2141.527
184.198	27.031	2101.719	2139.712
185.213	27.160	2100.043	2139.269
186.227	27.198	2098.195	2137.582
187.242	26.940	2095.097	2131.129
188.256	26.710	2093.267	2126.300
189.271	26.969	2091.930	2127.733
190.286	26.945	2089.241	2124.468
191.300	26.437	2087.145	2116.108
192.315	26.569	2084.593	2114.818
193.329	26.880	2083.833	2117.443
194.344	27.171	2083.104	2119.852
195.359	27.069	2082.054	2117.345
196.373	27.025	2080.539	2115.033
197.388	26.985	2078.147	2111.880
198.402	26.900	2075.632	2108.077
199.417	27.066	2073.555	2107.646
200.432	26.971	2071.524	2104.225
201.446	26.792	2071.158	2101.518
202.461	26.528	2068.946	2095.951
203.475	26.616	2066.477	2094.225
204.490	26.611	2064.362	2091.770
205.504	26.739	2063.120	2091.743
206.519	26.568	2061.523	2087.896
207.534	26.742	2060.071	2088.190
208.548	27.188	2059.409	2092.424
209.563	26.741	2057.820	2085.396
210.577	26.972	2056.344	2086.316
211.592	27.177	2056.706	2088.803
212.607	26.974	2054.511	2083.985
213.621	26.558	2053.512	2077.916
214.636	26.517	2051.736	2075.407
215.650	27.300	2051.054	2083.486
216.665	27.482	2049.640	2083.891
217.680	27.306	2047.649	2079.600
218.694	27.185	2046.142	2076.423
219.709	26.765	2042.862	2068.037
220.723	26.654	2041.167	2064.800
221.738	27.148	2041.081	2070.124
222.753	27.305	2038.767	2069.319
223.767	27.155	2037.417	2065.990
224.782	26.923	2035.010	2060.658
225.796	26.750	2033.103	2056.503
226.811	26.927	2032.874	2058.046
227.826	26.924	2031.010	2055.876
228.840	26.698	2028.881	2050.902
229.855	26.801	2028.013	2050.952
230.869	26.908	2025.738	2049.626
231.884	26.935	2025.328	2049.263
232.899	27.049	2024.678	2049.659
233.913	26.964	2022.993	2046.748
234.928	26.870	2021.689	2044.115
235.942	26.441	2019.122	2036.424
236.957	26.359	2016.940	2033.048
237.972	26.680	2016.224	2035.711
238.986	26.694	2015.567	2034.958
240.001	26.559	2013.103	2030.712
241.015	26.408	2012.779	2028.438
242.030	26.943	2012.686	2034.133
243.045	27.180	2011.195	2035.041
244.059	27.255	2011.347	2035.805
245.074	27.588	2007.656	2035.555
246.088	27.095	2004.238	2026.322
247.103	27.048	2002.239	2023.540
248.117	27.574	2001.809	2028.748
249.132	27.484	2000.253	2025.916
250.147	26.934	1996.943	2016.183
251.161	26.529	1995.448	2009.909
252.176	26.617	1993.933	2009.132
253.190	26.680	1990.903	2006.535
254.205	26.600	1989.676	2004.165
255.220	26.678	1988.001	2003.113
256.234	26.351	1986.138	1997.358
257.249	26.312	1984.693	1995.237
258.263	26.627	1985.663	1999.470
259.278	26.664	1984.962	1998.940
260.293	26.653	1983.393	1996.989
261.307	26.542	1981.045	1993.164
262.322	26.690	1979.625	1993.132
263.336	26.263	1977.028	1985.561
264.351	26.449	1975.752	1986.097
265.366	26.716	1975.428	1988.473
266.380	26.924	1975.074	1990.172
267.395	26.848	1973.228	1987.242
268.409	26.923	1971.177	1985.763
269.424	27.026	1970.352	1985.824
270.439	26.986	1969.972	1984.767
271.453	27.223	1968.859	1986.009
272.468	27.116	1966.387	1982.109
273.482	26.843	1964.514	1976.985
274.497	26.786	1961.786	1973.387
275.512	27.077	1959.358	1973.889
276.526	27.044	1957.695	1971.607
277.541	26.858	1954.783	1966.422
278.555	26.424	1953.139	1959.805
279.570	26.357	1951.532	1957.229
280.585	26.380	1949.840	1955.548
281.599	26.530	1949.426	1956.527
282.614	26.833	1947.993	1958.142
283.628	26.832	1946.815	1956.710
284.643	26.522	1945.095	1951.392
285.657	26.018	1943.502	1944.097
286.672	26.046	1941.441	1942.112
287.687	25.739	1939.130	1936.244
288.701	25.725	1937.926	1934.656
289.716	25.301	1934.672	1926.603
290.730	24.400	1930.648	1912.668
291.745	25.222	1931.659	1922.300
292.760	25.819	1932.195	1929.024
293.774	26.035	1932.108	1931.036
294.789	26.637	1933.164	1938.335
295.803	26.938	1931.822	1939.989
296.818	26.907	1929.545	1937.145
297.833	27.251	1928.693	1939.741
298.847	26.882	1927.070	1933.920
299.862	26.672	1924.214	1928.577
300.876	26.821	1923.688	1929.421
301.891	27.119	1924.140	1932.831
302.906	27.240	1923.726	1933.476
303.920	27.006	1920.856	1927.862
304.935	27.238	1918.980	1928.219
305.949	27.097	1916.431	1923.926
306.964	27.198	1914.887	1923.223
307.979	26.690	1911.412	1914.103
308.993	25.239	1906.049	1893.126
310.008	23.687	1900.822	1871.286
311.022	23.306	1899.128	1865.366
312.037	23.584	1898.331	1867.302
313.052	23.474	1896.109	1863.722
314.066	23.069	1894.378	1857.525
315.081	23.186	1894.436	1858.595
316.095	23.374	1892.259	1858.223
317.110	23.253	1890.661	1855.152
318.125	23.272	1888.274	1852.792
319.139	23.233	1887.542	1851.444
320.154	23.411	1886.687	1852.247
321.168	23.355	1885.312	1850.088
322.183	24.731	1887.741	1866.695
323.197	26.289	1890.817	1885.881
324.212	26.677	1889.881	1888.787
325.227	26.585	1887.618	1885.338
326.241	26.694	1886.992	1885.625
327.256	27.089	1885.363	1887.895
328.270	26.716	1883.946	1882.364
329.285	26.844	1883.888	1883.411
330.300	26.865	1884.035	1883.551
331.314	26.796	1882.270	1880.840
332.329	26.946	1879.921	1879.829
333.343	26.929	1878.419	1877.931
334.358	26.818	1876.933	1875.061
335.373	26.786	1875.361	1872.933
336.387	27.043	1874.753	1874.775
337.402	27.059	1871.676	1871.634
338.416	27.039	1869.885	1869.412
339.431	26.961	1868.796	1867.300
340.446	27.098	1866.679	1866.368
341.460	26.662	1863.835	1858.811
342.475	26.362	1862.486	1854.145
343.489	25.152	1856.658	1835.687
344.504	23.759	1853.347	1817.876
345.519	23.686	1850.801	1814.406
346.533	23.399	1848.412	1808.903
347.548	23.298	1847.862	1807.118
348.562	23.422	1847.097	1807.419
349.577	23.425	1845.431	1805.609
350.592	23.567	1845.305	1806.722
351.606	23.585	1843.372	1804.792
352.621	23.121	1840.913	1797.436
353.635	23.255	1840.375	1798.058
354.650	24.271	1843.173	1810.957
355.665	25.939	1844.797	1829.372
356.679	26.414	1844.323	1833.516
357.694	26.870	1843.214	1836.842
358.708	26.981	1842.951	1837.484
359.723	27.056	1841.456	1836.537
360.738	26.934	1841.253	1834.883
361.752	27.260	1839.578	1836.294
362.767	27.376	1837.958	1835.634
363.781	27.142	1834.684	1829.777
364.796	26.933	1833.773	1826.536
365.810	26.999	1832.349	1825.568
366.825	26.855	1829.902	1821.463
367.840	25.225	1824.957	1799.898
368.854	23.422	1820.164	1776.803
369.869	23.175	1817.840	1771.834
370.883	23.403	1816.923	1773.030
371.898	23.645	1815.901	1774.252
372.913	23.567	1814.982	1772.351
373.927	23.225	1812.882	1766.667
374.942	23.230	1812.377	1766.004
375.956	24.387	1813.595	1778.585
376.971	25.241	1813.857	1787.182
377.986	25.291	1812.124	1785.764
379.000	25.218	1811.201	1783.908
380.015	25.362	1809.659	1783.614
381.029	26.069	1810.633	1791.419
382.044	26.768	1810.350	1797.889
383.059	26.784	1808.803	1796.307
384.073	26.642	1807.532	1793.412
385.088	26.820	1808.078	1795.515
386.102	26.924	1805.788	1794.056
387.117	26.754	1803.082	1789.465
388.132	26.725	1803.680	1789.555
389.146	26.840	1804.277	1791.072
390.161	26.807	1802.114	1788.387
391.175	26.889	1797.505	1784.413
392.190	26.664	1794.139	1778.633
393.205	26.683	1792.680	1777.159
394.219	26.833	1791.060	1776.827
395.234	26.565	1790.665	1773.581
396.248	26.556	1789.311	1771.937
397.263	26.551	1786.016	1768.412
398.278	26.692	1783.962	1767.548
399.292	26.432	1783.141	1763.973
400.307	26.261	1782.668	1761.617
401.321	26.019	1780.278	1756.683
402.336	25.947	1778.597	1754.108
403.350	25.848	1776.176	1750.541
404.365	25.688	1775.403	1748.014
405.380	25.294	1772.193	1740.805
406.394	23.813	1767.792	1721.854
407.409	23.296	1765.698	1714.581
408.423	23.427	1764.334	1714.325
409.438	23.311	1763.243	1711.932
410.453	23.258	1762.377	1710.378
411.467	23.599	1761.429	1712.557
412.482	24.051	1761.972	1717.266
413.496	25.958	1765.500	1739.003
414.511	26.844	1765.081	1746.970
415.526	26.782	1762.383	1743.487
416.540	26.842	1760.906	1742.399
417.555	26.797	1761.025	1741.869
418.569	26.682	1760.278	1739.812
419.584	26.571	1759.692	1737.953
420.599	26.697	1759.739	1739.005
421.613	26.928	1759.330	1740.626
422.628	26.679	1757.069	1735.780
423.642	26.410	1754.171	1730.127
424.657	25.951	1751.422	1722.802
425.672	26.349	1750.508	1725.510
426.686	26.296	1749.467	1723.774
427.701	26.129	1747.066	1719.600
428.715	26.203	1746.086	1719.135
429.730	26.328	1746.070	1720.113
430.745	26.850	1745.000	1723.841
431.759	27.136	1745.177	1726.540
432.774	27.491	1745.014	1729.562
433.788	26.275	1740.655	1713.449
434.803	24.680	1737.301	1694.763
435.818	24.584	1736.406	1692.772
436.832	24.617	1736.214	1692.693
437.847	23.863	1729.545	1678.831
438.861	15.279	1704.411	1573.593
439.876	3.373	1681.634	1440.994
440.890	0.397	1675.915	1408.015
441.905	0.152	1674.934	1404.725
442.920	0.180	1673.503	1403.624
443.934	0.020	1672.990	1401.518
444.949	0.117	1671.304	1400.848
445.963	0.067	1670.577	1399.602
446.978	0.140	1669.899	1399.556
447.993	0.009	1669.125	1397.509
449.007	0.147	1666.031	1396.036
450.022	0.100	1664.250	1393.944
451.036	0.132	1663.137	1393.145
452.051	1.466	1670.062	1411.230
453.066	12.640	1695.716	1538.185
454.080	23.153	1711.215	1651.207
455.095	25.534	1716.502	1678.477
456.109	27.721	1720.367	1702.605
457.124	28.713	1719.628	1710.960
458.139	27.962	1718.140	1702.243
459.153	27.574	1716.260	1696.552
460.168	27.646	1714.081	1694.866
461.182	28.014	1713.640	1697.665
462.197	28.706	1712.630	1702.912
463.212	28.713	1712.213	1702.356
464.226	28.923	1711.047	1702.952
465.241	29.186	1710.070	1704.218
466.255	29.496	1709.590	1706.423
467.270	29.548	1708.433	1705.547
468.285	29.332	1707.728	1702.627
469.299	29.595	1707.571	1704.713
470.314	29.885	1705.809	1705.436
471.328	29.989	1704.733	1705.121
472.343	29.859	1704.154	1703.136
473.358	29.985	1702.786	1702.725
474.372	30.154	1701.665	1702.961
475.387	30.234	1700.636	1702.461
476.401	30.094	1698.636	1698.972
477.416	29.693	1696.565	1693.001
478.430	29.896	1695.757	1693.860
479.445	29.840	1694.504	1691.890
480.460	29.637	1692.724	1688.045
481.474	29.765	1692.027	1688.329
482.489	30.241	1691.417	1691.880
483.503	30.108	1689.917	1688.962
484.518	29.887	1687.937	1684.756
485.533	30.119	1686.739	1685.478
486.547	30.173	1684.807	1683.844
487.562	29.751	1684.657	1679.642
488.576	30.026	1683.810	1681.102
489.591	30.528	1682.332	1684.001
490.606	30.541	1680.419	1682.002
491.620	30.488	1680.021	1680.917
492.635	30.465	1678.135	1678.621
493.649	29.928	1676.177	1671.586
494.664	29.635	1674.847	1667.406
495.679	29.470	1673.014	1663.883
496.693	29.717	1671.898	1664.810
497.708	29.941	1671.172	1665.913
498.722	30.160	1670.616	1667.145
499.737	30.399	1668.959	1667.443
500.752	30.326	1667.596	1665.225
501.766	30.288	1665.432	1662.525
502.781	30.297	1664.149	1661.125
503.795	30.326	1663.264	1660.304
504.810	30.161	1662.082	1657.442
505.825	30.129	1661.776	1656.656
506.839	29.852	1659.769	1651.966
507.854	29.669	1658.076	1648.444
508.868	29.660	1655.302	1645.411
509.883	29.239	1654.107	1640.256
510.898	29.053	1652.081	1636.388
511.912	28.491	1649.516	1628.639
512.927	27.807	1646.553	1619.420
513.941	27.773	1645.168	1617.560
514.956	28.145	1644.937	1620.455
515.971	28.822	1644.665	1626.017
516.985	28.545	1642.870	1621.589
518.000	28.191	1641.454	1616.846
519.014	28.245	1640.007	1615.711
520.029	28.186	1639.125	1614.120
521.043	28.074	1637.158	1611.002
522.058	28.103	1636.246	1610.167
523.073	28.438	1635.482	1612.184
524.087	28.758	1636.049	1615.382
525.102	29.230	1635.182	1618.501
526.116	29.362	1634.860	1619.149
527.131	29.670	1634.193	1621.019
528.146	30.058	1633.479	1623.528
529.160	30.263	1633.038	1624.705
530.175	30.493	1632.915	1626.408
531.189	30.500	1632.498	1625.861
532.204	30.542	1630.405	1623.950
533.219	30.387	1628.398	1620.401
534.233	30.261	1627.277	1617.987
535.248	29.952	1626.404	1614.219
536.262	30.154	1625.716	1615.109
537.277	30.502	1625.018	1617.264
538.292	30.595	1623.672	1616.543
539.306	30.700	1621.453	1615.064
540.321	30.309	1619.219	1609.237
541.335	29.755	1618.006	1603.009
542.350	30.353	1616.866	1606.895
543.365	30.795	1615.384	1609.066
544.379	30.974	1614.741	1609.793
545.394	30.823	1614.088	1607.641
546.408	30.348	1611.446	1600.693
547.423	30.169	1610.126	1597.646
548.438	30.240	1609.053	1597.003
549.452	30.387	1608.173	1597.212
550.467	30.375	1606.391	1595.143
551.481	30.187	1606.534	1593.474
552.496	30.326	1605.617	1593.568
553.511	30.572	1604.405	1594.299
554.525	30.558	1603.627	1593.210
555.540	30.550	1603.184	1592.516
556.554	30.679	1601.539	1591.802
557.569	30.448	1599.168	1587.271
558.583	30.027	1596.692	1581.006
559.598	29.861	1595.799	1578.513
560.613	29.955	1594.689	1578.029
561.627	29.887	1592.871	1575.460
562.642	29.549	1591.133	1570.662
563.656	29.135	1588.452	1564.297
564.671	28.694	1586.775	1558.695
565.686	28.478	1585.640	1555.553
566.700	28.389	1583.977	1552.977
567.715	28.409	1581.953	1550.975
568.729	28.545	1581.898	1551.896
569.744	28.931	1580.858	1553.967
570.759	29.003	1579.758	1553.310
571.773	28.871	1578.228	1550.500
572.788	28.799	1577.222	1548.717
573.802	28.732	1574.389	1545.182
574.817	28.685	1573.431	1543.665
575.832	28.886	1572.385	1544.149
576.846	29.293	1573.571	1548.564
577.861	29.915	1572.458	1552.533
578.875	30.079	1572.704	1553.971
579.890	30.393	1572.292	1556.021
580.905	30.610	1571.443	1556.820
581.919	30.698	1571.686	1557.616
582.934	30.836	1571.135	1558.046
583.948	30.732	1568.940	1554.810
584.963	30.559	1567.249	1551.492
585.978	30.310	1565.181	1547.171
586.992	30.057	1564.651	1544.350
588.007	30.256	1563.639	1544.830
589.021	29.987	1560.755	1539.549
590.036	28.927	1558.551	1528.342
591.051	29.545	1559.001	1533.762
592.065	30.319	1558.004	1539.046
593.080	30.441	1556.826	1538.715
594.094	30.747	1555.398	1539.663
595.109	30.574	1553.315	1535.981
596.123	30.523	1552.341	1534.412
597.138	30.792	1552.305	1536.430
598.153	30.727	1550.320	1533.737
599.167	30.486	1548.112	1529.377
600.182	30.312	1547.224	1526.879
601.196	30.391	1547.011	1527.143
602.211	30.650	1545.840	1527.942
603.226	30.564	1545.151	1526.363
604.240	30.718	1544.084	1526.401
605.255	30.740	1543.698	1526.016
606.269	30.707	1542.138	1524.022
607.284	30.654	1539.404	1520.695
608.299	30.499	1538.113	1517.966
609.313	30.112	1536.546	1513.066
610.328	30.051	1535.388	1511.247
611.342	30.146	1534.220	1510.692
612.357	30.268	1533.629	1510.931
613.372	29.886	1532.247	1506.260
614.386	29.790	1530.719	1503.790
615.401	29.745	1529.957	1502.494
616.415	29.599	1528.780	1499.971
617.430	29.165	1527.433	1494.934
618.445	29.063	1524.913	1491.455
619.459	28.911	1523.384	1488.545
620.474	28.829	1522.415	1486.753
621.488	29.055	1521.701	1487.715
622.503	29.455	1521.206	1490.296
623.518	29.258	1519.394	1486.747
624.532	28.990	1518.463	1483.486
625.547	28.939	1516.787	1481.256
626.561	28.902	1516.421	1480.426
627.576	28.950	1516.204	1480.425
628.591	29.048	1514.771	1479.636
629.605	29.388	1513.805	1481.266
630.620	29.663	1512.797	1482.321
631.634	30.011	1513.059	1485.202
632.649	30.090	1511.373	1484.002
633.663	29.833	1509.404	1479.827
634.678	29.387	1507.472	1474.171
635.693	29.244	1505.467	1470.890
636.707	29.119	1504.366	1468.636
637.722	29.203	1503.263	1468.061
638.736	29.735	1503.166	1472.042
639.751	30.125	1503.026	1474.852
640.766	30.196	1501.521	1473.764
641.780	30.345	1500.055	1473.343
642.795	30.511	1499.338	1473.783
643.809	30.444	1499.755	1473.483
644.824	30.724	1499.230	1475.018
645.839	30.764	1498.226	1474.177
646.853	30.816	1496.768	1472.974
647.868	30.640	1494.591	1469.262
648.882	30.413	1493.273	1465.993
649.897	30.367	1492.032	1464.233
650.912	30.150	1491.216	1461.533
651.926	30.480	1489.664	1462.454
652.941	30.446	1488.627	1460.988
653.955	30.122	1486.152	1455.827
654.970	29.235	1482.856	1445.433
655.985	29.047	1480.291	1441.280
656.999	29.009	1479.683	1440.221
658.014	29.221	1479.741	1441.767
659.028	29.814	1479.763	1446.277
660.043	30.217	1479.829	1449.337
661.058	30.313	1479.234	1449.333
662.072	30.453	1478.872	1449.908
663.087	30.352	1477.188	1447.290
664.101	30.266	1475.401	1444.691
665.116	30.298	1474.241	1443.633
666.131	30.395	1474.020	1444.001
667.145	30.475	1472.732	1443.194
668.160	30.627	1470.877	1442.390
669.174	30.491	1469.511	1439.814
670.189	30.595	1469.387	1440.329
671.204	30.822	1468.675	1441.229
672.218	30.663	1467.263	1438.433
673.233	30.759	1466.408	1438.171
674.247	30.878	1465.050	1437.589
675.262	30.633	1464.286	1434.767
676.276	30.574	1462.887	1432.770
677.291	30.406	1462.575	1430.986
678.306	30.738	1460.895	1431.744
679.320	30.543	1459.000	1428.208
680.335	30.098	1458.805	1424.410
681.349	30.354	1458.037	1425.461
682.364	30.387	1456.718	1424.262
683.379	30.100	1455.408	1420.597
684.393	29.970	1453.169	1417.245
685.408	29.949	1451.958	1415.729
686.422	29.835	1451.107	1413.853
687.437	29.400	1450.278	1409.534
688.452	29.249	1448.867	1406.841
689.466	29.192	1446.301	1403.745
690.481	29.195	1445.206	1402.530
691.495	29.251	1445.179	1402.769
692.510	29.841	1445.476	1407.402
693.525	30.290	1444.270	1409.487
694.539	30.096	1442.511	1406.124
695.554	29.374	1441.098	1399.073
696.568	29.258	1439.233	1396.217
697.583	29.235	1438.488	1395.148
698.598	29.414	1438.380	1396.239
699.612	29.682	1437.432	1397.188
700.627	29.962	1436.245	1397.996
701.641	30.205	1435.942	1399.377
702.656	30.432	1435.279	1400.281
703.671	30.392	1435.066	1399.602
704.685	30.632	1434.422	1400.624
705.700	30.297	1433.328	1396.855
706.714	30.163	1430.731	1393.145
707.729	29.991	1429.314	1390.300
708.744	30.157	1428.104	1390.210
709.758	29.931	1426.255	1386.540
710.773	29.340	1424.401	1380.125
711.787	29.081	1423.721	1377.354
712.802	29.812	1422.681	1381.676
713.816	29.940	1422.226	1382.031
714.831	30.160	1421.774	1383.072
715.846	30.238	1420.344	1382.098
716.860	30.147	1419.040	1379.989
717.875	30.204	1417.583	1378.828
718.889	30.057	1416.051	1376.073
719.904	30.050	1415.196	1375.032
720.919	29.936	1414.519	1373.356
721.933	29.869	1413.513	1371.718
722.948	29.859	1412.604	1370.597
723.962	30.021	1411.148	1370.222
724.977	30.079	1410.005	1369.378
725.992	30.309	1409.382	1370.321
727.006	30.539	1408.656	1371.154
728.021	30.458	1407.276	1369.051
729.035	30.385	1406.452	1367.544
730.050	30.470	1405.109	1366.698
731.065	30.424	1404.060	1365.179
732.079	30.216	1403.369	1362.804
733.094	30.377	1402.606	1363.092
734.108	30.580	1400.852	1362.718
735.123	30.414	1398.866	1359.403
736.138	30.341	1397.661	1357.529
737.152	30.334	1396.297	1355.990
738.167	30.245	1395.833	1354.725
739.181	30.342	1395.702	1355.151
740.196	30.266	1394.786	1353.539
741.211	30.276	1393.331	1352.042
742.225	30.022	1392.402	1349.120
743.240	30.035	1390.827	1347.528
744.254	29.752	1388.765	1343.298
745.269	29.475	1388.123	1340.493
746.284	29.369	1386.379	1337.876
747.298	29.328	1385.358	1336.431
748.313	29.384	1383.890	1335.264
749.327	29.558	1384.644	1337.102
750.342	29.887	1385.140	1339.811
751.356	30.424	1383.752	1342.209
752.371	30.229	1381.764	1338.707
753.386	29.623	1380.186	1332.628
754.400	29.541	1379.340	1331.056
755.415	30.208	1378.627	1335.039
756.429	30.399	1378.088	1335.735
757.444	30.404	1377.239	1334.793
758.459	30.474	1375.080	1333.041
759.473	30.224	1374.043	1330.072
760.488	29.932	1373.285	1327.076
761.502	29.604	1372.201	1323.512
762.517	29.968	1370.272	1324.113
763.532	30.251	1369.220	1324.968
764.546	29.913	1367.882	1321.090
765.561	29.349	1366.643	1315.693
766.575	28.722	1363.829	1308.333
767.590	28.597	1363.356	1306.828
768.605	29.491	1363.458	1313.167
769.619	29.797	1362.429	1314.203
770.634	30.076	1361.708	1315.345
771.648	29.857	1359.707	1311.691
772.663	29.682	1359.703	1310.285
773.678	29.944	1359.519	1311.820
774.692	30.016	1359.738	1312.384
775.707	30.102	1358.959	1312.089
776.721	30.311	1357.538	1312.046
777.736	29.960	1356.654	1308.538
778.751	30.163	1355.598	1308.808
779.765	30.173	1354.907	1308.050
780.780	30.123	1353.864	1306.534
781.794	30.335	1352.910	1306.959
782.809	29.862	1351.006	1301.622
783.824	29.317	1349.430	1296.092
784.838	29.456	1347.650	1295.212
785.853	29.773	1347.462	1297.111
786.867	29.849	1346.966	1297.011
787.882	29.663	1346.230	1294.841
788.897	29.365	1345.220	1291.614
789.911	29.260	1343.300	1288.877
790.926	29.259	1342.178	1287.643
791.940	29.502	1341.263	1288.313
792.955	29.574	1340.072	1287.522
793.969	29.468	1338.819	1285.422
794.984	29.578	1338.723	1285.948
795.999	29.834	1338.409	1287.283
797.013	30.005	1337.022	1286.989
798.028	30.043	1335.388	1285.523
799.042	30.076	1334.407	1284.656
800.057	30.083	1333.271	1283.457
801.072	30.013	1332.264	1281.849
802.086	29.992	1331.731	1281.037
803.101	30.079	1330.418	1280.226
804.115	30.099	1329.427	1279.257
805.130	29.866	1328.428	1276.527
806.145	29.949	1326.000	1274.616
807.159	29.700	1324.842	1271.627
808.174	29.742	1324.347	1271.291
809.188	29.844	1323.281	1270.819
810.203	29.703	1321.646	1268.124
811.218	29.537	1319.200	1264.483
812.232	29.202	1317.004	1259.922
813.247	28.459	1317.125	1254.778
814.261	28.974	1317.457	1258.489
815.276	29.598	1316.559	1261.766
816.291	29.588	1315.603	1260.632
817.305	29.395	1314.460	1258.062
818.320	29.701	1312.987	1258.598
819.334	29.837	1312.415	1258.829
820.349	29.913	1311.138	1257.969
821.364	29.921	1310.199	1256.975
822.378	30.054	1308.463	1256.061
823.393	30.026	1306.684	1254.012
824.407	29.961	1305.707	1252.484
825.422	29.812	1305.487	1251.109
826.437	29.704	1304.453	1249.239
827.451	29.328	1302.139	1244.319
828.466	29.549	1301.181	1244.758
829.480	29.773	1299.930	1244.926
830.495	29.650	1297.906	1242.004
831.509	29.207	1296.986	1237.988
832.524	29.228	1296.433	1237.454
833.539	29.654	1295.372	1239.161
834.553	29.870	1294.463	1239.600
835.568	29.740	1293.378	1237.539
836.582	29.856	1291.988	1236.838
837.597	29.928	1290.651	1235.896
838.612	29.708	1289.067	1232.758
839.626	29.497	1287.344	1229.548
840.641	29.386	1286.556	1227.906
841.655	29.138	1286.335	1225.886
842.670	28.697	1284.833	1221.359
843.685	28.279	1282.633	1216.332
844.699	28.868	1281.575	1219.111
845.714	29.238	1281.294	1221.168
846.728	29.265	1280.274	1220.224
847.743	29.180	1279.968	1219.227
848.758	29.401	1278.855	1219.485
849.772	29.670	1277.922	1220.238
850.787	29.626	1276.866	1218.793
851.801	29.623	1275.601	1217.415
852.816	29.693	1273.870	1216.084
853.831	29.605	1272.433	1213.981
854.845	29.533	1270.809	1211.811
855.860	29.382	1268.712	1208.677
856.874	29.146	1268.258	1206.546
857.889	29.241	1267.464	1206.271
858.904	29.541	1266.632	1207.307
859.918	30.036	1265.366	1209.202
860.933	30.091	1264.389	1208.483
861.947	29.752	1262.861	1204.661
862.962	29.238	1261.480	1199.835
863.977	29.282	1260.193	1198.757
864.991	29.124	1259.761	1197.166
866.006	29.111	1259.613	1196.800
867.020	29.398	1258.366	1197.344
868.035	29.508	1256.957	1196.578
869.049	29.770	1255.969	1197.198
870.064	29.880	1255.307	1197.142
871.079	29.788	1254.525	1195.653
872.093	29.457	1253.333	1192.222
873.108	29.331	1252.674	1190.636
874.122	29.197	1251.041	1188.074
875.137	28.826	1249.788	1184.340
876.152	28.855	1248.915	1183.557
877.166	28.857	1247.277	1181.875
878.181	28.888	1246.423	1181.123
879.195	29.075	1245.812	1181.613
880.210	29.307	1245.731	1182.893
881.225	29.389	1245.037	1182.616
882.239	29.454	1243.485	1181.422
883.254	29.498	1242.849	1180.959
884.268	29.685	1242.016	1181.226
885.283	29.539	1240.833	1179.024
886.298	29.602	1238.816	1177.367
887.312	29.750	1237.794	1177.207
888.327	29.550	1236.927	1174.959
889.341	29.418	1235.618	1172.730
890.356	29.436	1234.595	1171.737
891.371	29.279	1234.675	1170.671
892.385	29.115	1234.016	1168.856
893.400	29.065	1232.894	1167.340
894.414	29.131	1231.199	1166.015
895.429	29.429	1230.052	1166.683
896.444	29.756	1229.404	1168.001
897.458	30.193	1228.810	1170.071
898.473	29.825	1227.788	1166.627
899.487	29.366	1225.958	1161.842
900.502	29.211	1223.736	1158.616
901.517	29.349	1222.423	1158.109
902.531	29.437	1221.960	1158.088
903.546	29.507	1221.700	1158.143
904.560	29.276	1221.701	1156.544
905.575	29.464	1220.305	1156.270
906.589	29.515	1219.146	1155.355
907.604	29.216	1218.150	1152.393
