DTS Sentinel unit serial number:	SN409020Multiplexer serial number:	ORYXHardware model number:	OX4-SRSoftware version number:	ORYX F/W v3.00 Oryx Data Collector v3.7.2.0data status	okinstallation	HaddamTimeLapsedifferential loss correction	single-endedforward channel	channel 3reverse channel	N/Adate	2011/06/21time	16:56:17forward acquisition time	30.00reverse acquisition time	0.00gamma	498.7831k internal	0.1786k external	0.1786temperature offset calibration	1.0074default loss term (dB/km)	0.3790temperature slope calibration	1.3530multiplexer offset coefficient	1.0000multiplexer slope coefficient	1.0000fibre end	0.00T internal ref (°C)	32.37T ext. ref 1 (°C)	27.48T ext. ref 2 (°C)	0.24length (m)	temperature (°C)	Stokes	anti-Stokes-747.200	67.745	-0.101	0.135
-746.185	-135.547	-0.634	-0.097
-745.171	-79.405	-0.169	-0.074
-744.156	158.174	-0.227	0.411
-743.142	441.082	0.126	0.361
-742.127	-13.850	0.103	-0.086
-741.112	-200.000	0.084	-0.511
-740.098	168.297	0.144	0.267
-739.083	-121.105	-0.406	-0.088
-738.069	-135.216	-0.274	0.042
-737.054	-56.270	0.369	0.213
-736.039	-200.000	-0.053	0.456
-735.025	198.138	0.079	-0.157
-734.010	-49.806	0.286	0.177
-732.996	71.141	0.036	-0.048
-731.981	-136.019	-0.180	0.027
-730.966	27.956	0.166	0.182
-729.952	80.648	-0.105	0.148
-728.937	-28.624	-0.320	0.239
-727.923	298.160	-0.145	0.348
-726.908	-46.086	0.042	-0.027
-725.894	-71.339	-0.238	-0.116
-724.879	2.140	-0.550	-0.517
-723.864	-106.995	0.494	-0.141
-722.850	-200.000	0.034	-0.399
-721.835	574.604	-0.051	-0.162
-720.821	-21.010	-0.156	-0.124
-719.806	-101.216	-0.128	-0.040
-718.791	455.709	0.103	0.298
-717.777	11.724	0.031	-0.031
-716.762	674.786	0.051	-0.173
-715.748	800.000	0.043	-0.178
-714.733	-86.857	-0.292	0.115
-713.718	-98.817	-0.491	-0.162
-712.704	-29.365	-0.356	-0.264
-711.689	-164.415	0.473	-0.028
-710.675	258.349	-0.068	-0.153
-709.660	-200.000	-0.032	-0.207
-708.645	-110.566	0.291	-0.078
-707.631	-195.941	-0.108	0.001
-706.616	69.352	0.111	-0.149
-705.602	-15.217	-0.361	0.300
-704.587	0.846	-0.195	0.182
-703.572	-42.291	-0.273	-0.181
-702.558	-68.267	0.530	-0.267
-701.543	800.000	-0.108	-0.599
-700.529	164.889	0.229	-0.421
-699.514	800.000	-0.048	0.209
-698.499	711.684	0.064	-0.223
-697.485	-156.050	-0.221	0.018
-696.470	-101.671	0.266	-0.083
-695.456	-151.062	0.147	-0.014
-694.441	-200.000	-0.015	0.364
-693.426	-200.000	-0.009	-0.229
-692.412	146.303	0.135	-0.236
-691.397	33.464	0.215	0.243
-690.383	-57.330	-0.147	-0.083
-689.368	32.986	-0.227	-0.255
-688.354	-137.544	-0.380	0.055
-687.339	-59.027	-0.434	0.243
-686.324	-163.991	0.401	-0.024
-685.310	-108.056	-0.289	0.081
-684.295	800.000	-0.113	-0.549
-683.281	-120.001	0.209	0.046
-682.266	-200.000	0.022	-0.243
-681.251	15.121	-0.125	0.128
-680.237	-79.252	0.176	-0.077
-679.222	708.508	-0.073	0.252
-678.208	-38.858	-0.294	0.200
-677.193	126.485	0.066	-0.109
-676.178	-56.809	0.335	-0.192
-675.164	-70.303	-0.708	-0.348
-674.149	-140.131	0.397	0.054
-673.135	-200.000	-0.080	-0.485
-672.120	35.245	0.314	-0.357
-671.105	800.000	-0.027	-0.148
-670.091	100.170	0.211	0.319
-669.076	-126.476	0.302	0.058
-668.062	89.196	0.182	-0.263
-667.047	37.277	-0.042	0.048
-666.032	-74.252	0.345	-0.161
-665.018	333.357	0.077	0.195
-664.003	-41.824	-0.234	-0.155
-662.989	198.500	-0.197	-0.393
-661.974	600.060	-0.111	-0.358
-660.959	-22.463	-0.293	-0.230
-659.945	-101.913	0.073	-0.023
-658.930	-23.414	0.197	0.154
-657.916	80.031	-0.198	0.277
-656.901	99.976	-0.261	0.393
-655.886	-165.496	-0.535	0.030
-654.872	-127.130	-0.210	-0.040
-653.857	501.745	0.123	-0.369
-652.843	181.470	-0.062	-0.118
-651.828	-115.528	-0.295	0.071
-650.814	800.000	-0.044	0.244
-649.799	90.339	0.298	0.433
-648.784	122.287	-0.288	-0.467
-647.770	800.000	0.058	0.294
-646.755	32.818	0.161	0.181
-645.741	-68.153	-0.366	0.184
-644.726	-10.992	-0.304	0.260
-643.711	-133.419	-0.405	0.065
-642.697	800.000	-0.095	-0.425
-641.682	-8.245	-0.261	-0.227
-640.668	-127.719	0.318	-0.059
-639.653	19.592	0.261	0.272
-638.638	-200.000	0.011	-0.100
-637.624	-16.840	0.218	0.178
-636.609	83.794	0.152	0.216
-635.595	-71.587	0.443	-0.214
-634.580	-70.037	-0.202	-0.099
-633.565	-150.467	0.412	0.041
-632.551	-9.322	-0.355	0.307
-631.536	71.147	0.265	0.357
-630.522	395.282	-0.074	0.200
-629.507	-102.750	0.277	-0.085
-628.492	605.148	0.031	-0.099
-627.478	-51.536	-0.153	0.092
-626.463	129.843	-0.055	0.092
-625.449	-24.743	-0.258	0.198
-624.434	205.522	0.048	0.097
-623.419	223.303	0.135	0.282
-622.405	-3.542	-0.251	0.226
-621.390	-200.000	0.013	0.090
-620.376	19.079	-0.048	0.050
-619.361	316.950	-0.089	0.219
-618.346	-6.281	0.424	0.374
-617.332	-31.356	-0.540	-0.393
-616.317	-105.009	-0.578	-0.170
-615.303	-19.305	0.067	-0.054
-614.288	800.000	0.080	-0.338
-613.273	333.805	-0.137	-0.345
-612.259	800.000	-0.055	0.201
-611.244	-130.720	-0.220	-0.038
-610.230	120.034	-0.269	0.433
-609.215	81.711	-0.332	0.466
-608.201	-54.791	0.245	-0.143
-607.186	-36.307	0.292	-0.203
-606.171	-200.000	-0.036	-0.304
-605.157	-141.847	-0.250	-0.032
-604.142	-200.000	-0.023	-0.227
-603.128	-171.513	0.346	-0.015
-602.113	-200.000	-0.007	-0.242
-601.098	-71.465	-0.678	-0.327
-600.084	117.528	-0.281	0.449
-599.069	-112.380	0.229	-0.059
-598.055	-77.469	0.254	0.114
-597.040	-135.275	0.369	-0.057
-596.025	-16.749	0.246	-0.201
-595.011	34.906	0.184	-0.209
-593.996	26.499	-0.275	0.298
-592.982	129.069	0.413	-0.684
-591.967	-160.208	-0.157	0.011
-590.952	-200.000	-0.072	-0.467
-589.938	-122.965	0.586	0.121
-588.923	-200.000	0.059	0.359
-587.909	184.212	0.112	-0.214
-586.894	-2.546	-0.108	0.098
-585.879	-68.749	-0.174	-0.086
-584.865	75.249	-0.069	0.094
-583.850	-200.000	-0.038	-0.250
-582.836	232.946	-0.039	-0.082
-581.821	21.178	0.451	-0.473
-580.806	-20.764	-0.234	-0.185
-579.792	14.427	-0.223	-0.225
-578.777	-92.779	-0.225	0.081
-577.763	22.755	-0.308	-0.326
-576.748	-110.455	-0.404	0.108
-575.733	263.875	-0.186	-0.420
-574.719	14.585	-0.294	0.297
-573.704	404.576	-0.060	-0.165
-572.690	-66.031	0.650	0.334
-571.675	-124.962	0.417	0.082
-570.661	-119.045	0.356	-0.080
-569.646	-200.000	-0.022	0.225
-568.631	67.442	0.329	0.434
-567.617	-199.575	-0.225	0.001
-566.602	-200.000	-0.009	0.057
-565.588	-87.127	0.146	0.057
-564.573	173.043	-0.112	-0.210
-563.558	-50.658	-0.221	0.134
-562.544	-200.000	-0.040	0.596
-561.529	47.758	-0.351	0.424
-560.515	-113.301	0.233	0.059
-559.500	-125.441	0.183	-0.036
-558.485	-176.866	-0.631	0.020
-557.471	402.794	-0.064	0.174
-556.456	-42.327	-0.390	-0.257
-555.442	170.690	0.054	0.100
-554.427	-103.891	0.113	0.034
-553.412	-152.291	-0.318	0.029
-552.398	48.878	-0.197	0.239
-551.383	758.880	0.102	-0.358
-550.369	219.395	-0.173	-0.359
-549.354	-7.764	-0.263	0.230
-548.339	125.744	-0.228	-0.374
-547.325	134.557	0.422	-0.709
-546.310	272.119	0.067	0.153
-545.296	-151.489	0.294	-0.028
-544.281	-200.000	-0.025	-0.181
-543.266	-41.323	0.184	-0.122
-542.252	-169.501	-0.107	0.005
-541.237	287.196	-0.188	0.442
-540.223	-41.648	0.454	0.300
-539.208	800.000	-0.028	-0.129
-538.193	-200.000	-0.015	-0.561
-537.179	216.469	0.154	-0.318
-536.164	-41.271	0.393	0.261
-535.150	-140.863	0.501	0.066
-534.135	-115.172	0.157	0.038
-533.121	-31.262	0.204	-0.148
-532.106	-200.000	-0.020	0.365
-531.091	-43.865	-0.250	0.162
-530.077	-90.112	0.267	-0.100
-529.062	-143.696	-0.254	0.031
-528.048	-200.000	-0.025	0.783
-527.033	24.441	0.131	-0.139
-526.018	20.920	-0.226	-0.236
-525.004	800.000	-0.014	0.063
-523.989	-117.582	-0.432	0.100
-522.975	123.788	-0.123	-0.199
-521.960	547.356	-0.149	-0.463
-520.945	-11.520	0.171	-0.145
-519.931	-100.614	-0.363	-0.115
-518.916	140.654	-0.060	0.102
-517.902	-70.578	-0.066	0.032
-516.887	800.000	-0.021	0.084
-515.872	-56.297	0.073	-0.042
-514.858	456.931	-0.078	0.225
-513.843	-177.898	-0.261	0.008
-512.829	112.630	-0.193	0.302
-511.814	-90.493	0.417	-0.155
-510.799	-124.433	0.231	-0.046
-509.785	-74.025	-0.571	0.266
-508.770	36.716	-0.275	0.314
-507.756	-129.197	0.674	-0.120
-506.741	-16.966	0.404	0.328
-505.726	252.384	-0.267	0.589
-504.712	122.303	-0.268	-0.433
-503.697	-200.000	-0.006	0.058
-502.683	-13.585	0.175	0.146
-501.668	117.646	0.348	-0.554
-500.653	800.000	0.062	-0.235
-499.639	67.465	0.411	-0.542
-498.624	-118.091	-0.368	0.084
-497.610	313.538	0.254	-0.619
-496.595	33.271	0.367	-0.411
-495.581	428.797	-0.116	-0.325
-494.566	-200.000	-0.006	0.170
-493.551	199.070	0.224	-0.444
-492.537	205.325	0.145	-0.292
-491.522	-55.942	-0.243	-0.139
-490.508	107.492	0.159	0.245
-489.493	22.007	0.273	0.287
-488.478	-148.304	0.365	-0.038
-487.464	-149.181	0.173	-0.018
-486.449	18.455	0.383	-0.394
-485.435	-157.539	-0.247	0.019
-484.420	800.000	0.018	-0.090
-483.405	-56.561	0.201	0.114
-482.391	-35.906	-0.144	0.100
-481.376	-200.000	0.033	-0.207
-480.362	-142.073	0.216	-0.027
-479.347	-28.827	-0.196	-0.145
-478.332	32.024	-0.097	-0.108
-477.318	-52.653	-0.424	0.251
-476.303	-200.000	-0.012	0.200
-475.289	38.378	-0.132	-0.151
-474.274	-56.489	0.262	-0.149
-473.259	-200.000	0.036	0.333
-472.245	-22.211	0.212	-0.165
-471.230	139.111	0.049	0.084
-470.216	-18.193	-0.255	0.205
-469.201	192.539	-0.109	-0.212
-468.186	162.100	-0.048	0.087
-467.172	14.350	0.200	0.201
-466.157	-124.318	-0.186	-0.037
-465.143	800.000	-0.032	0.179
-464.128	199.569	0.116	-0.229
-463.113	-200.000	-0.056	-0.567
-462.099	-112.990	-0.415	0.105
-461.084	-86.788	-0.468	-0.183
-460.070	-86.980	0.061	0.024
-459.055	-200.000	-0.005	-0.139
-458.040	-109.241	-0.246	0.067
-457.026	95.239	-0.330	0.485
-456.011	-1.613	0.200	0.181
-454.997	800.000	-0.099	0.363
-453.982	21.692	-0.200	0.209
-452.968	-8.091	0.377	-0.326
-451.953	37.283	0.227	-0.259
-450.938	-200.000	0.008	0.340
-449.924	-98.934	-0.266	-0.086
-448.909	-132.683	0.189	-0.031
-447.895	350.812	-0.216	0.551
-446.880	-50.700	0.280	0.169
-445.865	-196.567	-0.431	-0.004
-444.851	-83.462	0.691	0.283
-443.836	-77.894	-0.505	0.223
-442.822	-200.000	0.041	-0.392
-441.807	800.000	-0.123	-0.506
-440.792	13.431	-0.302	0.302
-439.778	18.722	0.352	0.362
-438.763	-200.000	-0.028	-0.289
-437.749	122.015	-0.186	-0.299
-436.734	-200.000	0.015	-0.272
-435.719	-129.783	-0.520	-0.091
-434.705	800.000	0.028	0.154
-433.690	-39.107	0.364	-0.246
-432.676	163.288	-0.074	0.135
-431.661	56.068	0.174	-0.217
-430.646	-104.039	-0.522	-0.155
-429.632	800.000	-0.102	0.534
-428.617	44.349	-0.074	0.088
-427.603	800.000	-0.070	-0.384
-426.588	-151.508	-0.266	0.025
-425.573	-110.256	0.222	-0.059
-424.559	-136.627	0.545	0.080
-423.544	-57.267	0.234	-0.132
-422.530	-102.961	-0.150	-0.046
-421.515	366.121	0.161	-0.419
-420.500	15.183	-0.259	0.261
-419.486	-70.585	-0.281	-0.136
-418.471	-108.679	0.133	-0.036
-417.457	-200.000	0.011	-0.142
-416.442	61.845	-0.126	-0.162
-415.428	-200.000	-0.043	-0.433
-414.413	451.473	0.148	-0.421
-413.398	800.000	0.082	-0.398
-412.384	-107.668	0.516	-0.144
-411.369	215.999	0.309	0.633
-410.355	180.210	0.268	0.507
-409.340	-200.000	0.017	0.288
-408.325	344.678	0.059	0.151
-407.311	241.548	-0.195	-0.421
-406.296	800.000	0.036	-0.206
-405.282	-110.468	-0.210	0.056
-404.267	-56.699	0.319	0.181
-403.252	157.889	0.129	-0.230
-402.238	-111.687	-0.437	-0.113
-401.223	329.251	0.158	0.392
-400.209	-137.819	0.288	-0.041
-399.194	241.991	-0.267	0.575
-398.179	711.571	0.040	0.137
-397.165	283.221	0.119	-0.276
-396.150	800.000	-0.060	-0.300
-395.136	-124.683	-0.183	0.036
-394.121	184.051	0.070	-0.134
-393.106	-116.729	-0.258	0.060
-392.092	386.584	0.059	-0.158
-391.077	510.652	0.202	-0.608
-390.063	-25.794	-0.353	-0.266
-389.048	739.094	-0.050	-0.173
-388.033	800.000	-0.029	0.125
-387.019	700.566	0.099	0.335
-386.004	-110.917	-0.653	-0.171
-384.990	-89.789	-0.062	-0.023
-383.975	800.000	0.039	0.208
-382.960	-140.516	0.157	0.021
-381.946	800.000	-0.043	0.167
-380.931	-200.000	0.012	-0.157
-379.917	421.056	0.081	-0.223
-378.902	-173.301	0.244	0.009
-377.888	-21.864	0.139	-0.108
-376.873	-76.948	0.344	0.153
-375.858	-65.355	-0.108	0.056
-374.844	108.618	0.205	0.315
-373.829	-60.853	0.270	0.146
-372.815	151.449	-0.322	0.564
-371.800	-129.650	0.133	0.023
-370.785	38.196	0.330	0.378
-369.771	190.286	-0.159	-0.307
-368.756	-142.408	0.278	0.035
-367.742	23.362	-0.268	0.283
-366.727	241.156	0.090	0.194
-365.712	-138.461	0.221	0.031
-364.698	-194.573	0.201	-0.002
-363.683	1.669	0.128	0.118
-362.669	-200.000	-0.028	0.507
-361.654	-154.097	0.448	-0.039
-360.639	174.218	-0.120	-0.224
-359.625	241.895	-0.097	0.209
-358.610	-45.769	0.083	0.053
-357.596	-84.552	-0.263	0.106
-356.581	-173.276	0.617	0.024
-355.566	-162.888	0.415	0.026
-354.552	293.509	-0.118	0.277
-353.537	-0.834	0.431	0.392
-352.523	-200.000	-0.027	0.273
-351.508	200.649	-0.078	-0.154
-350.493	-84.144	0.291	-0.118
-349.479	188.036	0.081	-0.156
-348.464	-27.570	0.099	0.074
-347.450	-109.515	-0.250	-0.067
-346.435	-72.373	-0.290	0.137
-345.420	-200.000	0.030	-0.213
-344.406	-72.452	0.143	0.068
-343.391	-47.321	-0.361	-0.225
-342.377	-10.709	-0.265	-0.225
-341.362	21.677	-0.382	-0.398
-340.348	-70.293	-0.249	0.121
-339.333	-53.314	0.412	-0.242
-338.318	367.615	0.031	0.080
-337.304	-200.000	0.039	-0.445
-336.289	-67.344	-0.365	0.183
-335.275	800.000	0.040	-0.155
-334.260	-113.092	-0.243	0.061
-333.245	163.063	0.207	-0.373
-332.231	-4.250	0.056	0.049
-331.216	-200.000	0.018	-0.614
-330.202	-78.476	-0.077	-0.034
-329.187	-18.748	0.132	-0.105
-328.172	-54.259	0.252	-0.146
-327.158	-200.000	0.001	0.050
-326.143	244.498	0.076	-0.165
-325.129	-124.727	-0.711	-0.140
-324.114	-58.941	-0.373	0.206
-323.099	-16.686	0.345	0.279
-322.085	164.146	0.072	-0.131
-321.070	800.000	0.066	0.249
-320.056	61.690	-0.136	-0.174
-319.041	-200.000	-0.028	-0.320
-318.026	84.554	-0.321	0.450
-317.012	-63.494	-0.395	-0.207
-315.997	800.000	-0.073	-0.393
-314.983	-104.356	0.167	0.049
-313.968	34.008	0.149	-0.166
-312.953	390.033	0.144	0.385
-311.939	49.182	-0.017	0.021
-310.924	-43.705	0.278	-0.179
-309.910	-54.993	-0.226	0.130
-308.895	19.384	0.466	0.479
-307.880	-90.669	-0.533	0.196
-306.866	258.024	-0.096	-0.212
-305.851	-200.000	0.010	-0.133
-304.837	-121.008	-0.542	-0.116
-303.822	460.840	-0.319	0.916
-302.807	-80.401	-0.289	0.123
-301.793	302.082	0.124	0.294
-300.778	42.431	0.110	-0.128
-299.764	-200.000	0.029	0.225
-298.749	-200.000	-0.000	-0.286
-297.735	526.500	0.089	-0.271
-296.720	800.000	-0.079	-0.324
-295.705	-30.091	0.180	0.131
-294.691	71.995	0.113	0.151
-293.676	-44.634	-0.575	-0.366
-292.662	-52.201	-0.463	-0.274
-291.647	-200.000	-0.056	0.649
-290.632	-200.000	-0.063	0.403
-289.618	369.553	-0.059	-0.155
-288.603	-200.000	0.001	0.323
-287.589	-123.444	0.134	-0.027
-286.574	-7.027	-0.466	0.405
-285.559	177.014	-0.245	-0.456
-284.545	-37.087	-0.247	0.169
-283.530	-200.000	-0.010	0.464
-282.516	-3.892	-0.500	0.443
-281.501	800.000	0.084	0.345
-280.486	-52.909	0.126	-0.074
-279.472	485.025	0.204	-0.597
-278.457	45.872	0.054	0.064
-277.443	-200.000	-0.001	-0.331
-276.428	-1.600	0.213	-0.192
-275.413	-28.805	-0.239	0.175
-274.399	-200.000	-0.006	0.192
-273.384	-110.156	-0.232	0.062
-272.370	-46.748	0.218	-0.136
-271.355	-200.000	0.031	-0.311
-270.340	-133.604	-0.254	0.040
-269.326	60.484	-0.389	-0.492
-268.311	-166.709	-0.139	0.007
-267.297	14.496	0.149	-0.148
-266.282	504.614	-0.244	-0.725
-265.267	-55.045	-0.299	-0.171
-264.253	159.168	-0.051	-0.091
-263.238	-200.000	-0.035	0.384
-262.224	128.232	-0.261	0.426
-261.209	800.000	0.123	0.652
-260.195	37.027	0.257	0.291
-259.180	-43.480	0.266	-0.171
-258.165	-7.886	-0.355	0.306
-257.151	-70.235	-0.942	0.455
-256.136	-200.000	-0.004	0.388
-255.122	-61.120	0.279	-0.150
-254.107	800.000	0.136	-0.705
-253.092	-60.084	0.329	-0.179
-252.078	800.000	0.071	0.370
-251.063	484.239	0.111	0.323
-250.049	-38.038	-0.321	0.217
-249.034	164.461	-0.143	-0.259
-248.019	-115.431	-0.524	-0.125
-247.005	83.290	0.239	0.333
-245.990	747.771	-0.115	0.399
-244.976	-200.000	-0.049	-0.555
-243.961	-91.114	-0.180	0.066
-242.946	-72.647	-0.136	-0.064
-241.932	100.365	0.178	-0.264
-240.917	-186.908	0.502	0.009
-239.903	-72.419	0.400	0.188
-238.888	41.427	0.020	0.023
-237.873	800.000	0.119	-0.670
-236.859	10.547	0.307	-0.299
-235.844	-156.854	-0.096	-0.007
-234.830	-75.624	-0.256	-0.115
-233.815	-75.142	0.375	-0.170
-232.800	53.885	0.488	0.599
-231.786	324.165	0.235	-0.574
-230.771	127.918	0.080	0.130
-229.757	197.087	-0.256	-0.501
-228.742	-47.747	0.198	-0.122
-227.727	-10.095	-0.324	-0.274
-226.713	-200.000	0.020	-0.126
-225.698	137.459	-0.021	-0.035
-224.684	-200.000	-0.006	0.250
-223.669	-107.861	0.195	0.054
-222.655	-200.000	-0.010	0.094
-221.640	800.000	-0.043	0.189
-220.625	-106.920	0.286	0.080
-219.611	800.000	-0.120	-0.674
-218.596	-34.850	-0.376	-0.261
-217.582	-200.000	-0.057	0.398
-216.567	155.076	0.076	-0.133
-215.552	-200.000	0.024	0.586
-214.538	77.179	-0.196	-0.266
-213.523	-46.220	0.236	0.148
-212.509	6.629	0.289	0.274
-211.494	-200.000	-0.005	0.154
-210.479	468.911	-0.105	0.302
-209.465	0.969	0.236	0.215
-208.450	150.883	-0.161	0.280
-207.436	-51.569	-0.239	-0.142
-206.421	-79.188	0.548	0.236
-205.406	-200.000	0.092	0.635
-204.392	-108.787	0.202	0.055
-203.377	800.000	0.058	-0.260
-202.363	140.909	0.128	0.216
-201.348	-52.102	0.488	0.288
-200.333	335.755	0.022	0.055
-199.319	655.431	-0.130	0.427
-198.304	-169.260	0.238	0.011
-197.290	370.576	0.067	0.175
-196.275	-37.870	0.459	-0.310
-195.260	372.373	-0.116	0.301
-194.246	-53.422	-0.541	0.315
-193.231	46.001	0.114	0.134
-192.217	-200.000	-0.004	-0.038
-191.202	-92.366	0.237	0.085
-190.187	-200.000	0.096	0.669
-189.173	33.465	-0.264	-0.293
-188.158	590.686	-0.040	0.127
-187.144	-56.080	-0.176	0.100
-186.129	-97.311	-0.344	-0.114
-185.114	-46.566	0.060	-0.038
-184.100	271.466	-0.203	-0.457
-183.085	155.991	0.268	-0.472
-182.071	-200.000	-0.069	-0.642
-181.056	196.280	0.008	0.015
-180.042	78.490	0.139	-0.189
-179.027	120.274	0.288	0.456
-178.012	208.829	-0.203	0.406
-176.998	-36.005	-0.101	-0.069
-175.983	484.749	0.222	-0.648
-174.969	270.018	0.257	0.578
-173.954	-88.067	0.266	0.101
-172.939	39.187	-0.271	0.309
-171.925	178.918	-0.242	-0.451
-170.910	-200.000	0.008	-0.096
-169.896	-140.147	-0.289	0.038
-168.881	-65.709	0.104	0.053
-167.866	-200.000	-0.010	-0.152
-166.852	-68.917	0.444	0.217
-165.837	251.840	0.169	-0.367
-164.823	-96.887	0.223	-0.074
-163.808	-46.800	0.038	0.023
-162.793	-200.000	-0.042	-0.600
-161.779	-115.176	0.454	-0.109
-160.764	-86.569	0.138	-0.054
-159.750	-200.000	0.016	0.180
-158.735	-77.953	-0.297	0.130
-157.720	-19.850	0.148	0.116
-156.706	332.880	0.087	-0.215
-155.691	-200.000	0.037	0.409
-154.677	800.000	-0.092	0.393
-153.662	185.782	0.220	-0.417
-152.647	-123.499	0.424	-0.085
-151.633	-200.000	-0.027	-0.501
-150.618	-21.626	-0.192	0.148
-149.604	-200.000	0.067	-0.568
-148.589	-98.963	0.333	0.107
-147.574	-25.003	-0.336	0.253
-146.560	477.920	-0.021	-0.062
-145.545	-113.794	0.605	-0.149
-144.531	800.000	-0.115	0.461
-143.516	-25.135	-0.137	0.103
-142.502	-140.661	0.266	0.035
-141.487	-22.761	-0.311	0.239
-140.472	110.108	0.300	0.458
-139.458	800.000	-0.059	0.228
-138.443	-13.460	0.120	0.099
-137.429	-70.961	0.396	-0.189
-136.414	46.805	-0.281	0.332
-135.399	-200.000	-0.012	0.110
-134.385	800.000	0.013	0.059
-133.370	283.119	0.073	0.167
-132.356	-141.724	-0.458	-0.058
-131.341	359.469	-0.125	0.320
-130.326	358.087	-0.086	-0.220
-129.312	-119.203	-0.496	-0.109
-128.297	-200.000	0.047	-0.412
-127.283	109.109	0.179	0.273
-126.268	-23.194	-0.156	0.119
-125.253	106.398	0.200	-0.302
-124.239	-59.279	0.487	0.266
-123.224	14.935	-0.279	-0.277
-122.210	548.101	-0.015	0.046
-121.195	-200.000	0.099	0.640
-120.180	157.845	-0.156	-0.275
-119.166	-70.841	0.501	0.239
-118.151	-79.765	0.452	-0.193
-117.137	-111.951	0.324	-0.082
-116.122	-81.866	0.196	-0.081
-115.107	240.649	-0.145	0.308
-114.093	-57.928	0.205	-0.113
-113.078	-41.749	0.095	0.062
-112.064	84.601	0.282	-0.393
-111.049	-4.187	-0.166	-0.146
-110.034	13.573	0.112	0.111
-109.020	581.227	0.092	0.289
-108.005	793.233	0.046	-0.163
-106.991	-109.231	-0.218	-0.058
-105.976	-68.806	0.438	0.214
-104.962	141.363	0.183	-0.308
-103.947	-165.776	-0.434	0.023
-102.932	401.620	-0.053	-0.143
-101.918	23.388	-0.299	-0.312
-100.903	800.000	-0.033	0.166
-99.889	-154.810	-0.332	0.028
-98.874	-23.819	0.264	0.201
-97.859	-102.779	-0.315	-0.095
-96.845	-23.529	0.303	0.230
-95.830	-48.939	0.265	0.161
-94.816	800.000	0.055	0.199
-93.801	-29.271	-0.171	-0.124
-92.786	-192.679	0.056	0.001
-91.772	774.876	0.127	0.444
-90.757	135.424	-0.270	0.447
-89.743	32.494	-0.297	0.326
-88.728	-200.000	-0.000	-0.086
-87.713	-4.158	0.445	0.390
-86.699	-200.000	0.037	-0.336
-85.684	-61.097	-0.073	0.039
-84.670	-200.000	0.055	0.465
-83.655	-188.364	-0.359	0.006
-82.640	-122.801	0.366	-0.074
-81.626	-88.128	0.303	-0.115
-80.611	800.000	-0.020	0.091
-79.597	-9.111	0.090	0.076
-78.582	-59.412	-0.123	0.067
-77.567	351.072	0.098	-0.247
-76.553	785.593	0.023	-0.080
-75.538	-125.978	0.144	0.027
-74.524	-42.214	-0.539	0.348
-73.509	800.000	0.061	-0.328
-72.494	18.374	-0.081	0.082
-71.480	-24.358	0.107	0.081
-70.465	-31.638	0.026	0.018
-69.451	800.000	0.082	-0.346
-68.436	62.924	-0.201	-0.256
-67.422	725.583	0.142	0.484
-66.407	-58.718	0.341	0.187
-65.392	-140.432	-0.412	0.054
-64.378	800.000	-0.024	-0.111
-63.363	800.000	0.018	-0.103
-62.349	10.521	-0.219	0.212
-61.334	19.816	-1.109	-1.132
-60.319	23.255	0.806	0.839
-59.305	421.305	-2.508	-6.851
-58.290	22.547	3.269	3.390
-57.276	387.075	4.065	10.699
-56.261	-200.000	16.932	248.366
-55.246	420.221	1212.941	3309.540
-54.232	57.609	2843.484	3525.832
-53.217	64.662	2724.413	3486.108
-52.203	38.131	2454.065	2768.739
-51.188	38.297	2106.430	2378.468
-50.173	34.723	1980.331	2194.809
-49.159	33.260	1968.985	2165.327
-48.144	32.897	1964.059	2155.659
-47.130	32.737	1962.099	2151.591
-46.115	32.724	1960.639	2149.747
-45.100	32.702	1958.536	2147.104
-44.086	32.586	1957.990	2145.101
-43.071	32.571	1956.607	2143.322
-42.057	32.540	1954.904	2141.023
-41.042	32.592	1953.286	2139.757
-40.027	32.708	1951.285	2138.798
-39.013	32.595	1949.784	2135.784
-37.998	32.591	1948.913	2134.706
-36.984	32.471	1948.273	2132.547
-35.969	32.488	1945.870	2130.026
-34.954	32.453	1945.470	2129.110
-33.940	32.448	1944.286	2127.668
-32.925	32.441	1943.299	2126.427
-31.911	32.431	1942.198	2125.022
-30.896	32.509	1939.868	2123.276
-29.881	32.460	1939.178	2121.875
-28.867	32.422	1937.115	2119.103
-27.852	32.439	1935.540	2117.489
-26.838	32.388	1934.023	2115.174
-25.823	32.471	1932.621	2114.497
-24.809	32.359	1932.265	2112.751
-23.794	32.348	1930.138	2110.221
-22.779	32.404	1929.121	2109.654
-21.765	32.439	1927.627	2108.329
-20.750	32.391	1925.809	2105.717
-19.736	32.362	1925.180	2104.626
-18.721	32.433	1923.412	2103.403
-17.706	32.464	1921.973	2102.092
-16.692	32.242	1922.718	2100.334
-15.677	32.350	1920.761	2099.322
-14.663	32.317	1919.598	2097.597
-13.648	32.218	1918.369	2095.069
-12.633	32.214	1917.428	2093.908
-11.619	32.318	1914.964	2092.293
-10.604	32.338	1913.848	2091.222
-9.590	32.210	1913.052	2088.841
-8.575	32.272	1911.350	2087.588
-7.560	32.152	1910.843	2085.618
-6.546	32.370	1909.213	2086.181
-5.531	32.179	1909.114	2083.861
-4.517	32.261	1907.298	2082.709
-3.502	32.221	1905.896	2080.651
-2.487	32.285	1904.485	2079.739
-1.473	32.378	1901.297	2077.209
-0.458	32.295	1882.281	2055.442
0.556	28.874	2019.909	2152.651
1.571	27.659	2235.277	2366.043
2.586	28.799	2280.659	2428.950
3.600	28.876	2283.914	2433.146
4.615	28.918	2283.329	2432.798
5.629	29.023	2280.664	2431.065
6.644	28.938	2279.617	2428.528
7.659	28.827	2278.248	2425.307
8.673	29.026	2275.382	2424.604
9.688	28.561	2281.092	2424.213
10.702	26.546	2357.370	2477.285
11.717	23.670	2421.989	2504.176
12.731	12.021	2389.503	2306.420
13.746	1.882	2362.780	2137.959
14.761	0.401	2358.666	2113.130
15.775	0.153	2356.922	2107.816
16.790	0.206	2354.346	2106.011
17.804	0.238	2352.925	2104.931
18.819	0.120	2352.450	2102.602
19.834	0.178	2350.651	2101.550
20.848	0.109	2348.813	2098.696
21.863	0.115	2347.890	2097.700
22.877	0.140	2345.225	2095.423
23.892	0.187	2342.865	2093.716
24.907	0.083	2341.137	2090.463
25.921	0.067	2340.304	2089.249
26.936	0.099	2337.518	2086.968
27.950	0.159	2334.353	2084.719
28.965	0.214	2332.064	2083.193
29.980	0.154	2332.041	2082.087
30.994	0.341	2330.410	2082.979
32.009	6.610	2351.266	2189.033
33.023	20.866	2394.777	2430.561
34.038	27.766	2408.881	2541.553
35.053	28.907	2409.582	2557.943
36.067	29.126	2406.377	2557.303
37.082	28.816	2403.759	2549.891
38.096	28.757	2402.130	2547.028
39.111	29.016	2400.041	2548.121
40.126	29.261	2397.970	2549.016
41.140	29.500	2397.417	2551.446
42.155	29.097	2394.732	2542.696
43.169	28.793	2393.333	2536.681
44.184	29.017	2389.635	2535.569
45.199	29.039	2387.036	2532.805
46.213	28.885	2385.956	2529.227
47.228	28.811	2385.485	2527.402
48.242	29.000	2383.422	2527.529
49.257	29.147	2380.653	2526.314
50.271	29.248	2378.889	2525.526
51.286	29.304	2377.328	2524.343
52.301	28.828	2375.106	2515.134
53.315	28.651	2372.706	2509.864
54.330	28.449	2371.461	2505.462
55.344	28.419	2368.352	2501.476
56.359	28.453	2364.695	2497.774
57.374	28.251	2363.044	2492.971
58.388	28.174	2360.031	2488.440
59.403	28.182	2356.206	2484.218
60.417	28.097	2354.265	2480.713
61.432	28.318	2351.852	2480.885
62.447	28.213	2349.729	2476.919
63.461	28.074	2348.118	2473.036
64.476	28.104	2346.209	2471.142
65.490	28.511	2344.544	2474.603
66.505	28.742	2345.053	2477.987
67.520	28.575	2343.970	2474.275
68.534	28.193	2339.835	2464.450
69.549	28.206	2336.629	2460.951
70.563	28.318	2334.140	2459.540
71.578	28.333	2332.887	2458.130
72.593	28.601	2332.543	2461.092
73.607	29.045	2331.034	2465.184
74.622	28.978	2328.962	2461.793
75.636	28.774	2325.327	2454.919
76.651	28.771	2324.552	2453.766
77.666	28.818	2321.806	2451.203
78.680	28.734	2319.643	2447.497
79.695	28.718	2317.809	2445.062
80.709	28.751	2315.732	2443.018
81.724	28.732	2314.715	2441.400
82.739	28.906	2312.969	2441.587
83.753	29.056	2310.509	2440.703
84.768	28.957	2308.826	2437.307
85.782	28.798	2307.531	2433.539
86.797	28.691	2305.135	2429.296
87.812	28.551	2301.457	2423.262
88.826	28.285	2300.347	2418.277
89.841	28.453	2298.984	2418.789
90.855	28.840	2296.401	2420.904
91.870	28.464	2294.075	2413.192
92.884	28.373	2292.257	2409.782
93.899	28.616	2291.452	2411.854
94.914	28.316	2290.569	2406.672
95.928	27.942	2289.135	2399.950
96.943	27.805	2286.165	2394.745
97.957	28.202	2284.534	2397.971
98.972	28.360	2282.812	2397.954
99.987	28.160	2278.880	2390.919
101.001	28.177	2276.498	2388.355
102.016	28.174	2275.483	2386.960
103.030	28.325	2273.121	2386.173
104.045	28.505	2272.050	2387.123
105.060	28.966	2271.150	2391.915
106.074	29.032	2268.055	2389.233
107.089	28.603	2266.023	2381.214
108.103	28.628	2265.383	2380.581
109.118	28.919	2263.601	2382.209
110.133	28.923	2262.219	2380.524
111.147	28.907	2258.910	2376.550
112.162	28.935	2257.419	2375.059
113.176	28.834	2255.481	2371.435
114.191	28.688	2252.915	2366.556
115.206	28.698	2251.307	2364.714
116.220	28.702	2249.581	2362.673
117.235	28.705	2246.512	2359.200
118.249	28.520	2245.075	2355.018
119.264	28.593	2245.030	2355.637
120.279	28.680	2242.828	2354.168
121.293	28.632	2240.123	2350.429
122.308	28.499	2238.455	2346.679
123.322	28.534	2236.979	2345.300
124.337	27.944	2235.494	2335.889
125.352	28.167	2235.494	2338.472
126.366	28.519	2235.669	2342.896
127.381	28.522	2231.351	2338.135
128.395	28.655	2229.157	2337.258
129.410	28.591	2226.956	2333.843
130.424	28.573	2225.419	2331.732
131.439	28.564	2223.719	2329.557
132.454	28.386	2221.881	2325.076
133.468	28.782	2219.597	2327.453
134.483	28.605	2218.233	2323.486
135.497	28.638	2216.330	2321.639
136.512	28.788	2215.248	2322.138
137.527	28.844	2213.334	2320.556
138.541	28.772	2211.236	2317.171
139.556	28.555	2210.462	2313.327
140.570	28.642	2209.099	2312.731
141.585	28.697	2207.515	2311.494
142.600	28.735	2205.958	2310.067
143.614	28.688	2204.248	2307.410
144.629	28.901	2203.036	2308.547
145.643	28.687	2200.405	2302.813
146.658	28.526	2198.085	2298.083
147.673	28.244	2195.755	2291.823
148.687	28.422	2194.670	2292.660
149.702	28.646	2193.610	2294.087
150.716	28.576	2192.966	2292.261
151.731	28.760	2191.875	2293.157
152.746	28.991	2190.801	2294.654
153.760	28.359	2189.474	2285.066
154.775	27.991	2187.537	2278.159
155.789	27.852	2184.780	2273.288
156.804	27.930	2181.467	2270.534
157.819	28.078	2178.794	2269.330
158.833	28.259	2177.362	2269.824
159.848	28.665	2176.404	2273.606
160.862	28.992	2174.998	2275.929
161.877	29.167	2174.496	2277.308
162.892	29.323	2174.418	2278.895
163.906	29.435	2173.363	2278.903
164.921	29.380	2171.351	2275.844
165.935	29.265	2169.027	2271.704
166.950	29.062	2166.382	2266.155
167.964	28.861	2163.852	2260.748
168.979	28.762	2161.693	2257.003
169.994	28.905	2159.881	2256.611
171.008	28.807	2158.511	2253.697
172.023	28.587	2156.755	2248.886
173.037	28.913	2156.608	2252.482
174.052	28.933	2153.897	2249.624
175.067	28.609	2152.554	2243.972
176.081	28.689	2150.726	2242.771
177.096	28.822	2149.042	2242.379
178.110	28.578	2146.976	2236.965
179.125	28.467	2145.868	2234.184
180.140	28.741	2145.511	2236.906
181.154	28.753	2144.274	2235.493
182.169	28.596	2142.689	2231.657
183.183	28.324	2140.686	2225.980
184.198	28.115	2139.395	2221.818
185.213	28.156	2137.739	2220.330
186.227	28.379	2136.546	2221.543
187.242	28.368	2134.821	2219.345
188.256	28.384	2132.656	2217.030
189.271	28.779	2132.247	2221.140
190.286	28.824	2130.032	2219.113
191.300	28.610	2126.765	2212.845
192.315	28.538	2124.663	2209.527
193.329	28.749	2124.832	2211.996
194.344	29.184	2123.162	2215.254
195.359	29.197	2122.137	2214.076
196.373	29.270	2121.032	2213.530
197.388	29.229	2118.258	2209.884
198.402	28.906	2116.577	2203.967
199.417	28.965	2113.645	2201.368
200.432	28.918	2112.416	2199.254
201.446	29.016	2111.011	2198.709
202.461	28.797	2108.773	2193.480
203.475	28.622	2106.937	2189.217
204.490	28.405	2104.275	2183.589
205.504	28.549	2102.342	2183.040
206.519	28.566	2099.731	2180.277
207.534	28.579	2099.086	2179.496
208.548	28.710	2097.710	2179.375
209.563	28.373	2095.591	2172.890
210.577	28.300	2094.228	2170.356
211.592	28.767	2094.353	2175.783
212.607	28.414	2093.363	2170.291
213.621	27.438	2090.479	2155.438
214.636	27.497	2088.379	2153.707
215.650	28.134	2088.146	2160.783
216.665	28.522	2086.906	2163.836
217.680	28.773	2085.863	2165.478
218.694	28.926	2085.400	2166.547
219.709	28.723	2082.151	2160.508
220.723	28.970	2081.627	2162.628
221.738	29.149	2080.368	2163.177
222.753	29.233	2078.223	2161.680
223.767	29.010	2076.157	2156.637
224.782	28.754	2072.737	2149.819
225.796	28.593	2072.389	2147.312
226.811	28.914	2071.754	2150.164
227.826	29.213	2069.640	2151.230
228.840	29.204	2069.269	2150.471
229.855	28.981	2067.050	2145.298
230.869	28.769	2063.707	2139.097
231.884	28.419	2062.263	2133.243
232.899	28.477	2060.616	2131.959
233.913	28.695	2060.547	2134.184
234.928	28.990	2059.857	2136.654
235.942	28.991	2058.153	2134.654
236.957	28.845	2055.851	2130.299
237.972	28.809	2055.286	2129.048
238.986	28.876	2054.102	2128.344
240.001	28.587	2051.557	2122.087
241.015	28.345	2050.223	2117.645
242.030	28.524	2049.942	2119.183
243.045	28.500	2048.571	2117.231
244.059	28.382	2046.089	2113.042
245.074	28.696	2044.109	2114.388
246.088	28.773	2041.273	2112.091
247.103	28.704	2039.772	2109.480
248.117	28.895	2039.075	2110.717
249.132	28.884	2037.772	2108.991
250.147	28.711	2035.218	2104.099
251.161	28.560	2032.973	2099.784
252.176	28.618	2031.889	2099.082
253.190	28.525	2029.431	2095.224
254.205	28.508	2026.954	2092.227
255.220	28.657	2026.281	2092.983
256.234	28.676	2025.316	2091.955
257.249	28.467	2024.161	2088.117
258.263	28.682	2023.139	2089.275
259.278	28.863	2022.737	2090.676
260.293	28.798	2020.869	2087.755
261.307	28.666	2018.980	2084.045
262.322	28.802	2016.888	2083.193
263.336	28.512	2014.363	2077.037
264.351	28.255	2012.581	2072.018
265.366	28.464	2012.458	2074.028
266.380	28.500	2011.633	2073.334
267.395	28.248	2009.545	2068.079
268.409	28.365	2007.154	2066.692
269.424	28.700	2006.051	2069.106
270.439	28.710	2006.374	2069.300
271.453	28.588	2004.308	2065.539
272.468	28.046	2001.323	2056.091
273.482	27.852	1998.993	2051.267
274.497	28.128	1996.825	2051.909
275.512	28.448	1995.309	2053.714
276.526	28.359	1993.677	2050.787
277.541	28.506	1991.008	2049.438
278.555	28.339	1989.411	2045.673
279.570	28.005	1987.597	2039.823
280.585	28.053	1986.485	2038.980
281.599	28.353	1985.001	2040.563
282.614	28.594	1984.411	2042.410
283.628	28.526	1983.317	2040.287
284.643	27.550	1979.020	2024.722
285.657	26.384	1974.770	2007.129
286.672	25.752	1970.730	1995.745
287.687	25.450	1969.570	1990.972
288.701	25.916	1969.969	1996.321
289.716	26.041	1968.073	1995.557
290.730	25.352	1965.022	1984.572
291.745	25.408	1965.057	1984.989
292.760	26.363	1965.141	1995.433
293.774	27.047	1966.704	2004.373
294.789	28.158	1968.762	2018.560
295.803	28.802	1967.232	2023.886
296.818	28.765	1965.747	2021.705
297.833	28.894	1964.743	2021.859
298.847	28.914	1963.971	2021.040
299.862	28.866	1961.702	2017.935
300.876	28.664	1960.007	2013.724
301.891	28.380	1958.737	2009.043
302.906	28.345	1957.855	2007.513
303.920	28.854	1957.043	2012.051
304.935	29.063	1955.338	2012.353
305.949	29.003	1952.240	2008.261
306.964	29.078	1951.343	2007.918
307.979	28.259	1945.078	1992.281
308.993	25.629	1938.048	1956.135
310.008	24.441	1933.559	1938.410
311.022	24.559	1933.159	1939.065
312.037	24.772	1932.591	1940.591
313.052	24.781	1930.443	1938.299
314.066	24.380	1928.127	1931.382
315.081	24.359	1926.472	1929.259
316.095	24.485	1925.429	1929.354
317.110	24.519	1924.132	1928.196
318.125	24.508	1922.579	1926.287
319.139	24.299	1921.660	1922.869
320.154	24.512	1920.251	1923.532
321.168	24.738	1918.551	1924.046
322.183	25.831	1921.816	1938.921
323.197	27.959	1925.719	1965.671
324.212	28.673	1925.162	1972.579
325.227	28.551	1923.156	1968.974
326.241	28.469	1921.592	1966.253
327.256	28.611	1920.359	1966.283
328.270	28.603	1919.423	1964.997
329.285	28.669	1919.376	1965.425
330.300	28.366	1918.782	1961.328
331.314	27.763	1916.194	1951.960
332.329	27.786	1913.918	1949.663
333.343	28.310	1912.703	1953.814
334.358	28.675	1912.103	1956.870
335.373	29.035	1910.517	1958.873
336.387	28.874	1908.134	1954.471
337.402	28.706	1906.814	1951.091
338.416	28.729	1905.225	1949.471
339.431	28.755	1904.125	1948.391
340.446	28.440	1899.893	1940.481
341.460	26.406	1892.955	1911.572
342.475	25.017	1889.080	1892.691
343.489	24.720	1886.146	1886.383
344.504	24.399	1885.144	1881.749
345.519	24.437	1884.420	1881.201
346.533	24.437	1881.853	1878.421
347.548	24.458	1880.554	1877.120
348.562	24.490	1878.926	1875.600
349.577	24.507	1878.091	1874.729
350.592	24.651	1878.310	1876.243
351.606	24.743	1875.938	1874.612
352.621	24.634	1873.964	1871.267
353.635	24.526	1872.814	1868.761
354.650	24.945	1874.088	1874.224
355.665	26.951	1877.319	1898.342
356.679	28.223	1878.955	1913.145
357.694	28.718	1878.488	1917.631
358.708	28.983	1877.683	1919.361
359.723	28.780	1877.281	1916.588
360.738	28.304	1874.115	1908.146
361.752	28.001	1872.632	1903.240
362.767	28.655	1871.122	1908.313
363.781	28.811	1869.973	1908.544
364.796	29.172	1868.642	1910.717
365.810	28.939	1866.650	1906.029
366.825	27.414	1860.309	1883.478
367.840	25.400	1854.018	1855.994
368.854	24.275	1851.756	1841.831
369.869	24.253	1850.296	1839.925
370.883	24.496	1848.539	1840.479
371.898	24.816	1848.493	1843.522
372.913	24.734	1847.498	1841.463
373.927	24.375	1844.696	1834.741
374.942	24.320	1843.719	1832.979
375.956	24.621	1843.424	1835.574
376.971	24.627	1841.199	1833.208
377.986	24.311	1839.247	1827.785
379.000	24.265	1838.331	1826.184
380.015	24.538	1837.326	1827.771
381.029	25.819	1840.869	1844.276
382.044	28.323	1843.269	1872.216
383.059	28.948	1841.843	1876.963
384.073	28.671	1841.334	1873.374
385.088	28.607	1840.193	1871.338
386.102	28.729	1838.475	1870.611
387.117	28.829	1837.355	1870.270
388.132	28.746	1837.760	1869.616
389.146	28.503	1836.230	1865.351
390.161	27.972	1833.100	1856.529
391.175	27.913	1829.864	1852.426
392.190	28.130	1827.351	1851.870
393.205	28.448	1825.399	1852.901
394.219	28.490	1823.988	1851.673
395.234	28.439	1823.292	1850.230
396.248	28.436	1821.810	1848.470
397.263	28.451	1819.818	1846.378
398.278	28.252	1817.597	1841.895
399.292	28.086	1815.196	1837.563
400.307	27.192	1811.271	1824.356
401.321	25.449	1806.031	1801.309
402.336	24.592	1803.435	1789.883
403.350	24.766	1802.827	1790.811
404.365	25.101	1802.070	1793.213
405.380	25.098	1800.396	1791.311
406.394	24.801	1798.718	1786.440
407.409	24.612	1797.636	1783.262
408.423	24.688	1795.951	1782.138
409.438	24.546	1794.243	1778.808
410.453	24.309	1793.531	1775.519
411.467	24.555	1792.759	1777.002
412.482	24.830	1792.764	1779.544
413.496	26.743	1796.917	1802.594
414.511	28.463	1797.408	1820.048
415.526	28.776	1795.748	1821.270
416.540	28.944	1795.176	1822.150
417.555	28.853	1793.800	1819.625
418.569	28.592	1792.918	1815.922
419.584	28.668	1793.137	1816.676
420.599	28.612	1792.580	1815.336
421.613	28.320	1790.986	1810.605
422.628	28.365	1789.748	1809.591
423.642	28.862	1788.182	1812.711
424.657	28.615	1785.251	1807.077
425.672	28.162	1783.388	1800.497
426.686	28.280	1782.580	1800.631
427.701	28.418	1780.446	1799.623
428.715	28.366	1779.714	1798.153
429.730	28.691	1778.448	1799.870
430.745	28.881	1777.785	1800.854
431.759	28.862	1777.059	1799.710
432.774	28.428	1775.345	1793.492
433.788	27.187	1771.347	1777.057
434.803	26.295	1768.744	1765.473
435.818	26.073	1768.462	1762.808
436.832	26.080	1767.364	1761.563
437.847	25.247	1760.433	1746.297
438.861	15.753	1732.419	1626.465
439.876	3.313	1709.614	1484.907
440.890	0.582	1702.742	1452.377
441.905	0.225	1701.923	1448.062
442.920	0.154	1701.125	1446.524
443.934	0.278	1699.587	1446.234
444.949	0.151	1698.564	1443.965
445.963	0.153	1697.438	1442.858
446.978	0.253	1696.664	1442.988
447.993	0.162	1695.015	1440.538
449.007	0.091	1693.602	1438.486
450.022	0.195	1690.972	1437.077
451.036	0.142	1690.531	1436.024
452.051	1.519	1697.319	1454.865
453.066	12.774	1722.451	1585.616
454.080	24.231	1741.397	1714.289
455.095	26.671	1745.928	1742.165
456.109	27.657	1747.242	1752.798
457.124	28.045	1746.539	1755.631
458.139	27.982	1745.826	1754.098
459.153	28.136	1745.339	1754.886
460.168	28.253	1743.540	1753.992
461.182	28.439	1741.694	1753.716
462.197	28.557	1740.246	1753.175
463.212	28.502	1738.864	1751.051
464.226	28.604	1737.526	1750.471
465.241	28.700	1737.156	1750.805
466.255	28.826	1735.800	1750.437
467.270	28.755	1734.141	1747.880
468.285	28.769	1733.337	1746.994
469.299	28.843	1732.439	1746.587
470.314	28.952	1730.848	1745.807
471.328	29.034	1729.150	1744.673
472.343	28.912	1728.562	1742.704
473.358	29.008	1726.805	1741.640
474.372	29.017	1725.790	1740.496
475.387	28.913	1725.152	1738.657
476.401	28.842	1722.155	1734.749
477.416	28.524	1719.925	1729.284
478.430	28.419	1719.310	1727.462
479.445	28.490	1719.255	1727.873
480.460	28.745	1717.304	1728.119
481.474	28.790	1717.219	1728.253
482.489	28.811	1715.349	1726.363
483.503	28.683	1713.630	1723.214
484.518	28.569	1711.905	1720.198
485.533	28.708	1710.278	1719.667
486.547	28.435	1708.850	1715.464
487.562	28.277	1706.966	1711.878
488.576	28.429	1706.442	1712.576
489.591	28.720	1705.073	1713.728
490.606	28.754	1704.649	1713.416
491.620	28.874	1703.260	1712.935
492.635	29.006	1700.281	1710.968
493.649	28.585	1699.267	1705.810
494.664	28.395	1698.605	1703.164
495.679	28.681	1697.117	1704.137
496.693	28.791	1696.468	1704.308
497.708	28.878	1695.338	1703.779
498.722	29.016	1694.185	1703.706
499.737	29.084	1692.712	1702.648
500.752	29.011	1691.081	1700.130
501.766	28.907	1689.320	1697.188
502.781	29.028	1688.228	1697.013
503.795	29.015	1686.800	1695.255
504.810	28.950	1685.965	1693.607
505.825	29.064	1685.168	1693.659
506.839	28.919	1683.501	1690.437
507.854	28.764	1682.097	1687.398
508.868	28.831	1680.766	1686.479
509.883	28.747	1679.012	1683.741
510.898	28.612	1677.753	1681.039
511.912	28.448	1675.761	1677.332
512.927	28.305	1674.308	1674.363
513.941	28.362	1672.326	1672.700
514.956	28.186	1670.484	1669.042
515.971	28.275	1668.791	1667.967
516.985	28.190	1668.343	1666.545
518.000	28.274	1667.728	1666.497
519.014	28.268	1667.231	1665.753
520.029	28.460	1666.072	1666.143
521.043	28.475	1664.017	1664.024
522.058	28.503	1663.470	1663.540
523.073	28.572	1663.325	1663.826
524.087	28.628	1661.970	1662.779
525.102	28.728	1659.916	1661.437
526.116	28.838	1658.664	1660.980
527.131	28.861	1658.101	1660.427
528.146	29.028	1657.578	1661.216
529.160	28.971	1656.587	1659.506
530.175	29.022	1655.441	1658.622
531.189	29.193	1653.579	1658.109
532.204	29.125	1652.310	1656.022
533.219	28.837	1651.896	1652.811
534.233	28.801	1651.663	1652.051
535.248	28.711	1649.220	1648.593
536.262	28.595	1647.639	1645.776
537.277	28.618	1647.358	1645.502
538.292	28.598	1645.979	1643.749
539.306	28.775	1642.777	1641.943
540.321	28.557	1640.910	1637.924
541.335	28.193	1639.469	1633.026
542.350	28.592	1638.288	1635.227
543.365	28.848	1637.507	1636.549
544.379	29.033	1635.848	1636.342
545.394	28.917	1634.664	1633.930
546.408	28.860	1633.521	1632.082
547.423	28.903	1631.883	1630.637
548.438	29.162	1631.725	1632.589
549.452	28.915	1631.001	1629.473
550.467	28.810	1629.004	1626.344
551.481	28.893	1628.475	1626.363
552.496	28.930	1627.778	1625.803
553.511	29.179	1625.524	1625.561
554.525	29.019	1625.651	1624.080
555.540	29.034	1624.812	1623.175
556.554	29.117	1623.280	1622.190
557.569	29.108	1621.309	1619.946
558.583	28.865	1619.661	1615.958
559.598	28.917	1618.465	1615.027
560.613	28.866	1617.726	1613.647
561.627	28.834	1616.461	1611.906
562.642	28.754	1614.434	1608.992
563.656	28.731	1612.396	1606.570
564.671	28.736	1611.327	1605.352
565.686	28.535	1610.954	1603.025
566.700	28.582	1609.445	1601.743
567.715	28.430	1607.754	1598.535
568.729	28.461	1605.962	1596.837
569.744	28.308	1603.951	1593.302
570.759	28.270	1603.220	1592.059
571.773	28.444	1602.516	1592.690
572.788	28.421	1601.631	1591.415
573.802	28.681	1599.556	1591.426
574.817	28.793	1597.934	1590.603
575.832	28.673	1597.779	1589.213
576.846	28.803	1596.549	1588.924
577.861	28.803	1595.298	1587.488
578.875	28.877	1594.786	1587.437
579.890	29.048	1594.359	1588.303
580.905	29.100	1593.000	1587.210
581.919	29.135	1592.859	1587.182
582.934	29.322	1591.219	1586.976
583.948	29.029	1589.788	1582.822
584.963	29.008	1588.524	1581.194
585.978	28.880	1586.757	1578.148
586.992	28.640	1586.042	1575.178
588.007	28.724	1585.268	1574.940
589.021	28.338	1583.245	1569.415
590.036	27.846	1580.203	1561.988
591.051	28.044	1579.517	1562.824
592.065	28.392	1578.314	1564.430
593.080	28.606	1577.362	1565.138
594.094	28.868	1575.757	1565.596
595.109	28.764	1574.721	1563.490
596.123	28.946	1574.221	1564.365
597.138	29.101	1572.777	1564.066
598.153	28.971	1571.136	1561.140
599.167	28.815	1569.402	1557.897
600.182	28.739	1569.166	1556.834
601.196	28.821	1568.498	1556.680
602.211	29.016	1567.466	1557.129
603.226	29.133	1565.020	1555.504
604.240	29.107	1564.609	1554.691
605.255	29.302	1563.399	1554.954
606.269	29.073	1562.779	1552.213
607.284	28.984	1561.662	1550.165
608.299	29.102	1560.111	1549.435
609.313	28.908	1558.368	1545.883
610.328	28.817	1557.580	1544.145
611.342	29.072	1555.331	1543.883
612.357	29.010	1555.032	1542.876
613.372	29.049	1553.960	1541.961
614.386	29.062	1552.059	1539.993
615.401	28.987	1552.083	1539.205
616.415	28.899	1551.616	1537.815
617.430	28.779	1550.755	1535.770
618.445	28.978	1548.879	1535.397
619.459	28.921	1547.229	1533.100
620.474	28.795	1545.994	1530.640
621.488	28.587	1545.072	1527.800
622.503	28.332	1543.727	1524.161
623.518	28.525	1542.601	1524.474
624.532	28.763	1541.618	1525.309
625.547	28.845	1540.655	1524.859
626.561	29.048	1539.145	1524.869
627.576	29.064	1538.717	1524.398
628.591	28.772	1537.495	1520.573
629.605	28.633	1535.303	1517.069
630.620	28.615	1534.304	1515.750
631.634	28.446	1533.234	1513.116
632.649	28.484	1532.399	1512.424
633.663	28.599	1531.463	1512.268
634.678	28.802	1530.583	1512.898
635.693	28.951	1529.089	1512.476
636.707	28.966	1527.394	1510.743
637.722	29.190	1526.890	1511.911
638.736	28.918	1525.991	1508.597
639.751	29.076	1525.071	1508.808
640.766	29.002	1523.436	1506.404
641.780	29.048	1521.940	1505.121
642.795	29.316	1520.278	1505.493
643.809	29.125	1520.670	1504.133
644.824	29.177	1520.035	1503.756
645.839	29.262	1518.609	1502.860
646.853	29.273	1517.317	1501.490
647.868	29.131	1515.473	1498.327
648.882	29.090	1513.738	1496.098
649.897	29.029	1512.285	1493.982
650.912	28.840	1510.451	1490.454
651.926	28.956	1509.598	1490.380
652.941	28.581	1508.174	1485.743
653.955	28.225	1505.976	1480.502
654.970	27.838	1504.094	1475.338
655.985	27.841	1502.684	1473.801
656.999	27.730	1501.467	1471.527
658.014	28.107	1500.115	1473.078
659.028	28.318	1499.944	1474.448
660.043	28.645	1499.994	1476.964
661.058	28.937	1498.738	1477.910
662.072	28.915	1498.080	1476.907
663.087	28.797	1497.157	1474.867
664.101	28.778	1495.907	1473.302
665.116	28.859	1495.146	1473.029
666.131	29.072	1494.331	1473.766
667.145	29.054	1492.879	1472.013
668.160	29.119	1491.776	1471.270
669.174	29.073	1490.529	1469.493
670.189	29.225	1489.348	1469.374
671.204	29.161	1488.831	1468.174
672.218	29.076	1488.294	1466.788
673.233	29.435	1486.341	1467.559
674.247	29.468	1485.672	1466.991
675.262	29.295	1484.534	1464.310
676.276	29.280	1483.134	1462.631
677.291	29.345	1482.055	1461.910
678.306	29.275	1480.821	1459.960
679.320	29.150	1479.828	1457.812
680.335	29.143	1479.281	1457.046
681.349	29.144	1478.973	1456.570
682.364	29.190	1477.260	1455.080
683.379	29.113	1475.738	1452.790
684.393	29.012	1473.902	1450.009
685.408	29.129	1472.581	1449.464
686.422	29.109	1471.824	1448.388
687.437	28.948	1472.135	1447.247
688.452	29.132	1470.697	1447.115
689.466	29.121	1468.880	1445.068
690.481	29.168	1467.426	1443.832
691.495	28.910	1467.141	1441.345
692.510	28.705	1465.724	1438.171
693.525	28.505	1463.893	1434.626
694.539	28.562	1462.964	1433.997
695.554	28.866	1462.902	1436.148
696.568	29.081	1461.890	1436.671
697.583	29.106	1460.470	1435.299
698.598	29.110	1459.860	1434.557
699.612	29.243	1458.533	1434.120
700.627	29.214	1456.985	1432.206
701.641	29.218	1456.073	1431.164
702.656	29.264	1454.871	1430.174
703.671	29.388	1454.911	1431.010
704.685	29.408	1455.034	1431.113
705.700	29.437	1452.530	1428.705
706.714	29.247	1450.424	1424.983
707.729	28.895	1449.330	1421.009
708.744	29.046	1447.355	1420.071
709.758	28.894	1445.870	1417.269
710.773	28.317	1444.670	1411.452
711.787	28.092	1443.634	1408.529
712.802	28.531	1442.024	1410.184
713.816	28.720	1442.002	1411.455
714.831	29.049	1440.485	1412.340
715.846	29.191	1439.641	1412.435
716.860	29.066	1438.756	1410.439
717.875	29.156	1437.601	1409.830
718.889	28.916	1436.844	1407.067
719.904	29.054	1435.697	1406.837
720.919	29.264	1434.333	1406.947
721.933	29.126	1434.254	1405.643
722.948	29.105	1433.217	1404.293
723.962	29.254	1431.934	1404.011
724.977	29.218	1431.022	1402.675
725.992	29.283	1430.074	1402.072
727.006	29.457	1428.533	1401.720
728.021	29.508	1426.883	1400.327
729.035	29.366	1426.240	1398.447
730.050	29.444	1425.435	1398.086
731.065	29.383	1424.238	1396.280
732.079	29.405	1423.004	1395.069
733.094	29.317	1422.081	1393.330
734.108	29.381	1420.317	1391.919
735.123	29.277	1419.263	1389.929
736.138	29.353	1418.972	1390.055
737.152	29.208	1417.961	1387.798
738.167	29.439	1416.472	1387.923
739.181	29.458	1415.456	1386.904
740.196	29.376	1414.818	1385.493
741.211	29.268	1414.240	1383.946
742.225	29.320	1413.102	1383.060
743.240	29.337	1411.065	1381.027
744.254	29.377	1409.595	1379.724
745.269	29.335	1408.799	1378.467
746.284	29.278	1407.952	1377.042
747.298	29.120	1406.758	1374.530
748.313	29.079	1405.589	1372.911
749.327	28.908	1404.322	1370.228
750.342	28.754	1403.430	1368.039
751.356	28.632	1402.749	1366.303
752.371	28.755	1401.489	1365.832
753.386	29.019	1400.475	1366.650
754.400	29.275	1400.177	1368.109
755.415	29.373	1399.413	1367.927
756.429	29.722	1397.131	1368.131
757.444	29.426	1396.137	1364.793
758.459	29.464	1395.936	1364.713
759.473	29.406	1394.924	1363.131
760.488	29.445	1392.789	1361.167
761.502	29.353	1391.660	1359.219
762.517	29.290	1390.374	1357.333
763.532	29.424	1388.734	1356.564
764.546	29.103	1387.563	1352.889
765.561	28.561	1386.137	1347.336
766.575	28.013	1384.968	1341.992
767.590	28.044	1383.411	1340.553
768.605	28.431	1383.450	1343.281
769.619	28.781	1382.995	1345.254
770.634	29.114	1381.168	1345.769
771.648	29.237	1380.348	1345.709
772.663	29.331	1379.995	1345.896
773.678	29.466	1379.368	1346.108
774.692	29.542	1378.703	1345.856
775.707	29.569	1378.068	1345.273
776.721	29.627	1377.387	1344.873
777.736	29.492	1376.437	1342.797
778.751	29.524	1374.946	1341.417
779.765	29.616	1373.820	1340.824
780.780	29.637	1373.098	1340.112
781.794	29.597	1372.263	1338.848
782.809	29.341	1371.390	1335.969
783.824	29.086	1370.467	1333.059
784.838	29.247	1367.943	1331.609
785.853	28.751	1367.156	1327.083
786.867	28.987	1366.627	1328.124
787.882	29.051	1366.093	1327.909
788.897	29.133	1365.291	1327.570
789.911	29.334	1363.747	1327.360
790.926	29.212	1362.621	1325.225
791.940	29.147	1361.598	1323.603
792.955	29.382	1360.014	1323.597
793.969	29.379	1359.300	1322.726
794.984	29.296	1357.974	1320.678
795.999	29.677	1357.148	1322.461
797.013	29.652	1355.781	1320.787
798.028	29.464	1354.360	1317.893
799.042	29.588	1353.770	1318.056
800.057	29.516	1352.784	1316.416
801.072	29.629	1350.958	1315.292
802.086	29.604	1349.976	1314.001
803.101	29.564	1349.251	1312.856
804.115	29.443	1348.745	1311.337
805.130	29.461	1347.708	1310.303
806.145	29.409	1345.983	1308.099
807.159	29.162	1345.109	1305.329
808.174	29.254	1343.956	1304.711
809.188	29.226	1342.909	1303.342
810.203	29.233	1340.910	1301.291
811.218	28.993	1338.634	1297.227
812.232	28.446	1336.946	1291.567
813.247	28.224	1336.094	1289.019
814.261	28.584	1336.763	1292.059
815.276	29.158	1336.221	1295.437
816.291	29.264	1335.462	1295.298
817.305	29.225	1334.724	1294.148
818.320	29.369	1332.515	1292.869
819.334	29.370	1331.688	1291.918
820.349	29.422	1330.967	1291.426
821.364	29.591	1329.196	1290.740
822.378	29.558	1327.854	1289.053
823.393	29.439	1326.085	1286.348
824.407	29.526	1324.907	1285.661
825.422	29.424	1324.787	1284.675
826.437	29.373	1324.081	1283.480
827.451	29.367	1321.719	1280.999
828.466	29.102	1320.085	1277.411
829.480	28.995	1318.240	1274.726
830.495	29.231	1316.549	1274.578
831.509	29.152	1316.865	1274.183
832.524	29.134	1316.362	1273.423
833.539	29.280	1315.181	1273.142
834.553	29.378	1313.590	1272.123
835.568	29.295	1313.558	1271.365
836.582	29.397	1311.942	1270.361
837.597	29.387	1310.463	1268.705
838.612	29.379	1308.824	1266.909
839.626	29.381	1307.134	1265.140
840.641	29.205	1306.763	1263.416
841.655	28.896	1305.478	1259.892
842.670	28.526	1303.492	1255.277
843.685	27.994	1302.194	1250.226
844.699	28.606	1301.629	1253.732
845.714	29.120	1300.813	1256.323
846.728	29.177	1299.952	1255.735
847.743	29.134	1299.286	1254.648
848.758	29.186	1298.260	1253.864
849.772	29.359	1297.197	1253.864
850.787	29.578	1295.126	1253.205
851.801	29.368	1294.694	1251.206
852.816	29.398	1293.661	1250.263
853.831	29.270	1292.493	1248.114
854.845	29.327	1290.594	1246.519
855.860	29.251	1288.792	1244.112
856.874	29.146	1287.760	1242.256
857.889	29.277	1286.452	1241.734
858.904	28.992	1285.106	1238.357
859.918	28.891	1283.248	1235.738
860.933	28.569	1282.868	1233.049
861.947	28.778	1281.891	1233.370
862.962	29.173	1279.806	1233.881
863.977	28.996	1279.347	1232.098
864.991	29.007	1279.227	1231.908
866.006	29.169	1278.869	1232.504
867.020	29.231	1277.213	1231.177
868.035	29.264	1276.268	1230.339
869.049	29.471	1274.853	1230.217
870.064	29.465	1274.234	1229.430
871.079	29.346	1273.425	1227.709
872.093	29.184	1272.594	1225.680
873.108	29.274	1271.380	1224.966
874.122	29.303	1269.399	1223.100
875.137	28.860	1268.438	1219.075
876.152	28.595	1267.860	1216.608
877.166	28.628	1266.658	1215.526
878.181	28.839	1265.476	1215.649
879.195	29.026	1265.018	1216.311
880.210	29.152	1264.569	1216.568
881.225	29.328	1263.500	1216.559
882.239	29.283	1262.423	1215.085
883.254	29.314	1261.744	1214.485
884.268	29.443	1260.406	1213.910
885.283	29.346	1259.561	1212.305
886.298	29.236	1258.666	1210.576
887.312	29.236	1257.295	1209.114
888.327	29.308	1256.376	1208.556
889.341	29.271	1254.515	1206.381
890.356	29.290	1253.775	1205.647
891.371	29.372	1253.105	1205.396
892.385	29.059	1252.948	1203.045
893.400	28.987	1252.132	1201.649
894.414	29.074	1250.256	1200.275
895.429	28.925	1248.399	1197.368
896.444	28.835	1246.452	1194.774
897.458	28.543	1245.175	1191.499
898.473	28.655	1245.000	1191.919
899.487	28.790	1244.732	1192.402
900.502	29.190	1243.197	1193.390
901.517	29.156	1241.705	1191.599
902.531	29.094	1241.482	1190.836
903.546	29.053	1241.181	1190.143
904.560	29.226	1239.856	1189.850
905.575	29.344	1239.031	1189.684
906.589	29.237	1238.005	1187.863
907.604	29.163	1236.897	1186.175
