DTS Sentinel unit serial number:	SN409020Multiplexer serial number:	ORYXHardware model number:	OX4-SRSoftware version number:	ORYX F/W v3.00 Oryx Data Collector v3.7.2.0data status	okinstallation	HaddamTimeLapsedifferential loss correction	single-endedforward channel	channel 3reverse channel	N/Adate	2011/06/21time	21:06:17forward acquisition time	30.00reverse acquisition time	0.00gamma	498.7831k internal	0.1766k external	0.1766temperature offset calibration	1.0074default loss term (dB/km)	0.3790temperature slope calibration	1.3530multiplexer offset coefficient	1.0000multiplexer slope coefficient	1.0000fibre end	0.00T internal ref (°C)	27.53T ext. ref 1 (°C)	20.42T ext. ref 2 (°C)	0.03length (m)	temperature (°C)	Stokes	anti-Stokes-747.200	81.610	-0.206	-0.294
-746.185	-158.053	0.476	0.036
-745.171	-90.337	0.142	-0.054
-744.156	-120.109	0.229	0.051
-743.142	-200.000	0.276	-0.000
-742.127	-200.000	0.019	0.143
-741.112	161.990	-0.289	-0.534
-740.098	62.339	-0.194	0.255
-739.083	81.195	-0.085	0.121
-738.069	578.405	-0.136	0.442
-737.054	49.482	0.183	-0.227
-736.039	235.334	0.124	0.272
-735.025	195.984	-0.152	0.306
-734.010	-60.263	-0.116	-0.065
-732.996	-13.299	-0.253	-0.216
-731.981	246.366	-0.120	-0.268
-730.966	362.466	0.105	-0.279
-729.952	45.004	-0.366	0.444
-728.937	81.647	0.113	0.162
-727.923	305.070	0.069	-0.171
-726.908	-174.488	0.315	-0.012
-725.894	45.080	0.385	0.467
-724.879	-47.818	0.428	0.272
-723.864	203.891	0.093	-0.189
-722.850	-200.000	0.001	-0.362
-721.835	-165.373	0.227	-0.013
-720.821	127.658	-0.054	0.090
-719.806	-200.000	-0.053	-0.364
-718.791	47.492	0.237	-0.291
-717.777	178.755	-0.130	-0.251
-716.762	-66.900	-0.541	-0.280
-715.748	93.974	-0.245	0.367
-714.733	356.336	0.145	0.381
-713.718	-32.714	-0.156	-0.114
-712.704	-3.420	0.323	0.295
-711.689	800.000	-0.051	-0.243
-710.675	8.167	0.413	-0.407
-709.660	-136.865	0.121	-0.018
-708.645	140.463	0.254	-0.443
-707.631	240.724	-0.014	-0.031
-706.616	-32.854	-0.453	0.331
-705.602	800.000	-0.112	-0.431
-704.587	-115.550	0.067	0.016
-703.572	-133.296	-0.500	0.082
-702.558	-119.221	0.329	-0.075
-701.543	25.633	0.283	-0.310
-700.529	-48.796	-0.211	0.132
-699.514	-69.625	-0.319	0.160
-698.499	-144.043	0.549	-0.067
-697.485	800.000	-0.030	0.156
-696.470	-200.000	-0.032	-0.362
-695.456	-107.402	-0.344	0.099
-694.441	-200.000	-0.037	-0.577
-693.426	14.214	-0.054	-0.055
-692.412	-200.000	0.014	-0.209
-691.397	-66.303	0.140	-0.073
-690.383	-32.810	0.047	-0.035
-689.368	55.422	-0.195	0.248
-688.354	-200.000	-0.030	-0.387
-687.339	-133.619	-0.240	-0.039
-686.324	152.558	0.209	-0.376
-685.310	-92.817	-0.195	0.071
-684.295	-171.235	-0.091	0.004
-683.281	36.271	0.207	0.240
-682.266	118.140	0.211	-0.343
-681.251	-200.000	0.000	-0.205
-680.237	75.404	0.188	-0.262
-679.222	-46.805	0.376	-0.241
-678.208	39.303	0.425	0.500
-677.193	-153.824	0.257	0.023
-676.178	800.000	0.086	0.318
-675.164	-64.546	0.396	0.210
-674.149	-99.909	0.088	0.029
-673.135	-15.763	0.267	0.223
-672.120	-45.519	0.359	0.233
-671.105	-73.098	0.138	0.066
-670.091	-18.104	0.223	-0.183
-669.076	70.196	-0.094	0.128
-668.062	-50.173	-0.149	0.092
-667.047	-129.634	0.095	-0.017
-666.032	-200.000	-0.011	-0.316
-665.018	-70.674	-0.290	0.143
-664.003	-73.664	-0.471	-0.224
-662.989	800.000	-0.074	-0.341
-661.974	181.037	0.202	-0.391
-660.959	-200.000	0.027	-0.167
-659.945	125.409	0.070	-0.116
-658.930	-22.323	0.202	-0.160
-657.916	800.000	-0.084	0.325
-656.901	-166.832	0.344	-0.018
-655.886	68.270	0.096	-0.129
-654.872	-42.819	-0.126	-0.084
-653.857	-26.354	-0.113	0.086
-652.843	-200.000	0.030	0.189
-651.828	-163.381	0.593	0.037
-650.814	-200.000	-0.013	0.371
-649.799	320.721	-0.146	-0.365
-648.784	800.000	-0.045	0.206
-647.770	38.883	-0.179	0.210
-646.755	-125.192	-0.509	-0.101
-645.741	33.977	0.186	0.212
-644.726	800.000	-0.100	0.457
-643.711	740.189	-0.138	0.490
-642.697	-80.994	0.436	-0.188
-641.682	-112.360	0.308	-0.080
-640.668	132.576	0.105	-0.178
-639.653	-162.787	-0.321	0.020
-638.638	-200.000	-0.014	0.230
-637.624	-113.047	0.136	-0.035
-636.609	-148.452	-0.231	0.025
-635.595	41.636	-0.113	0.134
-634.580	193.154	-0.058	0.116
-633.565	769.033	0.017	-0.060
-632.551	266.222	0.273	-0.627
-631.536	-200.000	0.028	-0.364
-630.522	106.206	0.210	-0.327
-629.507	-71.011	-0.099	-0.049
-628.492	-120.947	0.457	-0.100
-627.478	-61.735	0.468	0.256
-626.463	95.842	0.049	0.074
-625.449	39.729	-0.181	0.213
-624.434	-110.530	-0.271	0.073
-623.419	52.012	-0.301	-0.376
-622.405	78.278	-0.207	0.290
-621.390	549.118	0.138	0.435
-620.376	130.810	-0.200	-0.337
-619.361	-200.000	0.026	-0.200
-618.346	-162.234	-0.334	0.022
-617.332	-164.028	0.259	0.015
-616.317	-8.150	-0.240	-0.212
-615.303	-152.632	0.437	-0.040
-614.288	800.000	0.095	-0.479
-613.273	298.356	0.112	-0.272
-612.259	-200.000	-0.007	0.251
-611.244	-65.746	-0.111	-0.058
-610.230	-119.904	-0.328	-0.073
-609.215	-135.614	-0.578	0.089
-608.201	225.220	0.159	0.337
-607.186	419.578	-0.188	0.529
-606.171	-105.630	0.331	0.098
-605.157	-200.000	0.076	0.638
-604.142	-42.936	-0.296	0.196
-603.128	14.634	0.187	0.192
-602.113	-70.919	-0.199	0.098
-601.098	168.980	0.197	0.370
-600.084	800.000	0.065	0.327
-599.069	-91.028	-0.172	0.064
-598.055	-94.927	0.178	-0.063
-597.040	-200.000	0.005	0.180
-596.025	-105.312	0.190	-0.056
-595.011	206.934	0.146	-0.298
-593.996	-60.283	-0.578	-0.321
-592.982	800.000	-0.006	-0.034
-591.967	-200.000	0.004	0.037
-590.952	-200.000	-0.059	0.400
-589.938	-26.193	-0.157	-0.120
-588.923	-96.533	0.236	0.081
-587.909	-114.865	-0.369	0.091
-586.894	-155.659	0.300	-0.025
-585.879	-123.978	0.475	-0.097
-584.865	-94.412	-0.243	-0.086
-583.850	366.252	0.016	-0.042
-582.836	800.000	-0.109	-0.410
-581.821	-200.000	-0.050	0.386
-580.806	-12.727	-0.506	0.431
-579.792	137.043	0.157	0.268
-578.777	-127.871	-0.150	0.028
-577.763	-25.475	-0.108	-0.084
-576.748	201.016	-0.122	-0.246
-575.733	75.278	0.191	-0.263
-574.719	-25.507	-0.282	0.218
-573.704	-33.982	-0.315	-0.226
-572.690	-49.099	-0.220	-0.137
-571.675	-42.564	-0.230	-0.153
-570.661	-42.686	0.485	-0.322
-569.646	-163.110	-0.471	0.029
-568.631	211.078	0.227	-0.469
-567.617	-60.738	0.206	-0.114
-566.602	-138.839	-0.948	0.134
-565.588	259.686	0.088	-0.200
-564.573	132.801	-0.056	0.095
-563.558	100.188	0.255	-0.388
-562.544	2.123	-0.074	0.070
-561.529	-200.000	-0.014	-0.240
-560.515	-121.738	-0.326	-0.070
-559.500	-71.096	0.505	-0.247
-558.485	8.129	0.567	-0.557
-557.471	-113.225	0.140	0.036
-556.456	-127.146	-0.147	-0.028
-555.442	-152.838	-0.716	0.066
-554.427	-200.000	0.059	-0.633
-553.412	800.000	0.105	-0.416
-552.398	-200.000	-0.014	0.080
-551.383	-82.277	-0.327	0.138
-550.369	-128.834	-0.388	-0.071
-549.354	-54.668	-0.222	-0.131
-548.339	-38.293	-0.278	0.192
-547.325	99.845	0.081	-0.124
-546.310	765.684	-0.002	-0.008
-545.296	-83.282	-0.448	0.187
-544.281	-14.188	-0.089	0.075
-543.266	-43.009	-0.327	0.216
-542.252	-122.317	-0.241	0.051
-541.237	16.504	-0.277	-0.285
-540.223	164.960	0.152	-0.281
-539.208	-99.496	0.068	0.022
-538.193	-150.507	0.103	0.010
-537.179	15.044	0.217	0.222
-536.164	-91.151	0.374	-0.139
-535.150	-68.801	-0.761	-0.382
-534.135	-140.103	0.330	0.045
-533.121	-44.405	0.061	0.039
-532.106	307.199	-0.243	-0.595
-531.091	-200.000	0.009	-0.175
-530.077	-139.379	-0.155	0.021
-529.062	551.480	-0.030	0.094
-528.048	75.859	-0.296	-0.409
-527.033	-142.754	0.376	0.047
-526.018	9.448	-0.100	-0.098
-525.004	-118.272	0.230	-0.053
-523.989	292.763	-0.107	0.256
-522.975	-200.000	0.218	-0.001
-521.960	96.580	0.078	0.116
-520.945	-200.000	-0.035	-0.258
-519.931	-26.154	0.235	0.180
-518.916	-25.653	0.429	0.330
-517.902	-125.989	0.314	0.061
-516.887	25.356	0.042	-0.045
-515.872	-60.740	-0.238	0.131
-514.858	-139.522	-0.024	-0.003
-513.843	244.449	-0.169	0.372
-512.829	800.000	0.015	0.071
-511.814	109.540	0.185	-0.290
-510.799	-129.541	-0.322	-0.058
-509.785	-98.984	-0.306	0.101
-508.770	74.029	0.217	-0.297
-507.756	-88.551	0.406	-0.157
-506.741	39.327	0.256	-0.299
-505.726	58.801	-0.035	0.045
-504.712	-69.260	-0.454	-0.227
-503.697	-200.000	-0.076	-0.439
-502.683	-128.343	-0.210	-0.039
-501.668	-200.000	0.018	-0.178
-500.653	-98.273	0.127	0.042
-499.639	800.000	-0.037	-0.175
-498.624	-46.892	0.213	0.135
-497.610	280.813	0.018	0.042
-496.595	-158.126	0.342	0.026
-495.581	-200.000	0.012	-0.270
-494.566	-4.341	0.099	-0.089
-493.551	-144.090	0.175	0.021
-492.537	-146.451	0.629	0.071
-491.522	-187.140	0.105	0.002
-490.508	-111.690	-0.449	0.118
-489.493	278.370	-0.082	0.191
-488.478	-52.133	-0.206	-0.125
-487.464	-200.000	0.083	-0.520
-486.449	69.706	-0.138	-0.186
-485.435	-121.850	-0.431	0.092
-484.420	-100.454	-0.250	0.080
-483.405	1.869	0.371	-0.348
-482.391	76.707	-0.188	-0.260
-481.376	-70.850	0.260	-0.127
-480.362	403.084	-0.127	-0.349
-479.347	-130.685	-0.476	-0.083
-478.332	800.000	0.082	0.307
-477.318	800.000	-0.085	0.322
-476.303	268.981	0.138	-0.316
-475.289	-200.000	0.009	-0.300
-474.274	-26.725	0.116	-0.088
-473.259	-125.981	-0.380	0.074
-472.245	107.833	0.057	-0.089
-471.230	-197.884	-0.607	0.005
-470.216	84.223	0.265	0.378
-469.201	-113.353	0.237	-0.060
-468.186	-145.462	0.122	0.014
-467.172	261.019	-0.050	-0.114
-466.157	108.898	0.190	-0.296
-465.143	106.439	-0.024	0.037
-464.128	-64.423	-0.608	-0.321
-463.113	134.181	-0.084	0.141
-462.099	391.334	0.065	0.176
-461.084	-16.856	0.210	-0.173
-460.070	177.883	0.216	0.411
-459.055	-200.000	0.424	-0.000
-458.040	773.646	-0.009	-0.031
-457.026	-131.759	-0.208	-0.035
-456.011	104.596	0.215	-0.331
-454.997	-200.000	0.026	-0.210
-453.982	-60.527	-0.182	0.100
-452.968	-0.868	-0.158	-0.145
-451.953	106.093	-0.260	0.402
-450.938	-200.000	-0.030	0.333
-449.924	-52.847	0.166	0.099
-448.909	105.294	-0.112	0.173
-447.895	-100.494	-0.462	0.148
-446.880	-157.452	-0.243	-0.019
-445.865	387.833	0.200	0.540
-444.851	-173.706	0.224	-0.009
-443.836	800.000	-0.109	-0.537
-442.822	-200.000	-0.114	-0.751
-441.807	-200.000	0.018	0.140
-440.792	-21.248	-0.096	-0.076
-439.778	49.053	-0.065	-0.079
-438.763	-99.925	0.421	0.136
-437.749	-22.739	-0.300	0.235
-436.734	247.197	-0.179	0.394
-435.719	131.869	0.188	-0.315
-434.705	-58.313	-0.729	-0.411
-433.690	129.285	0.238	-0.396
-432.676	800.000	-0.046	-0.178
-431.661	-194.965	-0.047	0.000
-430.646	-200.000	-0.025	0.289
-429.632	-200.000	0.025	-0.362
-428.617	297.798	0.193	-0.462
-427.603	13.313	0.116	-0.116
-426.588	-55.060	0.402	0.235
-425.573	170.465	-0.251	-0.468
-424.559	-23.108	-0.432	0.338
-423.544	-35.354	0.344	0.242
-422.530	-200.000	0.014	0.167
-421.515	366.848	-0.045	0.119
-420.500	36.512	-0.317	-0.364
-419.486	-77.034	0.569	0.257
-418.471	-16.301	0.127	0.105
-417.457	-200.000	-0.015	-0.157
-416.442	-102.817	0.381	-0.117
-415.428	-162.980	-0.259	0.016
-414.413	521.489	-0.126	-0.385
-413.398	-110.789	-0.243	-0.065
-412.384	-139.489	-0.310	-0.043
-411.369	18.113	0.140	0.145
-410.355	-55.665	0.416	-0.241
-409.340	-134.624	0.409	0.064
-408.325	293.788	0.152	-0.362
-407.311	-200.000	-0.018	-0.487
-406.296	74.115	0.181	-0.248
-405.282	800.000	-0.057	-0.246
-404.267	56.894	-0.130	-0.165
-403.252	330.388	0.183	-0.461
-402.238	-200.000	0.032	0.343
-401.223	-200.000	0.019	-0.308
-400.209	-1.683	0.158	0.144
-399.194	-14.965	0.155	0.129
-398.179	-4.198	0.459	0.413
-397.165	-200.000	0.021	0.202
-396.150	-200.000	0.002	0.057
-395.136	800.000	-0.090	0.443
-394.121	277.008	-0.017	0.041
-393.106	24.188	-0.133	-0.143
-392.092	-152.365	0.186	0.017
-391.077	-199.471	-0.630	-0.004
-390.063	-167.147	0.248	0.013
-389.048	13.514	0.249	-0.251
-388.033	-84.625	-0.244	0.100
-387.019	-173.273	0.168	0.007
-386.004	-102.170	0.377	-0.117
-384.990	-76.488	0.538	-0.245
-383.975	-40.668	0.266	-0.179
-382.960	-94.260	0.584	0.206
-381.946	-41.540	0.154	0.102
-380.931	-138.681	0.310	0.044
-379.917	-19.387	-0.229	-0.184
-378.902	-70.717	0.143	-0.070
-377.888	-4.191	0.092	-0.083
-376.873	-28.041	-0.109	-0.082
-375.858	640.253	0.051	-0.168
-374.844	-87.687	-0.214	-0.083
-373.829	73.363	-0.275	-0.374
-372.815	69.715	0.144	0.193
-371.800	-200.000	0.008	0.347
-370.785	373.311	-0.088	-0.232
-369.771	-96.318	-0.168	-0.057
-368.756	-106.523	-0.478	0.137
-367.742	-25.326	0.418	0.321
-366.727	-84.878	0.588	-0.238
-365.712	-33.263	-0.329	0.236
-364.698	240.184	0.167	0.362
-363.683	523.200	-0.185	0.567
-362.669	-88.789	-0.122	0.047
-361.654	35.462	-0.292	-0.333
-360.639	60.873	-0.068	-0.087
-359.625	-65.708	-0.381	-0.197
-358.610	-200.000	-0.002	0.041
-357.596	800.000	-0.067	-0.274
-356.581	-162.781	0.164	-0.010
-355.566	-162.474	-0.102	0.006
-354.552	-12.319	-0.260	-0.220
-353.537	-128.031	-0.294	0.054
-352.523	97.961	0.104	0.155
-351.508	-39.972	-0.563	0.380
-350.493	-138.049	-0.219	-0.031
-349.479	-200.000	-0.004	-0.407
-348.464	800.000	-0.096	0.402
-347.450	800.000	0.051	-0.218
-346.435	-15.518	0.176	0.145
-345.420	216.905	0.169	-0.351
-344.406	-100.134	0.249	-0.080
-343.391	595.911	-0.030	-0.097
-342.377	12.864	0.192	0.193
-341.362	-76.955	0.217	0.098
-340.348	-66.722	0.267	0.136
-339.333	47.480	-0.280	0.339
-338.318	-103.089	-0.091	0.028
-337.304	-48.176	0.248	-0.154
-336.289	197.839	-0.293	-0.583
-335.275	-171.145	0.137	-0.006
-334.260	212.848	-0.089	-0.183
-333.245	-51.165	0.334	0.202
-332.231	-200.000	0.044	0.374
-331.216	800.000	-0.020	-0.075
-330.202	-200.000	0.015	0.184
-329.187	471.529	0.109	0.320
-328.172	-114.342	-0.467	0.116
-327.158	55.748	-0.364	0.457
-326.143	-200.000	-0.060	0.449
-325.129	-30.397	-0.061	0.044
-324.114	66.178	0.257	-0.339
-323.099	-83.941	-0.453	-0.186
-322.085	79.049	0.210	0.292
-321.070	-200.000	-0.011	0.286
-320.056	-200.000	-0.013	0.495
-319.041	-110.265	0.027	-0.007
-318.026	-79.106	-0.367	0.161
-317.012	185.431	-0.136	-0.262
-315.997	248.500	-0.116	0.255
-314.983	-79.420	-0.334	0.145
-313.968	-9.280	0.153	0.132
-312.953	53.347	-0.139	-0.172
-311.939	11.724	-0.161	-0.160
-310.924	220.916	0.141	-0.294
-309.910	-180.709	0.338	-0.009
-308.895	-124.880	0.252	-0.050
-307.880	-98.862	0.239	-0.078
-306.866	-121.395	-0.362	0.077
-305.851	131.032	-0.196	-0.326
-304.837	-119.774	0.469	-0.104
-303.822	-84.162	0.305	0.124
-302.807	-113.275	0.379	-0.096
-301.793	-110.367	-0.434	0.116
-300.778	13.953	-0.696	0.701
-299.764	-71.385	0.212	0.102
-298.749	507.789	-0.030	0.092
-297.735	43.225	-0.120	0.141
-296.720	129.216	-0.170	0.282
-295.705	-93.827	-0.254	-0.090
-294.691	-79.998	0.362	-0.156
-293.676	-127.403	-0.359	-0.067
-292.662	82.319	0.188	0.264
-291.647	336.680	0.073	0.185
-290.632	554.099	0.059	-0.184
-289.618	-65.866	0.084	-0.043
-288.603	800.000	0.075	-0.359
-287.589	-112.426	0.668	-0.171
-286.574	51.743	-0.063	0.078
-285.559	-131.581	-0.623	-0.105
-284.545	800.000	-0.030	0.153
-283.530	-200.000	-0.021	0.388
-282.516	-200.000	-0.034	-0.344
-281.501	-161.723	-0.163	-0.011
-280.486	-200.000	0.030	-0.251
-279.472	-117.372	-0.156	0.036
-278.457	-200.000	0.024	-0.168
-277.443	505.958	-0.100	-0.302
-276.428	-139.087	0.544	0.075
-275.413	89.028	0.168	-0.242
-274.399	110.332	0.210	-0.327
-273.384	81.237	-0.127	0.178
-272.370	-17.107	-0.354	0.288
-271.355	113.727	-0.218	0.343
-270.340	86.048	0.191	0.272
-269.326	-166.456	0.268	0.014
-268.311	-102.737	0.162	0.050
-267.297	800.000	-0.054	0.220
-266.282	41.432	-0.067	0.078
-265.267	7.297	0.124	-0.119
-264.253	-200.000	-0.024	0.165
-263.238	29.525	-0.085	0.094
-262.224	-119.403	0.627	0.140
-261.209	-200.000	0.149	-0.000
-260.195	61.449	-0.089	0.115
-259.180	800.000	0.101	0.365
-258.165	-0.191	0.111	-0.102
-257.151	-0.489	0.191	-0.175
-256.136	-67.586	0.437	0.221
-255.122	163.810	0.359	0.655
-254.107	-200.000	0.024	-0.210
-253.092	-9.773	0.176	0.151
-252.078	-129.921	0.300	-0.053
-251.063	143.072	-0.065	0.112
-250.049	-132.890	0.311	-0.051
-249.034	163.644	-0.074	0.135
-248.019	145.723	-0.052	-0.090
-247.005	-4.895	0.222	-0.198
-245.990	421.282	-0.072	0.202
-244.976	800.000	0.044	-0.179
-243.961	128.356	-0.013	0.021
-242.946	-132.814	0.092	-0.015
-241.932	141.651	0.137	-0.235
-240.917	800.000	-0.058	-0.319
-239.903	-200.000	-0.016	0.348
-238.888	-162.117	-0.140	-0.009
-237.873	73.218	0.144	-0.195
-236.859	-174.691	0.342	0.012
-235.844	49.113	0.259	-0.314
-234.830	-200.000	-0.078	-0.629
-233.815	216.435	-0.131	0.270
-232.800	-200.000	0.088	0.544
-231.786	-200.000	-0.001	-0.330
-230.771	-101.003	0.399	0.126
-229.757	-143.325	-0.346	-0.042
-228.742	148.170	-0.158	0.275
-227.727	-22.573	-0.185	-0.144
-226.713	275.391	-0.026	-0.060
-225.698	-200.000	0.046	0.339
-224.684	481.369	-0.061	0.179
-223.669	-17.798	0.295	-0.239
-222.655	206.504	0.203	-0.410
-221.640	800.000	0.032	0.174
-220.625	-125.287	0.172	-0.034
-219.611	-82.249	-0.439	0.184
-218.596	-10.987	0.405	0.344
-217.582	49.576	0.078	-0.095
-216.567	-142.232	-0.335	-0.042
-215.552	-18.794	-0.263	0.211
-214.538	-25.792	-0.023	0.017
-213.523	800.000	0.177	0.681
-212.509	-144.163	-0.205	0.025
-211.494	-41.125	0.102	0.068
-210.479	210.750	0.105	0.214
-209.465	-22.173	0.203	-0.158
-208.450	800.000	0.131	-0.537
-207.436	12.329	0.290	0.288
-206.421	-109.784	-0.265	0.071
-205.406	21.166	0.117	0.123
-204.392	-200.000	-0.032	-0.000
-203.377	-53.450	0.310	-0.183
-202.363	-1.960	0.383	0.347
-201.348	800.000	0.077	0.280
-200.333	26.772	0.250	-0.270
-199.319	4.581	0.021	0.019
-198.304	112.483	-0.098	0.154
-197.290	-85.856	-0.194	-0.077
-196.275	-151.865	-0.242	-0.023
-195.260	329.271	-0.069	-0.171
-194.246	-103.056	-0.235	0.071
-193.231	-200.000	-0.011	0.273
-192.217	81.871	-0.071	-0.099
-191.202	-129.707	0.523	-0.092
-190.187	-125.267	0.287	0.056
-189.173	800.000	-0.054	0.208
-188.158	-65.189	-0.344	0.178
-187.144	161.454	0.097	-0.176
-186.129	-200.000	0.021	-0.379
-185.114	-200.000	-0.035	0.270
-184.100	-43.357	-0.230	0.149
-183.085	-14.028	0.301	0.250
-182.071	-145.965	-0.539	-0.061
-181.056	-200.000	0.008	-0.211
-180.042	-48.301	0.308	0.191
-179.027	-52.005	-0.354	-0.211
-178.012	41.731	-0.374	0.437
-176.998	-61.100	0.258	-0.140
-175.983	71.225	-0.349	-0.466
-174.969	239.906	-0.159	0.342
-173.954	121.730	-0.081	0.131
-172.939	-200.000	-0.016	-0.110
-171.925	-19.058	0.461	0.369
-170.910	79.887	-0.335	0.464
-169.896	-92.268	-0.269	0.097
-168.881	-174.816	0.120	-0.004
-167.866	-200.000	-0.006	0.068
-166.852	118.362	0.099	0.158
-165.837	-158.617	0.358	0.026
-164.823	55.281	-0.122	0.153
-163.808	-58.783	0.197	-0.110
-162.793	361.591	-0.099	0.255
-161.779	-200.000	-0.006	0.292
-160.764	-99.795	0.438	-0.140
-159.750	-28.417	-0.112	0.083
-158.735	-200.000	-0.024	0.166
-157.720	-27.602	0.137	0.103
-156.706	-71.816	-0.160	-0.076
-155.691	800.000	0.066	0.340
-154.677	352.892	-0.078	0.199
-153.662	-200.000	-0.005	0.278
-152.647	-167.501	0.139	-0.007
-151.633	-3.382	-0.091	-0.082
-150.618	-200.000	0.042	0.388
-149.604	-90.938	0.315	-0.116
-148.589	-32.062	-0.294	-0.211
-147.574	-156.450	-0.410	-0.032
-146.560	-56.891	-0.324	-0.184
-145.545	230.889	0.015	0.032
-144.531	-52.881	0.125	0.074
-143.516	-74.026	0.185	0.086
-142.502	101.822	-0.020	0.030
-141.487	-200.000	0.051	0.502
-140.472	-39.814	0.684	0.459
-139.458	-62.202	0.484	0.259
-138.443	298.426	-0.157	0.374
-137.429	-125.085	-0.081	0.016
-136.414	-58.289	-0.432	0.241
-135.399	-110.214	-0.264	0.070
-134.385	800.000	-0.124	-0.487
-133.370	-181.226	-0.370	-0.009
-132.356	-96.867	0.387	-0.130
-131.341	20.354	0.350	-0.364
-130.326	-200.000	-0.012	0.484
-129.312	-87.689	0.217	0.084
-128.297	-38.375	0.332	0.225
-127.283	-16.239	0.220	-0.179
-126.268	-47.902	0.254	-0.158
-125.253	-68.242	0.309	0.154
-124.239	598.601	-0.105	0.338
-123.224	-98.225	0.598	0.196
-122.210	563.644	-0.208	-0.652
-121.195	18.409	-0.126	0.129
-120.180	-5.232	0.076	0.067
-119.166	-30.921	-0.250	0.181
-118.151	-54.045	-0.276	0.161
-117.137	-200.000	0.068	-0.712
-116.122	43.152	-0.356	-0.418
-115.107	49.469	0.107	-0.129
-114.093	-100.145	-0.396	0.126
-113.078	11.543	0.343	-0.338
-112.064	-24.039	0.217	0.167
-111.049	376.067	0.183	0.482
-110.034	-162.309	0.546	0.034
-109.020	62.720	0.200	0.257
-108.005	78.774	0.327	0.450
-106.991	-20.056	-0.107	0.085
-105.976	457.379	-0.164	0.471
-104.962	-112.069	-0.293	-0.075
-103.947	-29.339	0.384	-0.282
-102.932	29.211	0.403	-0.439
-101.918	-198.226	0.454	0.003
-100.903	147.461	0.132	0.229
-99.889	64.408	-0.187	-0.242
-98.874	708.623	-0.100	0.341
-97.859	100.484	0.240	0.358
-96.845	800.000	-0.027	-0.145
-95.830	-31.752	-0.432	-0.310
-94.816	-200.000	-0.021	-0.288
-93.801	22.355	0.174	-0.182
-92.786	-3.340	0.589	0.526
-91.772	-19.698	0.294	-0.233
-90.757	-98.751	0.185	0.060
-89.743	606.927	0.111	-0.356
-88.728	101.151	-0.013	0.020
-87.713	-183.878	0.108	-0.002
-86.699	80.382	0.115	-0.159
-85.684	-46.176	-0.201	0.127
-84.670	-186.638	0.187	-0.003
-83.655	108.707	-0.225	-0.346
-82.640	103.208	0.042	0.063
-81.626	-28.956	-0.257	-0.189
-80.611	-200.000	0.016	-0.258
-79.597	55.856	-0.314	0.391
-78.582	31.513	-0.246	0.272
-77.567	-200.000	-0.050	0.341
-76.553	-159.552	0.625	0.044
-75.538	481.762	0.022	0.065
-74.524	158.723	0.192	0.343
-73.509	-61.797	-0.234	-0.125
-72.494	-12.168	0.122	0.103
-71.480	-79.303	-0.349	-0.151
-70.465	189.221	-0.164	0.316
-69.451	225.644	0.095	0.198
-68.436	109.775	-0.149	0.230
-67.422	10.382	-0.277	-0.271
-66.407	596.078	0.118	-0.376
-65.392	-200.000	0.331	0.001
-64.378	-2.293	-0.123	0.111
-63.363	102.782	0.415	0.624
-62.349	70.064	0.107	-0.141
-61.334	32.449	-2.068	-2.291
-60.319	18.366	0.735	0.753
-59.305	240.694	-3.222	-6.918
-58.290	31.306	3.652	4.022
-57.276	277.605	4.392	10.062
-56.261	-200.000	18.314	286.840
-55.246	383.418	1259.814	3339.454
-54.232	55.717	2836.235	3526.446
-53.217	54.382	2690.399	3324.371
-52.203	37.651	2418.644	2753.243
-51.188	33.423	2075.645	2310.985
-50.173	29.551	1955.639	2132.444
-49.159	28.167	1945.975	2105.822
-48.144	27.816	1940.915	2096.216
-47.130	27.862	1939.812	2095.474
-46.115	27.919	1937.621	2093.673
-45.100	27.870	1936.227	2091.518
-44.086	27.843	1935.618	2090.470
-43.071	27.810	1933.164	2087.357
-42.057	27.760	1932.066	2085.518
-41.042	27.897	1930.165	2084.948
-40.027	27.773	1929.152	2082.354
-39.013	27.735	1928.068	2080.667
-37.998	27.795	1925.894	2078.921
-36.984	27.750	1924.714	2077.050
-35.969	27.750	1924.024	2076.223
-34.954	27.840	1921.827	2074.803
-33.940	27.781	1921.395	2073.577
-32.925	27.684	1920.107	2070.995
-31.911	27.630	1919.024	2069.131
-30.896	27.604	1917.897	2067.539
-29.881	27.624	1916.182	2065.832
-28.867	27.561	1914.926	2063.687
-27.852	27.595	1913.506	2062.458
-26.838	27.509	1913.341	2061.221
-25.823	27.525	1910.791	2058.571
-24.809	27.420	1910.217	2056.678
-23.794	27.475	1908.400	2055.266
-22.779	27.574	1906.583	2054.345
-21.765	27.505	1905.376	2052.186
-20.750	27.411	1904.340	2049.931
-19.736	27.514	1903.046	2049.618
-18.721	27.440	1902.331	2047.927
-17.706	27.463	1900.656	2046.305
-16.692	27.476	1899.376	2044.991
-15.677	27.516	1898.164	2044.051
-14.663	27.482	1897.570	2042.956
-13.648	27.388	1896.159	2040.289
-12.633	27.330	1895.566	2038.918
-11.619	27.562	1892.243	2037.878
-10.604	27.450	1891.925	2036.186
-9.590	27.381	1890.609	2033.918
-8.575	27.351	1889.570	2032.381
-7.560	27.505	1887.962	2032.304
-6.546	27.426	1887.914	2031.284
-5.531	27.226	1886.298	2027.216
-4.517	27.324	1884.971	2026.811
-3.502	27.405	1883.962	2026.549
-2.487	27.492	1883.457	2026.899
-1.473	27.570	1878.907	2022.794
-0.458	26.931	1859.184	1994.431
0.556	22.440	2001.161	2080.963
1.571	20.153	2207.133	2264.868
2.586	20.996	2247.936	2317.735
3.600	21.110	2251.134	2322.282
4.615	21.044	2250.373	2320.342
5.629	21.017	2247.767	2317.010
6.644	21.020	2245.967	2314.920
7.659	21.074	2243.965	2313.297
8.673	21.121	2242.143	2311.771
9.688	20.890	2249.918	2316.413
10.702	19.409	2327.881	2375.916
11.717	17.259	2391.532	2409.974
12.731	8.208	2370.284	2259.899
13.746	1.143	2350.994	2141.205
14.761	0.241	2346.826	2124.363
15.775	0.016	2346.037	2120.203
16.790	0.150	2343.226	2119.314
17.804	0.051	2342.958	2117.419
18.819	-0.045	2341.838	2114.792
19.834	-0.001	2340.316	2113.783
20.848	0.115	2337.565	2112.684
21.863	0.099	2336.164	2110.936
22.877	0.085	2333.948	2108.490
23.892	0.024	2332.126	2105.725
24.907	0.027	2329.949	2103.551
25.921	-0.003	2327.768	2100.907
26.936	0.080	2325.071	2099.393
27.950	0.025	2323.327	2096.794
28.965	0.068	2321.858	2095.820
29.980	0.078	2319.838	2093.880
30.994	0.078	2318.034	2092.005
32.009	4.113	2329.345	2158.546
33.023	14.051	2358.670	2325.829
34.038	18.200	2366.233	2391.426
35.053	18.250	2362.929	2388.507
36.067	18.083	2358.813	2381.722
37.082	17.907	2357.413	2377.554
38.096	18.065	2355.238	2377.293
39.111	18.312	2354.275	2379.480
40.126	18.562	2352.608	2381.003
41.140	18.638	2351.843	2381.008
42.155	18.668	2349.937	2379.213
43.169	18.710	2347.110	2376.647
44.184	18.421	2344.211	2369.402
45.199	18.505	2341.556	2367.603
46.213	18.615	2341.464	2368.757
47.228	18.547	2341.501	2367.566
48.242	18.719	2338.667	2366.804
49.257	18.744	2337.907	2366.092
50.271	18.818	2334.596	2363.481
51.286	18.628	2331.184	2357.120
52.301	18.339	2329.558	2351.216
53.315	19.202	2333.799	2367.142
54.330	22.528	2343.339	2422.572
55.344	24.575	2344.166	2451.417
56.359	24.892	2341.808	2453.016
57.374	24.997	2340.751	2453.065
58.388	25.174	2337.790	2452.101
59.403	24.821	2333.878	2442.863
60.417	24.417	2329.978	2432.953
61.432	24.542	2328.760	2433.092
62.447	24.677	2328.216	2434.084
63.461	24.899	2325.614	2434.112
64.476	25.082	2323.522	2434.129
65.490	24.724	2320.903	2426.207
66.505	23.810	2318.283	2410.724
67.520	21.425	2308.674	2368.017
68.534	18.865	2298.540	2322.615
69.549	18.134	2293.890	2307.722
70.563	18.185	2291.064	2305.292
71.578	18.095	2289.587	2302.319
72.593	18.175	2288.258	2301.780
73.607	18.392	2286.496	2302.664
74.622	18.354	2284.607	2299.982
75.636	18.140	2281.764	2293.954
76.651	18.137	2279.597	2291.465
77.666	18.172	2277.177	2289.228
78.680	17.994	2274.595	2283.962
79.695	17.726	2272.517	2278.007
80.709	17.558	2271.018	2273.979
81.724	17.595	2268.539	2271.722
82.739	17.637	2266.223	2269.692
83.753	17.712	2264.193	2268.384
84.768	17.699	2263.029	2266.770
85.782	17.473	2261.733	2262.184
86.797	17.542	2259.134	2260.233
87.812	17.565	2257.529	2258.661
88.826	17.764	2254.956	2258.476
89.841	17.790	2253.549	2257.138
90.855	17.863	2250.869	2255.148
91.870	17.794	2250.154	2253.250
92.884	17.916	2248.052	2252.494
93.899	17.980	2246.970	2251.990
94.914	18.680	2250.624	2264.666
95.928	21.550	2258.801	2310.771
96.943	22.643	2257.354	2323.496
97.957	19.975	2244.668	2274.969
98.972	17.991	2238.929	2242.729
99.987	17.754	2234.811	2235.215
101.001	17.802	2231.645	2232.406
102.016	17.742	2230.569	2230.284
103.030	17.709	2228.269	2227.283
104.045	17.740	2226.669	2225.820
105.060	17.750	2224.161	2223.178
106.074	17.745	2222.282	2220.965
107.089	17.829	2220.747	2220.262
108.103	17.830	2219.413	2218.679
109.118	17.857	2218.081	2217.439
110.133	18.046	2216.836	2218.395
111.147	17.770	2214.722	2212.420
112.162	17.794	2213.217	2210.953
113.176	17.949	2211.700	2211.191
114.191	18.059	2209.455	2210.119
115.206	18.209	2208.145	2210.488
116.220	18.014	2205.578	2205.123
117.235	18.064	2204.521	2204.457
118.249	18.133	2202.894	2203.461
119.264	18.185	2201.172	2202.141
120.279	18.074	2199.515	2198.792
121.293	18.088	2197.106	2196.293
122.308	18.101	2195.897	2194.989
123.322	18.037	2194.838	2192.844
124.337	18.485	2195.779	2199.297
125.352	21.602	2205.164	2248.744
126.366	22.480	2203.228	2257.819
127.381	19.316	2192.229	2205.649
128.395	18.149	2186.743	2184.888
129.410	17.970	2183.276	2178.865
130.424	17.794	2181.666	2174.740
131.439	17.930	2179.934	2174.499
132.454	18.006	2179.235	2174.511
133.468	18.201	2177.099	2174.612
134.483	18.314	2175.452	2174.154
135.497	18.388	2174.504	2173.892
136.512	18.265	2171.547	2169.104
137.527	18.185	2169.556	2165.840
138.541	17.779	2167.901	2158.762
139.556	17.902	2167.122	2159.292
140.570	17.833	2165.460	2156.499
141.585	17.715	2162.416	2151.721
142.600	17.712	2162.092	2151.099
143.614	17.601	2159.882	2147.240
144.629	17.568	2157.361	2144.061
145.643	17.562	2156.404	2142.768
146.658	17.584	2153.777	2140.187
147.673	17.478	2152.197	2137.013
148.687	17.462	2151.125	2135.499
149.702	17.586	2150.807	2136.484
150.716	17.743	2149.236	2136.646
151.731	17.785	2148.033	2135.728
152.746	17.799	2148.203	2135.816
153.760	18.687	2151.152	2149.675
154.775	21.781	2159.885	2197.181
155.789	22.917	2158.050	2209.353
156.804	20.013	2146.029	2160.426
157.819	17.986	2137.517	2126.258
158.833	17.623	2135.684	2119.642
159.848	17.698	2132.613	2117.283
160.862	17.814	2131.476	2117.342
161.877	17.975	2131.483	2119.099
162.892	17.922	2130.935	2117.643
163.906	18.020	2128.689	2116.382
164.921	18.017	2127.203	2114.608
165.935	17.999	2124.160	2111.107
166.950	18.139	2123.255	2111.692
167.964	18.155	2120.282	2108.689
168.979	17.842	2118.212	2102.493
169.994	17.734	2116.551	2099.256
171.008	17.629	2114.693	2095.867
172.023	17.649	2113.005	2094.197
173.037	17.841	2112.573	2095.881
174.052	17.922	2111.862	2095.930
175.067	17.992	2109.905	2094.599
176.081	17.824	2109.188	2091.567
177.096	17.885	2108.487	2091.363
178.110	17.995	2106.143	2090.143
179.125	18.100	2105.056	2090.103
180.140	18.113	2102.869	2087.842
181.154	18.001	2102.862	2086.212
182.169	18.309	2101.702	2088.595
183.183	19.134	2105.293	2102.040
184.198	22.539	2113.502	2151.853
185.213	23.219	2109.996	2156.359
186.227	19.914	2099.370	2104.906
187.242	18.452	2095.214	2082.640
188.256	18.199	2092.403	2076.519
189.271	17.964	2090.130	2071.148
190.286	17.803	2088.785	2067.610
191.300	18.006	2086.437	2067.505
192.315	17.946	2084.899	2065.001
193.329	18.280	2083.545	2067.474
194.344	18.506	2083.195	2069.623
195.359	18.496	2081.946	2068.012
196.373	18.336	2078.632	2062.531
197.388	17.992	2076.325	2055.838
198.402	17.878	2074.191	2052.097
199.417	17.844	2071.770	2049.049
200.432	17.910	2070.513	2048.359
201.446	17.913	2069.838	2047.476
202.461	17.826	2068.178	2044.547
203.475	17.763	2066.198	2041.584
204.490	17.710	2063.608	2038.147
205.504	17.752	2061.592	2036.415
206.519	17.838	2059.935	2035.561
207.534	17.699	2058.958	2032.689
208.548	17.741	2056.877	2030.897
209.563	17.926	2056.230	2032.225
210.577	17.952	2055.616	2031.682
211.592	18.072	2055.523	2032.787
212.607	19.501	2060.555	2054.628
213.621	23.144	2067.416	2104.871
214.636	22.635	2061.031	2092.045
215.650	19.237	2050.289	2040.511
216.665	18.278	2046.656	2025.257
217.680	18.135	2044.839	2021.515
218.694	17.940	2042.577	2016.723
219.709	17.757	2041.663	2013.410
220.723	17.904	2040.490	2013.752
221.738	18.022	2039.477	2013.908
222.753	18.147	2037.563	2013.253
223.767	18.209	2035.158	2011.367
224.782	18.088	2033.653	2008.213
225.796	17.902	2032.334	2004.474
226.811	18.023	2029.990	2003.354
227.826	18.066	2028.790	2002.428
228.840	18.027	2027.417	2000.380
229.855	18.008	2026.064	1998.579
230.869	17.907	2025.204	1996.310
231.884	17.989	2023.104	1994.957
232.899	17.913	2022.167	1992.903
233.913	18.106	2021.373	1994.147
234.928	18.084	2019.992	1992.293
235.942	18.117	2017.771	1990.248
236.957	18.094	2016.703	1988.689
237.972	18.148	2015.498	1987.894
238.986	18.119	2013.807	1985.645
240.001	18.095	2012.005	1983.357
241.015	18.168	2011.995	1983.952
242.030	19.043	2014.392	1996.294
243.045	21.982	2021.000	2036.934
244.059	22.552	2018.731	2041.045
245.074	19.656	2007.786	1996.154
246.088	18.538	2003.521	1978.715
247.103	18.531	2002.447	1977.329
248.117	18.535	2000.832	1975.541
249.132	18.276	1997.798	1969.314
250.147	18.212	1995.419	1966.000
251.161	18.119	1995.281	1964.553
252.176	18.381	1994.340	1966.412
253.190	18.573	1992.989	1967.065
254.205	18.862	1990.676	1967.874
255.220	18.706	1990.452	1965.622
256.234	18.485	1989.076	1961.478
257.249	18.249	1986.878	1956.368
258.263	18.004	1985.002	1951.471
259.278	17.972	1983.193	1949.096
260.293	17.911	1981.119	1946.119
261.307	17.806	1979.123	1942.730
262.322	17.744	1977.740	1940.432
263.336	17.745	1976.020	1938.521
264.351	17.517	1974.662	1934.349
265.366	17.552	1972.784	1932.683
266.380	17.610	1971.735	1932.088
267.395	17.688	1969.742	1930.790
268.409	17.662	1968.377	1928.924
269.424	17.732	1967.715	1928.838
270.439	17.892	1967.020	1929.748
271.453	18.989	1969.970	1944.881
272.468	22.365	1977.425	1990.453
273.482	22.488	1974.491	1988.661
274.497	19.441	1962.430	1941.856
275.512	17.884	1957.738	1919.396
276.526	17.811	1954.960	1915.617
277.541	17.828	1952.612	1913.286
278.555	17.668	1952.188	1910.834
279.570	17.704	1949.749	1908.629
280.585	17.669	1949.147	1907.415
281.599	17.892	1947.396	1907.976
282.614	18.103	1946.727	1909.468
283.628	18.477	1946.479	1913.187
284.643	18.502	1945.767	1912.540
285.657	18.701	1944.913	1913.697
286.672	18.695	1943.401	1911.914
287.687	18.773	1940.949	1910.153
288.701	18.699	1940.193	1908.351
289.716	18.727	1938.773	1907.034
290.730	18.705	1937.256	1905.068
291.745	18.740	1936.201	1904.191
292.760	18.668	1935.630	1902.606
293.774	18.627	1934.959	1901.264
294.789	18.625	1932.792	1898.876
295.803	18.478	1929.755	1894.038
296.818	18.094	1928.917	1888.726
297.833	18.328	1928.170	1890.360
298.847	18.211	1926.740	1887.434
299.862	18.284	1924.428	1885.753
300.876	19.082	1926.602	1896.504
301.891	22.403	1934.368	1940.780
302.906	23.088	1931.756	1945.514
303.920	19.606	1921.515	1896.601
304.935	18.514	1917.039	1879.924
305.949	18.324	1915.236	1875.841
306.964	18.268	1913.819	1873.617
307.979	18.328	1912.080	1872.341
308.993	18.564	1910.024	1872.697
310.008	18.860	1909.217	1874.925
311.022	18.824	1908.846	1873.945
312.037	18.611	1907.040	1869.620
313.052	18.507	1904.827	1866.086
314.066	18.724	1903.520	1866.949
315.081	18.727	1902.548	1865.809
316.095	18.575	1901.065	1862.476
317.110	18.447	1898.729	1858.569
318.125	18.049	1896.887	1852.209
319.139	18.158	1895.793	1852.106
320.154	18.329	1894.665	1852.633
321.168	18.098	1893.079	1848.357
322.183	18.005	1891.394	1845.482
323.197	17.915	1890.226	1843.135
324.212	17.890	1887.737	1840.227
325.227	17.741	1885.562	1836.272
326.241	17.762	1884.262	1835.014
327.256	17.852	1882.937	1834.476
328.270	17.645	1882.814	1831.900
329.285	17.825	1882.301	1833.122
330.300	18.872	1886.957	1848.768
331.314	22.574	1893.690	1895.230
332.329	22.637	1889.215	1891.205
333.343	19.268	1878.713	1844.292
334.358	17.933	1874.378	1825.474
335.373	17.736	1872.010	1820.841
336.387	17.514	1870.083	1816.367
337.402	17.613	1868.196	1815.368
338.416	17.715	1867.033	1815.121
339.431	17.804	1866.400	1815.234
340.446	17.834	1864.397	1813.387
341.460	18.122	1863.715	1815.588
342.475	18.296	1863.047	1816.572
343.489	18.389	1862.489	1816.807
344.504	18.326	1861.521	1814.965
345.519	18.398	1859.151	1813.205
346.533	18.508	1858.482	1813.510
347.548	18.616	1857.369	1813.350
348.562	19.181	1858.492	1820.233
349.577	20.519	1859.679	1835.390
350.592	19.923	1856.376	1825.599
351.606	19.020	1854.366	1813.837
352.621	18.962	1850.505	1809.227
353.635	18.530	1848.642	1802.630
354.650	18.493	1847.353	1800.769
355.665	18.228	1845.543	1795.986
356.679	18.216	1844.381	1794.514
357.694	18.249	1842.565	1792.877
358.708	18.244	1840.948	1791.042
359.723	19.535	1846.043	1809.395
360.738	22.931	1852.792	1851.636
361.752	22.524	1846.964	1841.308
362.767	19.393	1837.759	1799.132
363.781	18.259	1835.022	1784.362
364.796	18.220	1832.821	1781.606
365.810	18.171	1830.646	1778.765
366.825	18.206	1829.795	1778.092
367.840	18.441	1829.085	1779.644
368.854	18.539	1828.071	1779.466
369.869	18.318	1826.017	1774.947
370.883	18.473	1824.861	1775.225
371.898	18.809	1825.381	1779.015
372.913	19.224	1825.182	1782.930
373.927	19.229	1824.409	1782.007
374.942	18.601	1821.075	1772.019
375.956	18.404	1819.457	1768.196
376.971	18.451	1817.234	1766.308
377.986	18.321	1814.628	1762.220
379.000	18.160	1813.985	1759.718
380.015	18.237	1812.817	1759.172
381.029	18.020	1810.455	1754.426
382.044	17.787	1808.733	1750.151
383.059	17.839	1806.402	1748.215
384.073	17.810	1806.321	1747.629
385.088	17.822	1805.093	1746.360
386.102	17.778	1803.104	1743.775
387.117	17.804	1801.735	1742.504
388.132	17.818	1801.547	1742.259
389.146	19.029	1805.972	1758.782
390.161	22.555	1811.708	1800.434
391.175	22.358	1805.329	1791.865
392.190	19.178	1794.711	1748.706
393.205	18.127	1792.755	1735.868
394.219	18.013	1790.433	1732.254
395.234	17.916	1789.080	1729.748
396.248	17.944	1787.288	1728.095
397.263	17.934	1784.770	1725.355
398.278	17.874	1783.913	1723.712
399.292	17.892	1782.123	1721.955
400.307	17.954	1781.891	1722.152
401.321	18.123	1781.510	1723.292
402.336	18.225	1779.825	1722.482
403.350	18.238	1777.944	1720.587
404.365	18.296	1777.033	1720.086
405.380	18.568	1775.354	1721.006
406.394	18.773	1775.340	1722.847
407.409	18.869	1774.159	1722.461
408.423	18.971	1773.609	1722.757
409.438	18.893	1771.933	1720.135
410.453	18.670	1770.481	1716.281
411.467	18.769	1769.688	1716.296
412.482	18.660	1766.836	1712.228
413.496	18.274	1764.647	1706.035
414.511	18.137	1763.262	1703.126
415.526	18.176	1761.535	1701.642
416.540	18.020	1759.290	1697.714
417.555	17.925	1759.763	1697.017
418.569	18.171	1759.934	1699.439
419.584	18.243	1759.743	1699.769
420.599	18.298	1759.063	1699.453
421.613	18.250	1757.569	1697.331
422.628	18.165	1755.721	1694.494
423.642	18.098	1753.599	1691.580
424.657	18.041	1752.282	1689.538
425.672	18.234	1750.969	1689.985
426.686	18.267	1750.168	1689.343
427.701	18.165	1749.422	1687.410
428.715	18.505	1747.663	1688.873
429.730	18.679	1746.252	1689.032
430.745	18.508	1745.237	1686.154
431.759	18.502	1744.674	1685.348
432.774	18.957	1744.963	1689.926
433.788	19.167	1745.010	1691.840
434.803	19.648	1744.494	1695.886
435.818	19.665	1743.328	1694.716
436.832	19.337	1743.262	1691.211
437.847	18.554	1736.548	1676.804
438.861	10.639	1714.501	1578.228
439.876	1.859	1698.893	1478.354
440.890	0.265	1695.472	1459.678
441.905	0.236	1693.683	1457.679
442.920	0.179	1691.894	1455.410
443.934	0.177	1690.505	1454.023
444.949	0.149	1688.725	1452.046
445.963	0.180	1688.516	1451.995
446.978	0.161	1688.048	1451.238
447.993	0.160	1686.329	1449.575
449.007	0.112	1683.962	1446.906
450.022	0.186	1681.980	1445.736
451.036	0.139	1681.280	1444.509
452.051	1.047	1685.782	1456.983
453.066	9.060	1704.139	1550.737
454.080	17.782	1718.296	1648.512
455.095	20.107	1722.765	1675.211
456.109	21.481	1724.175	1689.732
457.124	22.035	1723.499	1694.243
458.139	21.908	1723.207	1692.524
459.153	22.204	1721.613	1693.619
460.168	22.117	1720.579	1691.559
461.182	21.876	1718.667	1687.142
462.197	21.741	1716.609	1683.619
463.212	21.679	1713.824	1680.086
464.226	21.763	1713.460	1680.340
465.241	22.025	1713.410	1682.614
466.255	22.363	1712.002	1684.286
467.270	22.295	1711.174	1682.615
468.285	21.899	1708.610	1676.093
469.299	21.843	1707.172	1673.945
470.314	22.175	1705.460	1675.240
471.328	21.968	1704.561	1672.175
472.343	21.948	1704.591	1671.818
473.358	22.158	1702.943	1672.009
474.372	22.230	1701.214	1670.801
475.387	21.925	1699.003	1665.513
476.401	21.811	1697.910	1663.158
477.416	21.654	1697.045	1660.618
478.430	21.945	1696.451	1662.610
479.445	21.805	1694.376	1659.040
480.460	21.441	1693.158	1654.193
481.474	21.845	1692.269	1656.959
482.489	22.269	1691.769	1660.304
483.503	22.487	1690.718	1661.138
484.518	22.559	1689.025	1659.957
485.533	22.445	1687.626	1657.304
486.547	22.357	1686.966	1655.626
487.562	22.816	1687.093	1659.887
488.576	22.665	1685.335	1656.534
489.591	22.760	1683.268	1655.205
490.606	22.578	1680.558	1650.630
491.620	22.498	1679.876	1649.005
492.635	22.742	1679.148	1650.393
493.649	23.016	1678.423	1652.053
494.664	22.377	1675.105	1642.595
495.679	21.750	1672.645	1634.116
496.693	21.815	1672.422	1634.309
497.708	22.198	1671.885	1637.180
498.722	22.648	1671.839	1641.143
499.737	22.761	1670.820	1641.007
500.752	22.458	1668.331	1635.538
501.766	22.306	1665.827	1631.464
502.781	22.486	1664.623	1631.770
503.795	22.501	1663.068	1630.194
504.810	22.553	1662.974	1630.383
505.825	22.744	1662.811	1631.811
506.839	22.653	1661.597	1629.578
507.854	22.680	1659.879	1627.945
508.868	22.777	1658.458	1627.260
509.883	22.702	1657.269	1625.203
510.898	22.986	1656.286	1626.670
511.912	22.779	1654.299	1622.613
512.927	22.523	1652.311	1618.102
513.941	22.455	1651.252	1616.249
514.956	22.287	1650.124	1613.401
515.971	22.349	1648.487	1612.175
516.985	22.473	1647.961	1612.610
518.000	22.581	1647.396	1612.862
519.014	22.814	1647.098	1614.517
520.029	23.113	1645.487	1615.491
521.043	22.803	1643.658	1610.660
522.058	22.670	1642.837	1608.443
523.073	23.002	1642.656	1611.117
524.087	23.391	1641.669	1613.511
525.102	23.278	1639.245	1609.904
526.116	22.719	1636.902	1602.309
527.131	22.579	1636.774	1600.711
528.146	23.160	1637.010	1606.059
529.160	23.408	1635.551	1606.695
530.175	23.387	1634.752	1605.524
531.189	23.497	1633.653	1605.252
532.204	23.454	1632.325	1603.369
533.219	22.917	1630.525	1596.532
534.233	22.537	1628.926	1591.326
535.248	22.866	1628.608	1593.807
536.262	23.490	1628.727	1599.395
537.277	23.527	1626.914	1597.755
538.292	23.237	1624.488	1592.554
539.306	22.930	1623.115	1588.251
540.321	23.126	1620.899	1587.655
541.335	22.987	1619.944	1585.279
542.350	23.216	1618.909	1586.139
543.365	23.533	1617.657	1587.572
544.379	23.502	1617.190	1586.646
545.394	23.642	1615.580	1586.137
546.408	23.110	1613.135	1578.773
547.423	22.563	1611.036	1571.627
548.438	22.485	1610.116	1569.843
549.452	23.052	1609.164	1573.805
550.467	23.062	1608.850	1573.394
551.481	23.263	1607.452	1573.638
552.496	23.555	1606.995	1575.606
553.511	23.850	1607.417	1578.468
554.525	23.825	1606.226	1576.884
555.540	23.903	1605.177	1576.366
556.554	23.869	1604.273	1574.984
557.569	23.779	1601.656	1571.425
558.583	23.527	1600.504	1567.871
559.598	23.466	1599.088	1565.749
560.613	23.470	1598.543	1565.064
561.627	23.623	1596.838	1564.564
562.642	23.810	1596.273	1565.479
563.656	24.140	1595.460	1567.419
564.671	24.084	1594.607	1565.897
565.686	23.852	1592.700	1561.785
566.700	23.749	1590.558	1558.587
567.715	23.452	1589.774	1555.017
568.729	23.317	1586.657	1550.597
569.744	23.046	1585.110	1546.513
570.759	23.205	1584.043	1546.683
571.773	23.487	1583.817	1548.759
572.788	23.577	1583.203	1548.759
573.802	23.639	1582.194	1548.126
574.817	23.763	1580.614	1547.483
575.832	24.015	1580.611	1549.506
576.846	24.023	1578.659	1547.476
577.861	23.879	1576.851	1544.262
578.875	24.056	1576.255	1545.035
579.890	24.324	1576.433	1547.362
580.905	24.238	1575.889	1545.896
581.919	24.328	1575.008	1545.627
582.934	24.588	1574.188	1546.903
583.948	24.557	1572.889	1545.171
584.963	24.353	1570.218	1540.590
585.978	23.898	1568.338	1534.613
586.992	24.047	1568.906	1536.285
588.007	24.361	1567.781	1537.719
589.021	23.682	1565.096	1529.022
590.036	23.013	1563.425	1521.426
591.051	23.529	1563.543	1525.817
592.065	24.059	1562.162	1528.868
593.080	24.351	1561.006	1530.072
594.094	24.393	1559.153	1528.429
595.109	23.738	1556.555	1520.072
596.123	23.357	1555.365	1515.447
597.138	23.777	1555.215	1518.733
598.153	24.052	1554.322	1520.037
599.167	24.086	1552.462	1518.332
600.182	24.301	1551.199	1518.749
601.196	24.234	1551.199	1517.994
602.211	24.299	1549.872	1517.070
603.226	24.435	1549.240	1517.439
604.240	24.737	1547.358	1517.987
605.255	24.733	1547.555	1517.966
606.269	24.615	1546.891	1516.127
607.284	24.520	1544.993	1513.270
608.299	24.632	1543.117	1512.213
609.313	24.365	1541.443	1508.118
610.328	24.358	1540.877	1507.321
611.342	24.684	1539.112	1508.179
612.357	24.731	1538.758	1508.051
613.372	24.900	1537.654	1508.222
614.386	24.526	1536.962	1504.201
615.401	24.714	1535.508	1504.185
616.415	24.768	1535.228	1504.186
617.430	24.795	1534.579	1503.600
618.445	24.975	1533.220	1503.603
619.459	24.783	1531.634	1500.253
620.474	24.231	1529.882	1493.704
621.488	23.762	1527.569	1487.325
622.503	23.377	1526.575	1482.943
623.518	24.163	1526.616	1489.410
624.532	24.650	1526.379	1493.097
625.547	24.905	1524.958	1493.666
626.561	25.240	1524.499	1495.842
627.576	25.205	1524.007	1494.887
628.591	24.612	1521.566	1487.357
629.605	24.226	1519.281	1481.718
630.620	24.178	1517.080	1478.993
631.634	23.701	1516.259	1474.039
632.649	23.849	1515.549	1474.402
633.663	24.307	1515.568	1478.061
634.678	24.868	1515.331	1482.328
635.693	25.188	1514.064	1483.570
636.707	25.267	1512.477	1482.496
637.722	25.566	1511.776	1484.106
638.736	25.461	1510.792	1482.094
639.751	25.411	1509.609	1480.342
640.766	25.258	1508.401	1477.715
641.780	25.314	1506.508	1476.145
642.795	25.290	1505.983	1475.262
643.809	25.266	1505.073	1473.988
644.824	25.315	1504.337	1473.502
645.839	25.040	1503.639	1470.375
646.853	25.231	1501.878	1470.044
647.868	25.225	1500.146	1468.121
648.882	25.056	1499.056	1465.494
649.897	25.136	1497.167	1464.127
650.912	25.125	1495.963	1462.686
651.926	25.039	1494.660	1460.529
652.941	24.817	1492.482	1456.417
653.955	24.341	1490.354	1450.271
654.970	23.827	1487.875	1443.495
655.985	23.682	1487.074	1441.359
656.999	23.746	1486.559	1441.207
658.014	24.173	1485.545	1443.531
659.028	24.677	1485.349	1447.273
660.043	24.864	1485.730	1448.987
661.058	25.071	1484.525	1449.322
662.072	25.152	1483.522	1448.827
663.087	25.062	1482.021	1446.460
664.101	24.910	1481.412	1444.461
665.116	25.106	1481.164	1445.635
666.131	25.363	1479.331	1445.756
667.145	25.389	1478.493	1444.974
668.160	25.424	1477.630	1444.239
669.174	25.717	1476.468	1445.292
670.189	25.599	1475.858	1443.571
671.204	25.500	1473.810	1440.601
672.218	25.354	1472.755	1438.223
673.233	25.656	1472.195	1439.929
674.247	25.898	1471.414	1440.936
675.262	25.892	1471.013	1440.330
676.276	25.842	1469.922	1438.687
677.291	25.704	1468.152	1435.672
678.306	25.408	1466.387	1431.401
679.320	25.227	1464.974	1428.405
680.335	25.536	1465.451	1431.170
681.349	25.622	1465.363	1431.605
682.364	25.717	1463.288	1430.167
683.379	25.749	1461.685	1428.680
684.393	25.618	1459.788	1425.609
685.408	25.745	1459.556	1426.229
686.422	25.525	1458.266	1423.045
687.437	25.695	1458.344	1424.307
688.452	26.095	1457.536	1426.522
689.466	25.825	1455.737	1422.445
690.481	25.660	1453.933	1419.205
691.495	25.296	1452.411	1414.670
692.510	24.659	1449.854	1406.974
693.525	24.220	1447.366	1400.920
694.539	24.478	1448.354	1403.748
695.554	25.364	1448.648	1410.863
696.568	25.717	1448.396	1413.238
697.583	25.747	1448.403	1413.313
698.598	25.928	1447.166	1413.363
699.612	26.087	1446.469	1413.766
700.627	26.086	1444.471	1411.630
701.641	26.021	1442.475	1409.006
702.656	25.960	1441.878	1407.774
703.671	26.147	1442.426	1409.606
704.685	26.291	1441.142	1409.311
705.700	26.085	1439.565	1405.988
706.714	25.839	1437.556	1401.936
707.729	25.682	1435.761	1398.791
708.744	25.657	1434.456	1397.155
709.758	25.437	1432.634	1393.499
710.773	25.061	1431.072	1388.887
711.787	24.639	1429.859	1384.259
712.802	25.128	1428.734	1386.805
713.816	25.555	1428.283	1389.519
714.831	25.616	1428.701	1390.235
715.846	25.931	1427.697	1391.531
716.860	26.006	1426.492	1390.777
717.875	26.088	1424.758	1389.554
718.889	25.927	1423.572	1386.982
719.904	26.006	1422.839	1386.717
720.919	26.120	1422.298	1386.904
721.933	26.289	1421.586	1387.346
722.948	26.125	1420.909	1385.255
723.962	26.275	1419.474	1384.844
724.977	26.442	1418.272	1384.791
725.992	26.371	1417.669	1383.492
727.006	26.265	1416.105	1380.981
728.021	26.418	1414.152	1380.089
729.035	26.682	1413.628	1381.440
730.050	26.420	1413.112	1378.761
731.065	26.311	1411.474	1376.162
732.079	26.560	1410.893	1377.338
733.094	26.386	1409.539	1374.518
734.108	26.209	1407.684	1371.197
735.123	26.245	1406.030	1369.697
736.138	26.240	1404.765	1368.262
737.152	26.252	1404.523	1367.954
738.167	26.381	1404.111	1368.367
739.181	26.672	1403.006	1369.336
740.196	26.591	1402.741	1368.301
741.211	26.523	1401.910	1366.810
742.225	26.523	1399.895	1364.686
743.240	26.483	1399.073	1363.411
744.254	26.501	1397.498	1361.851
745.269	26.354	1396.773	1359.868
746.284	26.338	1396.010	1358.844
747.298	26.123	1394.649	1355.736
748.313	25.690	1392.631	1350.344
749.327	25.195	1391.243	1345.107
750.342	24.766	1389.134	1339.679
751.356	24.282	1387.524	1334.328
752.371	24.667	1386.961	1336.516
753.386	25.602	1387.718	1344.115
754.400	26.310	1387.380	1348.939
755.415	26.598	1386.793	1350.369
756.429	26.642	1386.102	1349.864
757.444	26.453	1384.486	1346.710
758.459	26.773	1383.500	1347.989
759.473	26.804	1382.442	1347.021
760.488	26.677	1381.611	1345.109
761.502	26.631	1380.434	1343.455
762.517	26.526	1378.529	1340.663
763.532	26.386	1376.760	1337.738
764.546	26.217	1375.079	1334.691
765.561	25.381	1373.729	1327.013
766.575	24.554	1371.800	1318.859
767.590	24.625	1370.922	1318.378
768.605	25.293	1370.745	1323.000
769.619	25.900	1370.598	1327.201
770.634	26.201	1369.660	1328.354
771.648	26.534	1368.756	1329.782
772.663	26.530	1368.895	1329.724
773.678	26.673	1368.399	1330.141
774.692	26.791	1367.773	1330.243
775.707	26.827	1367.721	1330.302
776.721	26.814	1366.099	1328.466
777.736	26.760	1364.824	1326.668
778.751	26.796	1363.532	1325.517
779.765	26.881	1362.720	1325.199
780.780	26.790	1362.208	1323.869
781.794	26.771	1360.850	1322.252
782.809	26.575	1359.767	1319.605
783.824	26.516	1357.978	1317.279
784.838	26.034	1355.486	1311.184
785.853	25.104	1354.326	1303.116
786.867	25.359	1354.438	1304.930
787.882	25.794	1354.149	1307.675
788.897	26.217	1353.216	1309.695
789.911	26.246	1352.879	1309.427
790.926	26.419	1352.041	1309.716
791.940	26.549	1350.678	1309.187
792.955	26.747	1348.947	1308.785
793.969	26.604	1348.668	1307.322
794.984	26.884	1347.235	1307.809
795.999	26.841	1346.580	1306.700
797.013	27.105	1344.964	1306.888
798.028	26.955	1343.487	1304.216
799.042	26.797	1343.931	1303.345
800.057	27.033	1342.279	1303.292
801.072	27.068	1340.550	1301.708
802.086	26.979	1339.418	1299.813
803.101	27.018	1338.744	1299.287
804.115	26.885	1338.021	1297.472
805.130	27.076	1336.846	1297.547
806.145	27.094	1335.464	1296.178
807.159	26.970	1333.726	1293.449
808.174	26.648	1332.833	1290.121
809.188	26.695	1330.919	1288.456
810.203	26.505	1329.444	1285.516
811.218	26.054	1327.629	1280.390
812.232	25.521	1325.375	1274.264
813.247	25.149	1324.758	1270.871
814.261	25.732	1325.339	1275.428
815.276	26.292	1325.026	1278.958
816.291	26.802	1324.011	1281.452
817.305	26.803	1322.903	1280.230
818.320	26.843	1322.143	1279.626
819.334	26.928	1321.282	1279.242
820.349	26.910	1320.022	1277.743
821.364	26.960	1318.919	1276.876
822.378	27.077	1317.613	1276.286
823.393	27.139	1315.706	1274.719
824.407	26.976	1314.639	1272.391
825.422	26.965	1314.087	1271.627
826.437	26.846	1312.989	1269.572
827.451	26.667	1310.591	1265.845
828.466	25.795	1308.467	1257.520
829.480	25.714	1306.299	1254.722
830.495	25.949	1305.479	1255.432
831.509	26.384	1305.153	1258.007
832.524	26.710	1304.911	1259.900
833.539	27.003	1304.550	1261.449
834.553	27.133	1303.056	1260.766
835.568	27.093	1302.278	1259.578
836.582	27.175	1301.136	1258.895
837.597	27.182	1299.361	1257.078
838.612	26.906	1298.196	1253.879
839.626	26.800	1296.651	1251.504
840.641	26.478	1295.477	1247.988
841.655	26.176	1294.105	1244.423
842.670	25.439	1291.796	1236.961
843.685	24.638	1290.469	1229.999
844.699	25.656	1290.295	1236.728
845.714	26.342	1289.751	1240.793
846.728	26.460	1289.682	1241.390
847.743	26.586	1288.993	1241.443
848.758	26.839	1288.441	1242.508
849.772	26.955	1287.778	1242.517
850.787	26.932	1285.870	1240.372
851.801	27.046	1284.694	1239.873
852.816	27.107	1283.410	1238.901
853.831	27.041	1281.370	1236.331
854.845	26.880	1279.173	1232.966
855.860	26.742	1277.991	1230.733
856.874	26.558	1276.578	1227.976
857.889	26.271	1275.081	1224.431
858.904	25.706	1273.312	1218.740
859.918	25.355	1270.897	1213.902
860.933	25.137	1269.315	1210.767
861.947	25.608	1269.664	1214.152
862.962	26.167	1268.500	1216.675
863.977	26.278	1268.064	1216.865
864.991	26.436	1268.147	1217.866
866.006	26.717	1267.862	1219.353
867.020	26.987	1266.872	1220.076
868.035	26.990	1265.944	1219.060
869.049	27.054	1265.301	1218.722
870.064	27.061	1264.300	1217.662
871.079	27.150	1263.054	1216.915
872.093	26.815	1262.438	1213.924
873.108	26.838	1260.969	1212.519
874.122	26.602	1259.224	1209.112
875.137	26.177	1257.470	1204.431
876.152	25.928	1256.446	1201.639
877.166	26.006	1255.394	1201.015
878.181	26.205	1254.917	1201.745
879.195	26.518	1255.154	1203.921
880.210	26.916	1254.035	1205.363
881.225	26.938	1253.330	1204.682
882.239	26.920	1252.167	1203.301
883.254	27.065	1251.031	1203.035
884.268	27.094	1250.828	1202.888
885.283	27.078	1248.863	1200.747
886.298	27.097	1247.603	1199.519
887.312	27.103	1246.828	1198.669
888.327	26.949	1246.110	1196.812
889.341	27.024	1244.697	1195.810
890.356	26.979	1243.466	1194.187
891.371	26.888	1243.122	1193.114
892.385	26.697	1242.555	1191.163
893.400	26.576	1241.147	1188.871
894.414	26.517	1239.211	1186.487
895.429	26.298	1236.864	1182.654
896.444	25.386	1234.221	1173.998
897.458	24.633	1233.217	1167.962
898.473	25.264	1233.473	1172.208
899.487	25.866	1233.835	1176.358
900.502	26.339	1233.022	1178.548
901.517	26.612	1232.202	1179.412
902.531	26.800	1231.278	1179.610
903.546	26.940	1230.076	1179.233
904.560	26.963	1229.399	1178.596
905.575	26.900	1228.810	1177.478
906.589	26.902	1227.879	1176.457
907.604	26.856	1226.892	1175.075
