DTS Sentinel unit serial number:	SN409020Multiplexer serial number:	ORYXHardware model number:	OX4-SRSoftware version number:	ORYX F/W v3.00 Oryx Data Collector v3.7.2.0data status	okinstallation	HaddamTimeLapsedifferential loss correction	single-endedforward channel	channel 3reverse channel	N/Adate	2011/06/21time	22:16:17forward acquisition time	30.00reverse acquisition time	0.00gamma	498.7831k internal	0.1758k external	0.1758temperature offset calibration	1.0074default loss term (dB/km)	0.3790temperature slope calibration	1.3530multiplexer offset coefficient	1.0000multiplexer slope coefficient	1.0000fibre end	0.00T internal ref (°C)	24.50T ext. ref 1 (°C)	18.88T ext. ref 2 (°C)	0.03length (m)	temperature (°C)	Stokes	anti-Stokes-747.200	24.177	0.107	0.117
-746.185	-200.000	-0.005	0.656
-745.171	-142.858	-0.288	0.037
-744.156	120.300	0.175	0.288
-743.142	190.132	0.238	-0.474
-742.127	412.745	-0.240	0.679
-741.112	800.000	-0.054	0.247
-740.098	-7.420	0.143	0.128
-739.083	45.034	0.169	0.206
-738.069	-51.135	0.426	0.264
-737.054	-14.156	0.291	-0.248
-736.039	494.679	-0.066	-0.202
-735.025	-200.000	-0.012	-0.333
-734.010	-117.888	0.147	-0.035
-732.996	-156.274	-0.194	-0.016
-731.981	-17.699	0.106	-0.088
-730.966	-200.000	0.055	-0.430
-729.952	55.069	0.087	0.111
-728.937	-130.728	-0.638	0.112
-727.923	800.000	0.042	-0.190
-726.908	-24.545	-0.486	-0.382
-725.894	800.000	0.149	-0.559
-724.879	-113.610	0.126	0.032
-723.864	800.000	0.053	-0.249
-722.850	-200.000	0.029	-0.281
-721.835	-117.400	0.338	-0.080
-720.821	-61.032	0.135	-0.075
-719.806	-15.720	0.279	0.235
-718.791	189.974	0.041	-0.081
-717.777	-86.607	0.598	0.241
-716.762	-121.764	0.125	0.027
-715.748	-38.381	0.358	0.250
-714.733	800.000	-0.074	-0.338
-713.718	23.326	0.251	-0.272
-712.704	-200.000	0.032	-0.208
-711.689	-60.247	-0.096	0.054
-710.675	-69.832	-0.164	-0.082
-709.660	-146.230	-0.290	-0.033
-708.645	19.911	-0.449	-0.478
-707.631	197.557	0.109	-0.221
-706.616	-113.619	0.206	-0.053
-705.602	-107.409	0.540	-0.156
-704.587	-200.000	-0.030	0.347
-703.572	-32.216	0.232	0.171
-702.558	60.200	0.155	-0.202
-701.543	76.196	-0.231	-0.324
-700.529	9.652	0.228	-0.228
-699.514	162.350	-0.174	-0.322
-698.499	722.854	-0.050	-0.176
-697.485	65.663	0.084	-0.113
-696.470	-27.653	-0.096	-0.073
-695.456	-126.766	0.157	-0.030
-694.441	752.614	0.032	0.114
-693.426	-96.044	0.449	-0.157
-692.412	13.175	0.159	0.163
-691.397	-200.000	-0.040	-0.335
-690.383	133.654	-0.136	-0.232
-689.368	112.029	-0.048	-0.077
-688.354	-141.327	-0.494	-0.065
-687.339	57.408	-0.177	-0.228
-686.324	153.573	0.186	-0.337
-685.310	-200.000	-0.005	-0.172
-684.295	-68.591	-0.155	-0.079
-683.281	-200.000	-0.013	0.145
-682.266	-200.000	-0.012	0.146
-681.251	800.000	-0.114	-0.433
-680.237	47.804	-0.126	-0.155
-679.222	-46.932	0.351	-0.226
-678.208	800.000	-0.109	-0.499
-677.193	-73.961	0.220	0.105
-676.178	367.773	-0.117	0.313
-675.164	-129.091	-0.274	0.050
-674.149	-200.000	-0.026	0.243
-673.135	-158.448	-0.419	-0.032
-672.120	-200.000	-0.006	-0.058
-671.105	-34.102	0.196	-0.142
-670.091	-86.942	-0.169	0.068
-669.076	-200.000	-0.004	-0.445
-668.062	-89.840	0.493	0.189
-667.047	800.000	0.092	0.524
-666.032	-37.219	0.197	-0.138
-665.018	171.400	-0.107	0.203
-664.003	-124.378	0.829	0.169
-662.989	-23.384	-0.135	0.107
-661.974	-132.224	0.029	-0.005
-660.959	800.000	0.115	-0.522
-659.945	-111.055	0.276	0.074
-658.930	-19.093	0.246	-0.201
-657.916	-21.327	-0.411	-0.330
-656.901	196.747	0.121	-0.244
-655.886	-200.000	-0.007	-0.247
-654.872	64.152	0.205	-0.272
-653.857	800.000	0.021	0.091
-652.843	351.154	-0.121	0.316
-651.828	90.042	-0.234	-0.345
-650.814	48.428	-0.146	-0.180
-649.799	-200.000	0.008	-0.114
-648.784	116.657	0.048	0.077
-647.770	-83.617	0.089	-0.037
-646.755	186.597	0.097	0.191
-645.741	-75.066	0.131	0.061
-644.726	71.832	-0.188	0.258
-643.711	99.966	-0.388	-0.593
-642.697	-155.549	0.103	-0.009
-641.682	-25.762	-0.253	-0.196
-640.668	54.460	-0.514	-0.652
-639.653	293.865	-0.104	-0.251
-638.638	233.156	0.142	-0.310
-637.624	800.000	0.042	-0.233
-636.609	-49.881	0.321	0.200
-635.595	-200.000	-0.061	-0.395
-634.580	-77.790	-0.171	-0.078
-633.565	-33.826	-0.200	0.145
-632.551	-100.809	-0.192	-0.062
-631.536	19.693	0.130	0.138
-630.522	616.906	0.071	-0.238
-629.507	-21.042	-0.249	0.201
-628.492	-99.662	0.440	-0.145
-627.478	127.843	-0.154	-0.258
-626.463	-139.533	0.636	0.089
-625.449	800.000	0.095	-0.531
-624.434	96.153	-0.159	-0.239
-623.419	24.794	0.223	0.244
-622.405	-200.000	0.023	0.365
-621.390	800.000	-0.089	-0.327
-620.376	-26.691	-0.463	-0.356
-619.361	-49.334	-0.218	-0.137
-618.346	-113.202	0.375	-0.096
-617.332	116.679	-0.168	0.272
-616.317	800.000	-0.085	-0.427
-615.303	-8.277	0.193	0.171
-614.288	800.000	-0.065	0.285
-613.273	601.414	-0.082	0.270
-612.259	-96.521	0.210	-0.072
-611.244	-112.567	0.286	0.075
-610.230	12.242	0.208	0.210
-609.215	71.033	-0.140	-0.191
-608.201	800.000	0.057	-0.209
-607.186	-85.616	-0.266	-0.108
-606.171	-158.351	-0.427	0.032
-605.157	3.645	0.087	-0.083
-604.142	-200.000	-0.012	0.326
-603.128	-5.449	-0.064	-0.058
-602.113	372.359	0.153	-0.412
-601.098	-26.059	-0.094	-0.073
-600.084	800.000	-0.056	0.287
-599.069	189.572	-0.191	0.379
-598.055	-109.743	0.180	0.049
-597.040	339.706	-0.075	0.194
-596.025	92.657	-0.227	0.337
-595.011	-147.857	0.326	-0.035
-593.996	800.000	-0.049	0.234
-592.982	98.846	-0.340	-0.517
-591.967	-14.663	-0.164	0.138
-590.952	800.000	0.099	-0.378
-589.938	-164.346	0.287	0.017
-588.923	-58.151	0.199	0.114
-587.909	-200.000	-0.230	0.001
-586.894	576.450	0.248	0.802
-585.879	-200.000	0.006	-0.114
-584.865	-99.370	0.221	0.073
-583.850	14.089	-0.203	-0.208
-582.836	54.124	-0.275	0.348
-581.821	-129.311	0.364	-0.066
-580.806	-105.205	-0.151	0.045
-579.792	-45.382	-0.236	-0.153
-578.777	-74.207	0.351	0.166
-577.763	78.422	0.191	0.268
-576.748	-19.702	-0.322	0.261
-575.733	-23.341	0.363	-0.286
-574.719	31.636	-0.132	-0.149
-573.704	-79.135	0.104	0.046
-572.690	34.445	-0.368	-0.423
-571.675	-154.373	0.128	-0.011
-570.661	800.000	-0.097	-0.553
-569.646	-200.000	-0.048	0.458
-568.631	-184.750	-0.333	-0.007
-567.617	417.263	0.027	-0.076
-566.602	800.000	-0.081	-0.319
-565.588	136.349	0.203	-0.349
-564.573	528.125	0.109	-0.340
-563.558	-155.794	0.318	-0.026
-562.544	141.706	0.330	0.576
-561.529	-169.762	0.274	-0.013
-560.515	52.001	-0.072	-0.091
-559.500	-200.000	-0.049	0.338
-558.485	165.840	-0.283	0.528
-557.471	604.898	-0.075	-0.246
-556.456	-161.507	0.096	-0.006
-555.442	52.782	-0.274	0.344
-554.427	-129.409	0.363	-0.065
-553.412	-39.061	0.164	0.113
-552.398	800.000	0.122	-0.490
-551.383	-15.786	-0.134	-0.112
-550.369	-124.070	-0.178	0.036
-549.354	-17.713	0.160	-0.132
-548.339	-200.000	-0.014	-0.146
-547.325	-41.074	-0.744	0.503
-546.310	49.326	-0.221	0.273
-545.296	62.022	-0.333	-0.436
-544.281	-96.954	-0.228	-0.078
-543.266	-200.000	0.009	0.355
-542.252	-17.069	0.227	-0.188
-541.237	66.307	-0.117	-0.156
-540.223	-200.000	0.012	-0.197
-539.208	17.160	0.241	0.251
-538.193	-200.000	-0.034	0.291
-537.179	-53.420	0.193	-0.116
-536.164	-200.000	-0.025	0.211
-535.150	-139.594	-0.368	-0.051
-534.135	180.229	-0.167	-0.322
-533.121	-121.488	0.413	-0.089
-532.106	-91.880	0.505	-0.187
-531.091	137.549	-0.071	-0.122
-530.077	47.771	0.100	0.123
-529.062	-102.987	0.510	-0.158
-528.048	-93.138	-0.228	-0.083
-527.033	-109.450	0.458	0.126
-526.018	216.096	0.086	-0.179
-525.004	-48.793	-0.434	0.273
-523.989	-20.213	-0.336	0.271
-522.975	-68.909	-0.319	0.161
-521.960	519.200	-0.196	0.604
-520.945	-200.000	0.063	0.497
-519.931	-200.000	0.011	0.266
-518.916	-78.149	-0.105	0.047
-517.902	-200.000	0.038	-0.392
-516.887	800.000	-0.047	-0.242
-515.872	800.000	-0.083	0.472
-514.858	-113.870	0.133	-0.034
-513.843	-3.638	0.565	0.515
-512.829	-140.833	0.139	0.019
-511.814	127.787	0.221	-0.369
-510.799	-116.057	-0.195	0.047
-509.785	-166.911	0.318	0.017
-508.770	-139.283	0.140	-0.020
-507.756	200.762	-0.275	0.556
-506.741	-200.000	0.004	0.720
-505.726	-65.762	0.194	0.101
-504.712	-123.337	-0.125	-0.026
-503.697	-55.351	0.319	0.187
-502.683	-181.284	0.165	0.004
-501.668	-200.000	0.014	0.102
-500.653	594.637	-0.080	0.260
-499.639	-157.278	0.441	0.034
-498.624	-122.020	-0.608	0.130
-497.610	-116.004	-0.246	0.060
-496.595	-69.863	0.279	0.139
-495.581	800.000	-0.028	0.104
-494.566	-160.539	0.085	-0.006
-493.551	252.159	-0.166	0.371
-492.537	-48.128	0.395	-0.249
-491.522	783.245	0.148	0.534
-490.508	65.976	-0.153	-0.204
-489.493	800.000	0.066	-0.376
-488.478	-97.092	-0.588	-0.200
-487.464	-200.000	-0.001	0.288
-486.449	-200.000	0.010	0.442
-485.435	-200.000	-0.007	0.078
-484.420	55.145	0.134	0.170
-483.405	72.543	-0.290	0.396
-482.391	134.523	0.269	-0.458
-481.376	-122.255	0.113	-0.024
-480.362	-36.843	-0.219	-0.154
-479.347	300.322	0.176	-0.427
-478.332	-200.000	0.061	-0.520
-477.318	-74.460	-0.176	0.083
-476.303	-200.000	-0.009	-0.166
-475.289	-141.572	0.205	0.027
-474.274	-200.000	0.013	-0.513
-473.259	55.824	-0.219	0.278
-472.245	767.270	-0.083	0.299
-471.230	-132.200	-0.341	-0.057
-470.216	469.930	-0.150	-0.443
-469.201	-145.182	0.425	-0.050
-468.186	-82.841	-0.182	-0.077
-467.172	38.232	0.229	-0.267
-466.157	-157.769	0.214	-0.016
-465.143	61.193	-0.304	-0.395
-464.128	-15.131	0.321	-0.269
-463.113	-130.133	0.796	-0.141
-462.099	-48.920	-0.154	0.097
-461.084	-85.020	-0.124	0.051
-460.070	619.276	-0.068	0.225
-459.055	183.733	-0.189	0.367
-458.040	-88.628	0.153	-0.059
-457.026	-13.127	-0.509	-0.432
-456.011	-156.189	0.190	-0.015
-454.997	-136.007	0.104	0.016
-453.982	151.914	0.227	0.406
-452.968	27.393	0.344	-0.378
-451.953	-94.471	-0.091	-0.032
-450.938	-22.746	-0.171	0.135
-449.924	-200.000	0.012	-0.089
-448.909	-75.835	0.294	-0.135
-447.895	-56.856	0.339	0.195
-446.880	186.245	-0.369	0.719
-445.865	64.242	0.151	-0.199
-444.851	800.000	-0.096	0.418
-443.836	12.700	0.257	0.259
-442.822	94.607	-0.056	0.083
-441.807	-200.000	-0.074	0.465
-440.792	188.995	-0.266	0.523
-439.778	-112.284	-0.264	0.069
-438.763	-200.000	0.497	0.002
-437.749	-69.885	-0.302	-0.150
-436.734	382.557	0.045	-0.121
-435.719	-130.791	-0.210	0.036
-434.705	147.707	-0.091	-0.160
-433.690	-183.148	0.308	0.007
-432.676	-200.000	0.155	-0.001
-431.661	-188.772	0.280	-0.004
-430.646	292.790	0.090	-0.214
-429.632	800.000	-0.121	0.547
-428.617	800.000	0.055	0.275
-427.603	800.000	-0.101	0.375
-426.588	-50.125	-0.229	0.141
-425.573	71.388	-0.378	-0.513
-424.559	-173.213	-0.292	-0.011
-423.544	-177.306	-0.683	-0.022
-422.530	-191.713	-0.399	-0.005
-421.515	162.604	0.095	0.175
-420.500	-39.621	-0.560	0.382
-419.486	306.784	0.154	-0.375
-418.471	572.409	0.161	-0.514
-417.457	-22.172	0.045	-0.036
-416.442	-139.593	-0.484	0.067
-415.428	800.000	-0.065	0.245
-414.413	-97.101	0.437	0.148
-413.398	-200.000	-0.020	-0.401
-412.384	-39.813	-0.308	-0.210
-411.369	-32.065	0.369	0.269
-410.355	3.228	0.333	-0.316
-409.340	238.318	-0.171	-0.372
-408.325	-200.000	-0.038	-0.440
-407.311	-101.114	-0.634	0.201
-406.296	185.751	-0.119	-0.231
-405.282	800.000	0.034	-0.173
-404.267	161.367	-0.166	0.305
-403.252	74.095	0.373	0.512
-402.238	-36.971	-0.149	-0.104
-401.223	242.389	0.097	0.213
-400.209	-77.250	0.623	0.282
-399.194	-121.170	-0.409	-0.089
-398.179	607.479	-0.079	0.260
-397.165	800.000	-0.043	0.195
-396.150	263.981	-0.216	0.491
-395.136	-126.963	-0.070	0.013
-394.121	-103.591	-0.464	-0.141
-393.106	-108.411	-0.336	-0.094
-392.092	101.204	-0.199	-0.303
-391.077	-200.000	-0.018	-0.183
-390.063	-86.794	0.201	-0.080
-389.048	-68.511	-0.640	0.322
-388.033	-162.685	-0.145	0.009
-387.019	-51.103	0.223	-0.136
-386.004	-70.508	-0.233	0.115
-384.990	10.650	-0.208	-0.206
-383.975	-34.180	0.061	-0.044
-382.960	-18.344	0.410	0.333
-381.946	17.683	0.032	0.033
-380.931	-87.354	-0.202	-0.079
-379.917	-174.856	-0.308	0.011
-378.902	559.986	-0.115	-0.365
-377.888	-70.961	0.466	0.228
-376.873	-28.350	0.146	-0.110
-375.858	93.163	0.138	-0.203
-374.844	-69.059	-0.405	-0.203
-373.829	35.826	0.051	0.058
-372.815	-77.866	0.474	0.213
-371.800	-200.000	-0.045	0.540
-370.785	-167.430	0.389	-0.020
-369.771	10.393	0.430	0.427
-368.756	-8.222	0.557	0.488
-367.742	-139.121	0.705	0.098
-366.727	-41.228	-0.213	-0.143
-365.712	-54.482	-0.239	0.141
-364.698	-200.000	0.029	-0.205
-363.683	-26.935	-0.222	0.168
-362.669	786.823	0.142	0.510
-361.654	-4.199	0.332	0.299
-360.639	-34.086	0.268	-0.192
-359.625	51.030	0.142	-0.175
-358.610	800.000	-0.073	-0.392
-357.596	-200.000	-0.026	0.152
-356.581	-200.000	0.016	-0.268
-355.566	-93.099	0.110	0.040
-354.552	-79.421	0.232	-0.102
-353.537	-37.963	0.359	0.248
-352.523	-129.155	0.144	0.026
-351.508	-200.000	-0.016	-0.272
-350.493	-38.623	0.443	-0.304
-349.479	435.310	-0.124	-0.353
-348.464	-200.000	-0.018	0.347
-347.450	-100.171	-0.415	0.134
-346.435	-13.488	-0.260	-0.219
-345.420	800.000	-0.099	-0.480
-344.406	39.449	0.309	-0.361
-343.391	6.690	0.236	-0.228
-342.377	-114.712	-0.442	-0.109
-341.362	-200.000	0.048	-0.337
-340.348	-3.108	0.251	0.227
-339.333	-166.101	0.443	-0.024
-338.318	70.915	0.145	-0.196
-337.304	161.470	0.064	-0.117
-336.289	800.000	-0.143	-0.620
-335.275	-91.215	0.593	-0.220
-334.260	-200.000	0.016	-0.269
-333.245	800.000	-0.004	-0.020
-332.231	6.409	0.377	0.365
-331.216	62.449	0.188	0.244
-330.202	454.237	0.078	-0.227
-329.187	165.740	-0.142	-0.263
-328.172	214.336	0.248	-0.512
-327.158	-200.000	0.036	-0.303
-326.143	92.154	-0.250	-0.367
-325.129	-19.247	-0.187	-0.150
-324.114	96.403	-0.037	0.056
-323.099	80.787	0.111	0.156
-322.085	-200.000	-0.115	0.809
-321.070	46.362	0.155	0.187
-320.056	-156.762	0.124	0.010
-319.041	143.054	0.166	0.288
-318.026	-174.692	0.366	-0.013
-317.012	-200.000	-0.010	-0.231
-315.997	-65.235	0.286	0.149
-314.983	664.537	-0.089	-0.301
-313.968	-35.265	0.038	-0.027
-312.953	-33.121	-0.254	-0.183
-311.939	542.028	-0.074	-0.232
-310.924	-153.375	-0.160	-0.014
-309.910	-88.165	0.183	0.071
-308.895	-200.000	0.074	-0.453
-307.880	63.358	-0.338	0.442
-306.866	-200.000	-0.024	0.237
-305.851	-4.553	-0.304	-0.272
-304.837	366.515	-0.020	0.054
-303.822	176.185	-0.225	-0.426
-302.807	-30.660	-0.308	-0.226
-301.793	96.884	-0.406	-0.607
-300.778	-200.000	-0.058	-0.000
-299.764	127.248	0.116	-0.192
-298.749	112.724	0.206	-0.326
-297.735	-132.959	-0.762	0.125
-296.720	36.381	0.120	-0.137
-295.705	32.398	0.222	-0.249
-294.691	-7.633	0.126	-0.111
-293.676	800.000	0.064	-0.331
-292.662	-154.730	-0.407	0.035
-291.647	67.597	0.115	-0.153
-290.632	521.668	0.095	-0.291
-289.618	604.768	0.013	-0.041
-288.603	86.307	-0.152	0.217
-287.589	-51.800	0.128	0.077
-286.574	-200.000	-0.012	0.255
-285.559	-12.717	-0.178	-0.150
-284.545	-99.367	0.437	-0.142
-283.530	-77.082	-0.301	0.136
-282.516	-29.764	-0.297	-0.220
-281.501	14.379	0.259	-0.263
-280.486	-200.000	0.066	-0.725
-279.472	219.465	-0.102	-0.212
-278.457	54.028	-0.298	-0.372
-277.443	-109.398	0.519	0.142
-276.428	-88.024	0.193	0.075
-275.413	44.279	-0.282	0.336
-274.399	-80.486	0.227	0.098
-273.384	448.043	-0.134	0.385
-272.370	-58.379	0.435	-0.245
-271.355	-72.933	-0.172	-0.082
-270.340	261.307	0.121	0.274
-269.326	577.878	-0.133	0.426
-268.311	39.191	-0.267	-0.310
-267.297	-66.899	0.209	-0.107
-266.282	-150.257	0.301	0.030
-265.267	154.064	0.093	0.167
-264.253	255.033	-0.121	0.269
-263.238	42.814	0.181	-0.214
-262.224	208.318	0.175	0.355
-261.209	356.732	-0.199	0.517
-260.195	800.000	-0.056	-0.291
-259.180	224.007	-0.095	-0.201
-258.165	221.710	0.023	0.048
-257.151	122.391	-0.212	0.344
-256.136	-88.243	0.105	0.041
-255.122	58.100	-0.237	-0.302
-254.107	737.065	0.075	-0.264
-253.092	58.251	-0.228	-0.290
-252.078	760.760	0.076	0.269
-251.063	264.833	0.038	0.086
-250.049	544.146	-0.195	0.607
-249.034	-96.562	0.462	0.157
-248.019	-128.901	0.165	-0.030
-247.005	-78.908	-0.650	0.286
-245.990	-66.173	-0.202	0.104
-244.976	-129.890	0.199	0.035
-243.961	118.333	0.144	0.230
-242.946	338.548	-0.072	-0.182
-241.932	800.000	-0.038	0.158
-240.917	27.362	0.065	-0.071
-239.903	-125.376	-0.411	0.081
-238.888	64.252	0.153	0.199
-237.873	10.380	-0.542	-0.535
-236.859	-33.541	0.083	-0.059
-235.844	215.532	-0.024	0.050
-234.830	163.651	-0.357	-0.653
-233.815	8.378	-0.285	-0.278
-232.800	800.000	-0.171	-0.628
-231.786	800.000	0.104	0.389
-230.771	-142.586	-0.204	-0.026
-229.757	603.805	0.109	0.354
-228.742	-200.000	-0.003	-0.044
-227.727	-52.053	0.299	0.180
-226.713	211.758	0.120	0.247
-225.698	11.499	0.207	-0.206
-224.684	-50.807	-0.275	-0.167
-223.669	-163.112	-0.502	-0.031
-222.655	-137.536	-0.104	-0.015
-221.640	305.116	-0.063	0.151
-220.625	480.075	0.191	-0.565
-219.611	-200.000	-0.027	0.223
-218.596	-45.239	0.437	0.281
-217.582	-200.000	-0.003	-0.136
-216.567	9.526	-0.236	0.232
-215.552	-42.990	0.162	-0.107
-214.538	800.000	0.043	-0.194
-213.523	-81.048	-0.386	0.165
-212.509	-27.509	-0.306	-0.230
-211.494	-140.495	-0.593	-0.079
-210.479	50.763	-0.198	-0.243
-209.465	-200.000	0.067	0.541
-208.450	126.293	0.272	0.446
-207.436	66.469	0.288	0.380
-206.421	-168.316	0.159	0.008
-205.406	113.262	0.102	-0.160
-204.392	-66.600	-0.389	0.199
-203.377	-69.893	-0.330	0.162
-202.363	800.000	0.115	0.429
-201.348	-200.000	-0.028	0.391
-200.333	448.269	0.067	0.191
-199.319	-36.139	-0.337	-0.235
-198.304	-154.830	-0.352	0.030
-197.290	-200.000	0.012	-0.109
-196.275	608.216	0.044	-0.142
-195.260	-145.873	0.363	-0.041
-194.246	-72.645	0.105	0.050
-193.231	-123.459	0.295	-0.060
-192.217	800.000	0.024	0.105
-191.202	-143.387	-0.632	0.077
-190.187	-93.719	0.056	0.020
-189.173	-41.808	0.322	-0.213
-188.158	606.764	0.126	0.410
-187.144	4.778	0.292	-0.277
-186.129	-200.000	-0.026	0.247
-185.114	-87.706	-0.496	0.193
-184.100	-40.408	-0.267	0.179
-183.085	10.386	0.333	0.328
-182.071	247.997	0.181	0.397
-181.056	21.653	0.270	0.285
-180.042	217.364	0.178	0.369
-179.027	800.000	0.041	-0.168
-178.012	800.000	0.160	-0.662
-176.998	-200.000	0.027	-0.239
-175.983	-21.068	-0.245	0.194
-174.969	18.302	0.179	-0.185
-173.954	-93.677	-0.290	0.103
-172.939	-15.719	0.241	-0.199
-171.925	-65.840	-0.153	0.079
-170.910	-112.283	0.142	-0.037
-169.896	-68.305	0.394	0.197
-168.881	425.916	0.101	-0.284
-167.866	800.000	0.087	0.352
-166.852	-200.000	0.000	-0.097
-165.837	-111.901	-0.324	-0.084
-164.823	-158.034	0.365	0.027
-163.808	800.000	0.058	0.245
-162.793	-168.188	-0.355	0.018
-161.779	-200.000	0.001	-0.351
-160.764	262.065	0.056	0.126
-159.750	-37.875	-0.149	-0.102
-158.735	-200.000	0.063	-0.583
-157.720	-70.713	0.319	0.155
-156.706	-105.028	-0.299	0.088
-155.691	-200.000	-0.098	0.741
-154.677	-74.892	0.378	0.174
-153.662	-147.177	0.276	-0.030
-152.647	800.000	-0.069	-0.361
-151.633	-18.381	0.324	-0.261
-150.618	-86.739	0.197	-0.078
-149.604	-20.197	0.097	0.077
-148.589	-1.827	-0.579	0.526
-147.574	-119.559	-0.123	0.027
-146.560	-164.554	0.161	0.009
-145.545	241.879	0.097	-0.211
-144.531	-71.165	-0.613	0.296
-143.516	-34.603	-0.248	-0.175
-142.502	800.000	0.007	0.040
-141.487	-128.222	-0.170	-0.031
-140.472	-129.786	-0.238	0.042
-139.458	-200.000	-0.033	-0.265
-138.443	541.272	0.150	-0.465
-137.429	209.975	-0.054	-0.109
-136.414	79.053	-0.038	-0.052
-135.399	-32.802	0.405	0.290
-134.385	160.863	-0.172	0.311
-133.370	-140.509	0.105	0.014
-132.356	295.749	0.148	-0.352
-131.341	-61.713	0.470	-0.254
-130.326	-115.995	-0.130	-0.031
-129.312	-200.000	-0.018	-0.205
-128.297	800.000	-0.111	-0.438
-127.283	800.000	0.068	-0.330
-126.268	-135.188	0.188	0.029
-125.253	692.878	0.149	-0.506
-124.239	23.937	0.345	0.367
-123.224	51.695	0.293	0.360
-122.210	-84.911	-0.271	-0.109
-121.195	-177.908	0.398	0.012
-120.180	-200.000	-0.026	-0.419
-119.166	-104.144	0.166	-0.050
-118.151	-117.898	-0.396	0.091
-117.137	-64.612	-0.376	-0.196
-116.122	130.144	0.225	0.373
-115.107	-130.201	-0.182	0.032
-114.093	-20.509	0.044	0.035
-113.078	-0.700	-0.087	0.080
-112.064	-78.423	-0.239	-0.105
-111.049	752.293	-0.109	0.381
-110.034	-145.610	-0.394	0.045
-109.020	585.880	0.049	-0.155
-108.005	691.345	0.116	0.395
-106.991	-58.075	-0.272	0.152
-105.976	583.804	0.019	-0.060
-104.962	-77.412	0.615	0.274
-103.947	301.163	0.181	-0.432
-102.932	-71.447	0.202	-0.097
-101.918	-200.000	-0.105	-0.755
-100.903	-52.230	-0.240	-0.143
-99.889	-70.037	-0.433	0.212
-98.874	800.000	0.077	-0.302
-97.859	233.999	-0.236	0.502
-96.845	-163.285	0.472	0.029
-95.830	-133.071	-0.483	0.078
-94.816	-133.498	0.286	-0.046
-93.801	-80.805	0.306	0.131
-92.786	-146.619	0.212	0.023
-91.772	284.817	-0.124	-0.290
-90.757	-44.955	0.440	0.282
-89.743	-200.000	0.034	-0.607
-88.728	-61.019	-0.107	-0.058
-87.713	25.642	0.218	0.234
-86.699	40.537	0.342	0.398
-85.684	-48.978	0.467	0.287
-84.670	-109.526	0.257	-0.069
-83.655	-145.420	-0.634	-0.073
-82.640	-46.498	-0.108	0.068
-81.626	-157.474	-0.295	-0.023
-80.611	110.424	0.139	0.215
-79.597	-37.982	0.401	-0.274
-78.582	117.947	0.209	0.333
-77.567	160.716	0.390	0.704
-76.553	188.331	-0.033	0.063
-75.538	88.145	0.213	-0.305
-74.524	723.723	0.102	-0.353
-73.509	138.002	-0.337	0.571
-72.494	-68.428	0.500	0.249
-71.480	3.730	-0.133	0.125
-70.465	-200.000	0.015	0.168
-69.451	-167.655	-0.388	-0.020
-68.436	97.592	0.084	0.125
-67.422	500.248	0.049	-0.146
-66.407	800.000	-0.105	-0.460
-65.392	-162.756	0.596	-0.037
-64.378	-22.306	0.203	-0.159
-63.363	-163.301	0.215	0.013
-62.349	-92.525	0.195	-0.070
-61.334	-5.846	-2.822	-2.486
-60.319	21.116	1.487	1.554
-59.305	255.115	-3.414	-7.558
-58.290	79.013	3.597	4.966
-57.276	354.190	4.075	10.472
-56.261	-200.000	21.604	313.757
-55.246	365.920	1290.426	3364.599
-54.232	53.467	2848.871	3520.431
-53.217	53.005	2669.670	3291.732
-52.203	34.441	2400.115	2698.347
-51.188	29.837	2066.405	2266.535
-50.173	26.325	1951.826	2099.833
-49.159	25.251	1941.144	2075.781
-48.144	24.880	1936.634	2066.578
-47.130	24.817	1934.670	2063.670
-46.115	24.839	1932.821	2061.861
-45.100	24.787	1931.319	2059.583
-44.086	24.825	1930.238	2058.787
-43.071	24.817	1928.393	2056.638
-42.057	24.827	1926.368	2054.517
-41.042	24.738	1925.314	2052.284
-40.027	24.744	1924.061	2050.931
-39.013	24.778	1921.786	2048.819
-37.998	24.465	1921.906	2045.263
-36.984	24.591	1920.163	2044.777
-35.969	24.733	1918.438	2044.497
-34.954	24.684	1916.334	2041.608
-33.940	24.641	1916.100	2040.781
-32.925	24.728	1914.216	2039.695
-31.911	24.688	1913.106	2037.966
-30.896	24.488	1912.584	2035.046
-29.881	24.638	1911.358	2035.378
-28.867	24.629	1908.736	2032.393
-27.852	24.505	1907.919	2030.034
-26.838	24.560	1906.142	2028.692
-25.823	24.480	1904.961	2026.433
-24.809	24.539	1903.302	2025.265
-23.794	24.437	1903.090	2023.793
-22.779	24.570	1900.645	2022.631
-21.765	24.503	1899.785	2020.875
-20.750	24.470	1899.577	2020.189
-19.736	24.419	1898.323	2018.195
-18.721	24.450	1896.094	2016.099
-17.706	24.371	1894.968	2013.925
-16.692	24.280	1894.603	2012.429
-15.677	24.306	1893.511	2011.484
-14.663	24.281	1892.068	2009.587
-13.648	24.416	1889.287	2008.081
-12.633	24.503	1888.123	2007.745
-11.619	24.354	1887.294	2005.099
-10.604	24.492	1885.246	2004.406
-9.590	24.535	1884.831	2004.365
-8.575	24.401	1883.533	2001.402
-7.560	24.455	1882.252	2000.569
-6.546	24.396	1881.938	1999.488
-5.531	24.437	1880.166	1997.987
-4.517	24.346	1878.656	1995.282
-3.502	24.420	1878.098	1995.436
-2.487	24.401	1876.871	1993.848
-1.473	24.525	1873.673	1991.761
-0.458	24.125	1854.471	1966.827
0.556	20.281	1999.437	2062.353
1.571	18.626	2203.920	2251.179
2.586	19.245	2244.469	2300.638
3.600	19.248	2246.660	2302.652
4.615	19.351	2245.459	2302.519
5.629	19.321	2243.553	2299.896
6.644	19.147	2241.956	2295.651
7.659	19.241	2239.778	2294.398
8.673	19.251	2237.732	2292.163
9.688	19.038	2246.540	2298.052
10.702	18.058	2326.287	2365.716
11.717	16.412	2389.556	2406.219
12.731	7.730	2368.958	2261.514
13.746	1.068	2352.163	2150.411
14.761	0.324	2348.385	2136.098
15.775	0.124	2346.558	2131.338
16.790	0.119	2344.790	2129.415
17.804	0.068	2343.761	2127.493
18.819	0.136	2342.005	2126.614
19.834	-0.044	2340.698	2122.610
20.848	0.060	2338.536	2121.877
21.863	0.169	2337.024	2121.790
22.877	0.059	2335.114	2118.248
23.892	0.168	2332.929	2117.549
24.907	0.071	2331.535	2114.671
25.921	0.097	2329.428	2112.865
26.936	0.111	2327.053	2110.659
27.950	0.110	2323.604	2107.266
28.965	0.015	2323.989	2106.020
29.980	0.089	2321.234	2104.319
30.994	0.145	2319.428	2103.217
32.009	4.001	2330.673	2167.506
33.023	13.488	2357.363	2326.600
34.038	17.387	2364.957	2388.956
35.053	17.487	2362.401	2387.497
36.067	17.382	2359.924	2383.228
37.082	17.414	2356.669	2380.108
38.096	17.606	2354.954	2380.781
39.111	17.699	2354.165	2381.013
40.126	17.955	2350.584	2380.696
41.140	18.029	2349.541	2380.381
42.155	18.013	2349.064	2379.395
43.169	17.928	2347.453	2376.288
44.184	17.666	2344.060	2368.900
45.199	17.833	2342.205	2369.075
46.213	17.913	2340.409	2368.093
47.228	18.026	2339.328	2368.287
48.242	18.047	2338.106	2367.058
49.257	18.114	2336.709	2366.301
50.271	18.071	2334.129	2362.802
51.286	17.744	2331.223	2355.039
52.301	17.524	2329.748	2350.213
53.315	18.388	2333.211	2365.435
54.330	21.647	2341.647	2419.017
55.344	23.645	2342.704	2447.541
56.359	23.894	2339.999	2447.868
57.374	23.962	2339.364	2447.847
58.388	24.077	2336.519	2446.162
59.403	23.826	2331.246	2436.899
60.417	23.426	2328.680	2428.413
61.432	23.478	2327.188	2427.292
62.447	23.721	2325.508	2428.582
63.461	23.903	2324.248	2429.471
64.476	24.089	2321.635	2429.003
65.490	23.756	2319.337	2421.750
66.505	22.863	2315.460	2405.186
67.520	20.494	2307.709	2364.487
68.534	18.282	2297.407	2323.500
69.549	17.508	2293.656	2308.885
70.563	17.517	2290.114	2305.165
71.578	17.445	2289.075	2302.859
72.593	17.492	2288.190	2302.338
73.607	17.627	2286.711	2302.405
74.622	17.744	2284.030	2301.020
75.636	17.580	2281.292	2295.760
76.651	17.481	2279.132	2291.970
77.666	17.483	2276.463	2289.048
78.680	17.381	2274.212	2285.133
79.695	17.294	2272.320	2281.786
80.709	17.077	2270.927	2277.180
81.724	16.994	2269.179	2274.038
82.739	17.103	2265.928	2271.972
83.753	17.094	2263.478	2269.120
84.768	16.976	2262.725	2266.515
85.782	16.931	2261.015	2263.924
86.797	16.867	2259.535	2261.320
87.812	16.901	2257.246	2259.204
88.826	17.058	2255.480	2259.278
89.841	17.123	2252.896	2257.279
90.855	17.240	2249.682	2255.354
91.870	17.228	2249.656	2254.900
92.884	17.269	2247.632	2253.143
93.899	17.180	2245.855	2249.909
94.914	18.076	2248.908	2264.633
95.928	20.795	2257.300	2309.114
96.943	21.734	2256.068	2320.073
97.957	18.928	2244.850	2271.050
98.972	17.156	2238.233	2240.614
99.987	17.014	2234.235	2234.460
101.001	17.138	2231.060	2232.654
102.016	17.040	2231.251	2231.285
103.030	17.148	2227.932	2229.131
104.045	17.024	2226.035	2225.332
105.060	17.100	2223.721	2223.753
106.074	17.070	2221.200	2220.572
107.089	17.115	2219.397	2219.086
108.103	17.117	2218.982	2218.438
109.118	17.197	2218.454	2218.697
110.133	17.377	2216.344	2218.675
111.147	17.104	2214.465	2212.951
112.162	17.171	2212.832	2211.932
113.176	17.483	2210.314	2213.229
114.191	17.449	2209.651	2211.857
115.206	17.606	2207.494	2211.485
116.220	17.408	2205.782	2206.925
117.235	17.405	2204.127	2204.963
118.249	17.503	2202.034	2203.881
119.264	17.491	2200.233	2201.656
120.279	17.414	2198.768	2198.920
121.293	17.560	2196.584	2198.378
122.308	17.495	2195.377	2196.065
123.322	17.313	2194.376	2192.433
124.337	17.815	2196.243	2200.550
125.352	20.809	2204.367	2247.326
126.366	21.507	2201.884	2253.557
127.381	18.566	2190.024	2203.232
128.395	17.327	2185.409	2182.351
129.410	17.341	2183.200	2180.069
130.424	17.382	2181.689	2178.820
131.439	17.374	2180.718	2177.488
132.454	17.402	2178.839	2175.712
133.468	17.664	2175.360	2175.342
134.483	17.664	2175.221	2174.935
135.497	17.653	2174.292	2173.606
136.512	17.525	2171.512	2168.926
137.527	17.550	2168.360	2165.844
138.541	17.239	2167.175	2160.422
139.556	17.218	2166.220	2158.953
140.570	17.065	2164.665	2155.188
141.585	16.942	2162.201	2150.906
142.600	17.153	2160.686	2151.833
143.614	17.024	2158.844	2148.103
144.629	16.920	2157.845	2145.525
145.643	16.902	2155.599	2142.800
146.658	16.758	2154.578	2139.707
147.673	16.743	2151.760	2136.462
148.687	16.817	2151.104	2136.485
149.702	16.938	2150.431	2137.101
150.716	17.113	2149.184	2137.816
151.731	17.122	2147.799	2136.299
152.746	17.181	2147.331	2136.324
153.760	17.979	2150.651	2149.472
154.775	20.977	2158.111	2194.660
155.789	21.994	2156.262	2205.367
156.804	19.022	2145.251	2156.451
157.819	17.244	2137.000	2125.560
158.833	16.902	2133.880	2117.912
159.848	16.973	2132.149	2116.835
160.862	17.176	2131.363	2118.345
161.877	17.376	2130.029	2119.270
162.892	17.402	2129.271	2118.581
163.906	17.452	2128.092	2117.781
164.921	17.445	2125.910	2115.274
165.935	17.313	2124.626	2112.099
166.950	17.483	2123.247	2112.593
167.964	17.541	2119.824	2109.657
168.979	17.173	2118.170	2103.174
169.994	17.029	2116.263	2099.242
171.008	17.056	2114.464	2097.539
172.023	16.985	2113.685	2095.642
173.037	17.180	2112.992	2097.119
174.052	17.364	2111.609	2097.782
175.067	17.380	2109.664	2095.792
176.081	17.242	2107.878	2092.062
177.096	17.283	2107.367	2091.808
178.110	17.495	2105.062	2091.886
179.125	17.474	2104.686	2091.011
180.140	17.574	2101.566	2088.889
181.154	17.502	2101.031	2087.224
182.169	17.563	2101.024	2087.716
183.183	18.365	2103.390	2099.701
184.198	21.724	2111.134	2148.651
185.213	22.273	2108.775	2152.750
186.227	19.087	2098.225	2102.657
187.242	17.693	2093.317	2080.410
188.256	17.562	2090.759	2076.007
189.271	17.367	2090.153	2072.773
190.286	17.326	2087.603	2069.489
191.300	17.295	2085.694	2066.969
192.315	17.385	2084.373	2066.515
193.329	17.550	2083.240	2067.163
194.344	17.811	2082.153	2069.019
195.359	17.833	2081.038	2067.931
196.373	17.611	2078.095	2062.049
197.388	17.237	2075.401	2054.593
198.402	17.126	2072.995	2050.617
199.417	17.069	2072.005	2048.693
200.432	17.310	2069.862	2049.256
201.446	17.182	2069.338	2046.934
202.461	17.130	2067.237	2043.983
203.475	17.085	2064.541	2040.534
204.490	17.112	2062.686	2038.777
205.504	17.095	2061.195	2036.862
206.519	17.164	2059.026	2035.307
207.534	17.172	2057.384	2033.527
208.548	17.087	2056.774	2031.663
209.563	17.163	2055.187	2030.770
210.577	17.339	2054.038	2031.506
211.592	17.327	2053.359	2030.442
212.607	18.695	2059.030	2052.256
213.621	22.264	2067.723	2103.669
214.636	21.781	2060.754	2090.534
215.650	18.410	2049.550	2038.669
216.665	17.460	2045.571	2023.118
217.680	17.317	2044.621	2020.225
218.694	17.192	2042.531	2016.435
219.709	17.180	2041.050	2014.581
220.723	17.214	2039.912	2013.625
221.738	17.411	2038.323	2014.160
222.753	17.614	2035.690	2013.725
223.767	17.463	2035.001	2011.008
224.782	17.341	2033.517	2007.861
225.796	17.276	2031.070	2004.426
226.811	17.195	2029.598	2001.783
227.826	17.344	2028.647	2002.364
228.840	17.357	2026.746	2000.401
229.855	17.330	2025.584	1998.695
230.869	17.320	2024.970	1997.740
231.884	17.288	2022.626	1994.812
232.899	17.290	2022.187	1994.153
233.913	17.380	2021.162	1993.967
234.928	17.351	2019.203	1991.458
235.942	17.147	2017.272	1986.913
236.957	17.360	2014.851	1986.789
237.972	17.183	2015.038	1984.663
238.986	17.293	2012.556	1983.274
240.001	17.250	2011.526	1981.516
241.015	17.373	2010.780	1981.981
242.030	18.386	2013.684	1996.483
243.045	21.234	2020.206	2036.132
244.059	21.657	2017.351	2037.956
245.074	18.886	2006.509	1994.490
246.088	17.757	2002.770	1977.382
247.103	17.695	2002.040	1975.698
248.117	17.860	1999.993	1975.360
249.132	17.596	1997.907	1970.002
250.147	17.520	1995.887	1966.888
251.161	17.416	1994.620	1964.200
252.176	17.715	1993.801	1966.622
253.190	17.968	1991.686	1967.234
254.205	18.068	1990.796	1967.278
255.220	18.094	1988.304	1964.878
256.234	17.897	1987.131	1961.209
257.249	17.486	1985.693	1954.814
258.263	17.298	1983.909	1950.648
259.278	17.060	1982.736	1946.524
260.293	17.171	1980.469	1945.342
261.307	17.110	1978.047	1942.028
262.322	17.118	1977.276	1941.133
263.336	17.168	1974.471	1938.719
264.351	17.018	1972.345	1934.684
265.366	16.849	1972.536	1932.703
266.380	16.966	1971.447	1932.740
267.395	17.101	1969.439	1932.079
268.409	17.081	1968.115	1930.325
269.424	17.096	1967.190	1929.354
270.439	17.101	1966.445	1928.460
271.453	18.248	1969.664	1944.484
272.468	21.539	1975.970	1988.118
273.482	21.720	1972.153	1986.104
274.497	18.432	1961.623	1937.942
275.512	17.294	1956.699	1919.938
276.526	17.038	1954.490	1914.639
277.541	17.009	1951.585	1911.236
278.555	16.869	1950.390	1908.249
279.570	16.726	1948.575	1904.635
280.585	16.874	1947.862	1905.379
281.599	17.033	1947.113	1906.215
282.614	17.330	1946.800	1909.026
283.628	17.768	1946.314	1913.264
284.643	18.097	1945.989	1916.422
285.657	18.308	1945.034	1917.629
286.672	18.229	1943.559	1915.060
287.687	17.985	1940.917	1909.490
288.701	17.740	1939.363	1904.978
289.716	17.904	1937.278	1904.544
290.730	17.907	1937.237	1904.305
291.745	18.575	1937.691	1912.008
292.760	18.639	1935.665	1910.497
293.774	17.951	1933.033	1899.984
294.789	17.715	1931.321	1895.435
295.803	17.368	1929.405	1889.456
296.818	17.409	1928.404	1888.708
297.833	17.602	1927.396	1889.644
298.847	17.707	1925.349	1888.581
299.862	17.670	1923.631	1886.253
300.876	18.386	1926.740	1897.056
301.891	21.668	1934.020	1940.605
302.906	22.115	1930.948	1942.253
303.920	18.761	1921.345	1895.220
304.935	17.817	1916.661	1879.921
305.949	17.455	1914.559	1873.630
306.964	17.398	1912.915	1871.167
307.979	17.597	1910.977	1871.249
308.993	17.795	1911.303	1873.530
310.008	18.312	1909.727	1877.462
311.022	18.436	1909.368	1878.253
312.037	18.220	1908.260	1874.558
313.052	18.982	1907.740	1882.203
314.066	19.591	1906.132	1887.086
315.081	18.849	1903.939	1876.541
316.095	18.462	1901.821	1869.985
317.110	18.220	1899.883	1865.214
318.125	17.811	1897.620	1858.286
319.139	17.607	1895.284	1853.551
320.154	17.574	1894.606	1852.303
321.168	17.722	1892.995	1852.115
322.183	17.419	1891.055	1846.697
323.197	17.115	1889.006	1841.155
324.212	16.981	1886.869	1837.404
325.227	16.731	1885.058	1832.700
326.241	16.873	1883.003	1832.018
327.256	17.007	1881.341	1831.634
328.270	17.014	1880.370	1830.552
329.285	17.035	1880.957	1831.135
330.300	18.186	1886.116	1848.442
331.314	21.795	1892.204	1893.435
332.329	21.690	1886.607	1886.476
333.343	18.257	1876.676	1839.299
334.358	17.134	1872.064	1822.453
335.373	16.796	1870.117	1816.693
336.387	16.655	1868.367	1813.260
337.402	16.647	1866.994	1811.620
338.416	16.953	1865.226	1812.974
339.431	17.047	1864.578	1813.141
340.446	17.012	1863.828	1811.815
341.460	17.491	1863.509	1816.432
342.475	17.932	1862.577	1820.033
343.489	17.976	1861.496	1819.225
344.504	18.023	1860.904	1818.938
345.519	18.212	1859.236	1819.106
346.533	18.448	1858.381	1820.576
347.548	18.724	1859.063	1823.969
348.562	18.961	1857.791	1825.028
349.577	18.813	1856.466	1821.933
350.592	18.690	1853.992	1817.978
351.606	18.522	1853.098	1815.101
352.621	18.631	1850.716	1813.710
353.635	18.119	1849.357	1806.719
354.650	17.860	1847.218	1801.669
355.665	17.689	1844.880	1797.357
356.679	17.524	1843.685	1794.233
357.694	17.586	1841.057	1792.110
358.708	17.473	1840.125	1789.801
359.723	18.764	1845.328	1808.320
360.738	22.162	1850.744	1849.412
361.752	21.661	1844.865	1838.032
362.767	18.485	1836.447	1796.028
363.781	17.590	1832.847	1782.884
364.796	17.474	1831.334	1779.977
365.810	17.407	1830.345	1778.098
366.825	17.473	1829.379	1777.639
367.840	17.676	1828.762	1778.956
368.854	17.633	1828.245	1777.790
369.869	18.182	1828.075	1783.173
370.883	18.612	1826.964	1786.369
371.898	18.704	1826.423	1786.592
372.913	18.707	1824.242	1784.277
373.927	18.716	1823.422	1783.359
374.942	18.857	1822.335	1783.548
375.956	18.752	1820.010	1779.971
376.971	18.219	1816.598	1770.878
377.986	17.756	1814.783	1764.076
379.000	17.833	1813.782	1763.695
380.015	17.905	1811.780	1762.283
381.029	17.436	1809.890	1755.377
382.044	17.006	1806.366	1747.297
383.059	16.877	1805.400	1744.813
384.073	16.888	1805.202	1744.526
385.088	16.977	1804.063	1744.138
386.102	16.988	1801.983	1742.036
387.117	16.906	1800.663	1739.706
388.132	17.091	1799.732	1740.502
389.146	18.057	1805.710	1756.055
390.161	21.678	1810.934	1798.358
391.175	21.533	1803.225	1788.999
392.190	18.113	1794.460	1745.064
393.205	17.189	1790.775	1731.810
394.219	17.103	1789.039	1729.040
395.234	17.035	1787.677	1726.819
396.248	17.105	1786.089	1725.797
397.263	17.048	1783.365	1722.380
398.278	17.031	1782.127	1720.804
399.292	16.980	1781.618	1719.589
400.307	17.200	1780.753	1720.780
401.321	17.466	1780.345	1722.891
402.336	17.622	1780.322	1724.253
403.350	17.759	1779.193	1724.340
404.365	18.114	1778.190	1726.773
405.380	18.555	1777.822	1730.679
406.394	18.594	1777.304	1730.359
407.409	18.619	1775.089	1728.253
408.423	18.579	1774.367	1726.940
409.438	18.775	1773.251	1727.625
410.453	18.655	1771.721	1724.718
411.467	18.398	1769.895	1720.140
412.482	18.070	1767.614	1714.409
413.496	17.767	1765.137	1708.754
414.511	17.585	1762.900	1704.552
415.526	17.400	1760.413	1700.089
416.540	17.269	1759.573	1697.751
417.555	17.273	1759.031	1697.065
418.569	17.558	1758.952	1699.651
419.584	17.553	1758.710	1699.156
420.599	17.425	1759.148	1698.097
421.613	17.542	1756.445	1696.452
422.628	17.388	1755.187	1693.501
423.642	17.391	1752.008	1690.262
424.657	17.573	1750.475	1690.396
425.672	17.606	1750.022	1690.084
426.686	17.657	1748.855	1689.258
427.701	17.528	1747.726	1686.681
428.715	17.529	1746.889	1685.686
429.730	17.957	1745.210	1688.118
430.745	17.917	1744.297	1686.631
431.759	17.874	1743.963	1685.680
432.774	18.102	1744.613	1688.367
433.788	18.746	1744.056	1694.020
434.803	18.835	1744.026	1694.666
435.818	18.857	1742.992	1693.682
436.832	18.665	1742.097	1690.707
437.847	17.803	1735.294	1675.399
438.861	9.767	1714.645	1576.594
439.876	1.864	1699.046	1484.894
440.890	0.341	1696.117	1467.260
441.905	0.200	1694.505	1464.310
442.920	0.141	1693.756	1462.911
443.934	0.270	1692.204	1462.662
444.949	0.182	1691.315	1460.859
445.963	0.234	1689.861	1459.933
446.978	0.069	1689.583	1457.914
447.993	0.101	1688.075	1456.748
449.007	0.132	1685.870	1454.968
450.022	0.237	1683.954	1454.159
451.036	0.195	1682.590	1452.400
452.051	1.204	1686.411	1465.329
453.066	9.176	1705.108	1559.425
454.080	17.109	1717.448	1648.220
455.095	18.973	1720.027	1668.696
456.109	19.824	1721.453	1678.176
457.124	20.002	1720.684	1678.965
458.139	20.290	1720.509	1681.402
459.153	20.529	1719.366	1682.407
460.168	20.464	1717.427	1679.676
461.182	20.359	1716.186	1677.241
462.197	20.378	1713.824	1674.920
463.212	20.272	1711.905	1671.814
464.226	20.192	1710.831	1669.795
465.241	20.465	1710.280	1671.690
466.255	20.514	1710.273	1671.959
467.270	20.617	1708.310	1670.838
468.285	20.292	1706.470	1665.705
469.299	20.192	1704.825	1662.928
470.314	20.344	1703.049	1662.465
471.328	20.342	1702.277	1661.487
472.343	20.355	1700.673	1659.852
473.358	20.384	1700.520	1659.781
474.372	20.506	1698.552	1658.830
475.387	20.314	1696.458	1654.747
476.401	20.060	1695.468	1651.159
477.416	20.085	1693.481	1649.262
478.430	20.144	1693.215	1649.364
479.445	20.013	1691.822	1646.566
480.460	19.787	1689.953	1642.391
481.474	20.064	1689.598	1644.493
482.489	20.469	1688.971	1647.542
483.503	20.626	1688.325	1648.209
484.518	20.768	1686.067	1647.158
485.533	20.729	1684.300	1644.869
486.547	20.618	1683.011	1642.356
487.562	20.763	1682.926	1643.459
488.576	20.696	1681.058	1640.795
489.591	20.705	1680.330	1639.973
490.606	20.490	1678.535	1635.997
491.620	20.525	1677.060	1634.694
492.635	20.908	1675.454	1636.550
493.649	21.046	1675.188	1637.393
494.664	20.419	1673.308	1629.445
495.679	20.041	1670.298	1622.762
496.693	20.124	1670.177	1623.233
497.708	20.451	1668.963	1624.931
498.722	21.024	1667.953	1629.143
499.737	20.918	1667.291	1627.302
500.752	20.625	1665.275	1622.397
501.766	20.469	1663.498	1619.011
502.781	20.613	1662.179	1618.876
503.795	20.895	1659.951	1619.150
504.810	20.804	1659.216	1617.385
505.825	21.019	1659.345	1619.322
506.839	20.996	1658.235	1617.837
507.854	20.778	1657.119	1614.519
508.868	20.962	1655.509	1614.472
509.883	20.953	1654.272	1612.985
510.898	21.034	1653.959	1613.239
511.912	20.941	1652.149	1610.418
512.927	20.754	1650.116	1606.512
513.941	20.697	1648.754	1604.465
514.956	20.413	1647.093	1600.033
515.971	20.398	1645.823	1598.467
516.985	20.501	1645.261	1598.679
518.000	20.808	1644.682	1600.764
519.014	20.976	1643.745	1601.208
520.029	21.214	1642.318	1601.824
521.043	21.092	1640.661	1598.892
522.058	21.012	1639.466	1596.801
523.073	21.125	1639.034	1597.231
524.087	21.577	1638.648	1600.814
525.102	21.288	1636.632	1595.997
526.116	20.880	1634.229	1589.724
527.131	20.888	1632.886	1588.299
528.146	21.285	1633.308	1592.161
529.160	21.286	1632.712	1591.394
530.175	21.491	1630.833	1591.249
531.189	21.426	1630.999	1590.626
532.204	21.472	1629.056	1588.965
533.219	21.124	1626.846	1583.442
534.233	20.941	1624.854	1579.648
535.248	21.215	1625.073	1582.168
536.262	21.563	1624.786	1584.865
537.277	21.416	1622.907	1581.505
538.292	21.100	1620.956	1576.550
539.306	20.971	1620.108	1574.366
540.321	21.147	1617.151	1572.894
541.335	21.006	1615.791	1570.106
542.350	21.108	1615.269	1570.333
543.365	21.541	1613.937	1572.761
544.379	21.418	1613.188	1570.736
545.394	21.480	1612.075	1570.026
546.408	21.287	1610.037	1566.112
547.423	20.793	1608.101	1559.594
548.438	20.776	1607.136	1558.323
549.452	21.126	1606.624	1560.786
550.467	21.302	1604.551	1560.159
551.481	21.344	1603.938	1559.756
552.496	21.395	1604.141	1560.220
553.511	21.825	1603.454	1563.220
554.525	21.656	1602.829	1560.915
555.540	21.870	1602.167	1561.994
556.554	21.891	1600.370	1560.248
557.569	21.779	1598.075	1556.826
558.583	21.460	1597.187	1552.923
559.598	21.422	1596.144	1551.384
560.613	21.563	1594.629	1550.982
561.627	21.626	1593.153	1549.921
562.642	21.782	1592.980	1550.961
563.656	22.029	1592.442	1552.440
564.671	21.963	1590.944	1550.208
565.686	21.861	1589.460	1547.678
566.700	21.699	1587.232	1543.886
567.715	21.377	1585.723	1539.378
568.729	21.316	1583.423	1536.425
569.744	21.038	1581.132	1531.569
570.759	20.972	1580.991	1530.666
571.773	21.247	1580.210	1532.147
572.788	21.464	1579.624	1533.306
573.802	21.621	1578.216	1533.138
574.817	21.897	1576.625	1533.837
575.832	22.138	1576.617	1535.763
576.846	22.119	1574.868	1533.710
577.861	21.870	1573.724	1530.233
578.875	21.847	1574.012	1530.125
579.890	22.230	1572.343	1531.670
580.905	22.164	1572.196	1530.771
581.919	22.264	1571.213	1530.500
582.934	22.389	1571.170	1531.368
583.948	22.475	1568.991	1529.813
584.963	22.130	1567.194	1524.872
585.978	21.733	1566.217	1520.273
586.992	22.030	1564.921	1521.424
588.007	22.312	1564.000	1522.797
589.021	21.449	1562.235	1513.399
590.036	20.984	1560.379	1507.376
591.051	21.491	1559.483	1510.731
592.065	21.806	1558.690	1512.518
593.080	22.098	1556.953	1513.180
594.094	22.190	1555.229	1512.114
595.109	21.720	1553.012	1505.720
596.123	21.446	1551.579	1501.788
597.138	21.909	1551.068	1505.105
598.153	22.058	1550.397	1505.562
599.167	21.920	1549.785	1503.599
600.182	22.020	1548.555	1503.086
601.196	22.244	1547.723	1504.024
602.211	22.047	1546.261	1500.732
603.226	22.295	1545.703	1502.133
604.240	22.624	1543.951	1503.076
605.255	22.689	1543.733	1503.243
606.269	22.413	1542.680	1499.673
607.284	22.289	1541.829	1497.604
608.299	22.450	1539.509	1496.546
609.313	22.240	1538.979	1494.061
610.328	22.298	1537.941	1493.365
611.342	22.354	1536.612	1492.376
612.357	22.577	1536.068	1493.572
613.372	22.549	1534.310	1491.443
614.386	22.323	1533.746	1488.791
615.401	22.690	1532.474	1490.495
616.415	22.580	1532.379	1489.296
617.430	22.703	1531.295	1489.102
618.445	22.812	1529.776	1488.373
619.459	22.646	1528.163	1485.224
620.474	22.110	1526.932	1479.313
621.488	21.595	1523.975	1471.922
622.503	21.200	1522.999	1467.465
623.518	21.896	1523.171	1473.335
624.532	22.449	1522.802	1477.459
625.547	22.588	1521.999	1477.676
626.561	22.881	1521.434	1479.420
627.576	23.124	1520.235	1480.118
628.591	22.415	1517.625	1471.450
629.605	21.984	1515.913	1465.996
630.620	21.758	1513.848	1461.925
631.634	21.443	1512.332	1457.655
632.649	21.501	1512.165	1457.804
633.663	22.000	1511.867	1461.513
634.678	22.412	1511.203	1464.140
635.693	22.819	1510.980	1467.150
636.707	23.022	1509.233	1466.973
637.722	23.287	1508.348	1468.145
638.736	23.369	1506.914	1467.262
639.751	23.093	1506.506	1464.386
640.766	23.074	1504.568	1462.173
641.780	22.917	1503.040	1459.212
642.795	22.899	1501.959	1457.835
643.809	23.133	1501.505	1459.165
644.824	23.052	1501.173	1457.992
645.839	22.862	1499.759	1454.874
646.853	23.020	1498.361	1454.651
647.868	22.949	1496.910	1452.476
648.882	22.703	1496.041	1449.426
649.897	22.978	1493.685	1449.242
650.912	22.897	1492.480	1447.230
651.926	22.830	1491.684	1445.734
652.941	22.396	1489.392	1439.772
653.955	22.069	1486.601	1434.217
654.970	21.656	1484.795	1428.916
655.985	21.605	1483.430	1427.014
656.999	21.634	1483.028	1426.700
658.014	22.033	1482.672	1429.451
659.028	22.253	1482.292	1430.707
660.043	22.499	1482.044	1432.309
661.058	22.741	1480.585	1432.706
662.072	22.821	1480.032	1432.652
663.087	22.846	1478.207	1430.918
664.101	22.735	1477.470	1429.129
665.116	22.885	1477.016	1429.739
666.131	23.087	1475.445	1429.692
667.145	23.036	1474.920	1428.597
668.160	23.358	1473.974	1430.118
669.174	23.550	1472.664	1430.236
670.189	23.335	1471.522	1427.211
671.204	23.123	1470.399	1424.237
672.218	23.097	1469.355	1422.841
673.233	23.371	1468.435	1423.997
674.247	23.555	1467.783	1424.681
675.262	23.551	1467.339	1424.047
676.276	23.454	1466.205	1421.995
677.291	23.444	1464.524	1420.113
678.306	23.268	1462.505	1416.567
679.320	23.080	1461.890	1414.295
680.335	23.398	1461.311	1416.121
681.349	23.575	1460.994	1417.064
682.364	23.460	1460.060	1415.066
683.379	23.424	1458.525	1413.116
684.393	23.235	1457.605	1410.542
685.408	23.350	1456.147	1409.884
686.422	23.399	1454.693	1408.697
687.437	23.456	1454.383	1408.684
688.452	23.571	1454.806	1409.845
689.466	23.466	1452.833	1406.930
690.481	23.338	1451.109	1404.073
691.495	22.880	1449.150	1398.361
692.510	22.189	1446.898	1390.530
693.525	21.792	1444.413	1384.821
694.539	22.244	1444.169	1388.008
695.554	22.971	1445.394	1394.792
696.568	23.572	1444.614	1398.636
697.583	23.655	1444.453	1398.968
698.598	23.725	1443.353	1398.289
699.612	23.835	1442.350	1398.022
700.627	23.727	1440.783	1395.483
701.641	23.558	1439.603	1392.841
702.656	23.550	1439.302	1392.319
703.671	23.736	1439.116	1393.434
704.685	23.885	1438.154	1393.513
705.700	23.626	1436.393	1389.605
706.714	23.603	1434.020	1386.957
707.729	23.393	1432.106	1383.295
708.744	23.246	1430.575	1380.499
709.758	23.156	1428.899	1378.014
710.773	22.676	1427.602	1372.843
711.787	22.449	1426.285	1369.633
712.802	22.691	1425.140	1370.259
713.816	23.067	1425.200	1373.094
714.831	23.319	1424.918	1374.619
715.846	23.538	1423.881	1375.163
716.860	23.787	1422.590	1375.690
717.875	23.928	1421.329	1375.404
718.889	23.619	1420.292	1371.837
719.904	23.550	1420.244	1371.083
720.919	23.650	1418.836	1370.336
721.933	23.994	1417.554	1371.606
722.948	23.930	1417.008	1370.418
723.962	24.101	1415.751	1370.356
724.977	24.032	1414.864	1368.799
725.992	24.179	1413.270	1368.229
727.006	23.941	1412.355	1365.349
728.021	23.988	1410.943	1364.178
729.035	24.099	1409.854	1363.814
730.050	24.062	1408.939	1362.489
731.065	23.942	1408.110	1360.595
732.079	24.147	1407.238	1361.166
733.094	24.036	1405.468	1358.438
734.108	23.886	1404.105	1355.812
735.123	23.869	1402.867	1354.321
736.138	24.125	1401.643	1354.934
737.152	23.907	1401.739	1353.198
738.167	24.175	1400.805	1354.181
739.181	24.238	1399.684	1353.420
740.196	24.214	1398.602	1352.025
741.211	24.110	1398.208	1350.696
742.225	24.030	1397.211	1348.961
743.240	24.148	1395.181	1347.733
744.254	24.205	1393.463	1346.347
745.269	24.034	1393.559	1344.982
746.284	23.967	1392.230	1343.031
747.298	23.765	1390.947	1340.095
748.313	23.485	1388.072	1335.050
749.327	22.959	1386.982	1329.865
750.342	22.291	1385.673	1323.395
751.356	22.032	1383.923	1319.615
752.371	22.295	1383.628	1321.157
753.386	23.342	1384.127	1329.382
754.400	23.913	1384.452	1333.835
755.415	24.224	1383.288	1334.902
756.429	24.266	1382.388	1334.189
757.444	24.161	1381.006	1331.903
758.459	24.273	1380.033	1331.646
759.473	24.392	1379.663	1332.025
760.488	24.291	1378.267	1329.759
761.502	24.340	1376.939	1328.688
762.517	24.380	1374.631	1326.601
763.532	23.931	1373.893	1322.376
764.546	23.820	1372.010	1319.573
765.561	23.119	1370.613	1312.844
766.575	22.517	1368.642	1306.313
767.590	22.383	1367.610	1304.172
768.605	22.978	1367.611	1308.453
769.619	23.465	1367.047	1311.375
770.634	23.900	1366.272	1313.709
771.648	24.302	1365.604	1315.887
772.663	24.329	1365.738	1316.061
773.678	24.577	1363.925	1315.989
774.692	24.317	1363.998	1313.980
775.707	24.324	1363.677	1313.568
776.721	24.432	1362.955	1313.513
777.736	24.473	1361.486	1312.243
778.751	24.459	1360.489	1311.019
779.765	24.325	1359.316	1308.744
780.780	24.412	1358.358	1308.306
781.794	24.416	1357.394	1307.250
782.809	24.318	1355.928	1304.965
783.824	24.159	1354.803	1302.551
784.838	23.609	1351.981	1295.652
785.853	22.716	1350.348	1287.380
786.867	22.999	1350.394	1289.348
787.882	23.369	1350.525	1292.033
788.897	23.730	1349.548	1293.586
789.911	23.955	1349.198	1294.741
790.926	23.981	1348.740	1294.333
791.940	24.175	1347.519	1294.430
792.955	24.386	1345.788	1294.148
793.969	24.396	1345.076	1293.379
794.984	24.416	1344.797	1293.108
795.999	24.470	1343.562	1292.151
797.013	24.676	1341.272	1291.294
798.028	24.548	1340.401	1289.371
799.042	24.525	1340.131	1288.790
800.057	24.549	1339.302	1288.011
801.072	24.694	1337.475	1287.151
802.086	24.599	1336.498	1285.370
803.101	24.653	1335.677	1284.815
804.115	24.739	1334.472	1284.124
805.130	24.648	1333.886	1282.754
806.145	24.640	1332.729	1281.430
807.159	24.571	1331.249	1279.355
808.174	24.490	1329.618	1277.051
809.188	24.302	1327.549	1273.561
810.203	23.975	1326.231	1269.800
811.218	23.590	1324.326	1265.063
812.232	23.173	1322.430	1260.116
813.247	22.923	1321.031	1256.847
814.261	23.490	1322.249	1261.914
815.276	24.074	1321.661	1265.376
816.291	24.431	1320.649	1266.801
817.305	24.666	1319.982	1267.683
818.320	24.693	1318.719	1266.512
819.334	24.628	1317.653	1264.872
820.349	24.708	1316.393	1264.083
821.364	24.802	1314.779	1263.046
822.378	24.820	1313.208	1261.513
823.393	24.657	1311.674	1258.741
824.407	24.901	1310.877	1259.546
825.422	24.708	1310.643	1257.805
826.437	24.566	1309.707	1255.752
827.451	24.357	1306.902	1251.443
828.466	23.500	1304.364	1242.827
829.480	23.157	1302.274	1238.277
830.495	23.626	1301.403	1240.592
831.509	23.928	1301.997	1243.137
832.524	24.387	1301.540	1245.774
833.539	24.542	1300.446	1245.660
834.553	24.694	1299.263	1245.444
835.568	24.824	1298.045	1245.034
836.582	24.867	1296.916	1244.106
837.597	24.864	1296.028	1243.083
838.612	24.636	1294.795	1240.165
839.626	24.429	1293.168	1237.016
840.641	24.221	1291.897	1234.205
841.655	23.812	1290.980	1230.331
842.670	23.128	1288.724	1223.282
843.685	22.621	1286.920	1217.905
844.699	23.486	1286.725	1223.575
845.714	24.119	1286.286	1227.397
846.728	24.261	1286.121	1228.082
847.743	24.499	1285.549	1229.032
848.758	24.735	1284.021	1229.052
849.772	24.829	1283.069	1228.648
850.787	24.719	1282.311	1227.014
851.801	24.761	1281.502	1226.384
852.816	24.590	1279.830	1223.461
853.831	24.659	1277.586	1221.639
854.845	24.517	1276.187	1219.183
855.860	24.298	1274.437	1215.864
856.874	24.238	1273.369	1214.291
857.889	23.923	1271.191	1209.910
858.904	23.594	1268.817	1205.264
859.918	23.124	1266.875	1200.070
860.933	22.848	1265.939	1197.157
861.947	23.378	1266.353	1201.020
862.962	23.768	1265.675	1202.890
863.977	23.880	1264.313	1202.206
864.991	24.186	1264.463	1204.289
866.006	24.156	1264.900	1204.355
867.020	24.590	1263.518	1205.838
868.035	24.765	1262.002	1205.435
869.049	24.875	1261.046	1205.120
870.064	24.826	1260.797	1204.405
871.079	24.777	1259.563	1202.753
872.093	24.578	1258.745	1200.486
873.108	24.514	1257.679	1198.890
874.122	24.267	1255.531	1195.040
875.137	23.760	1254.437	1190.441
876.152	23.524	1253.578	1187.892
877.166	23.890	1252.328	1189.024
878.181	24.149	1251.298	1189.647
879.195	24.388	1251.599	1191.396
880.210	24.639	1250.872	1192.241
881.225	24.673	1250.143	1191.636
882.239	24.636	1249.266	1190.405
883.254	24.950	1247.990	1191.145
884.268	24.778	1246.810	1188.730
885.283	24.871	1245.298	1187.765
886.298	24.834	1243.615	1185.772
887.312	24.838	1243.079	1185.147
888.327	24.842	1242.043	1184.047
889.341	24.755	1240.324	1181.685
890.356	24.701	1239.593	1180.490
891.371	24.687	1239.376	1180.051
892.385	24.477	1238.910	1178.069
893.400	24.330	1237.747	1175.849
894.414	24.255	1235.867	1173.429
895.429	23.868	1233.008	1168.018
896.444	23.070	1230.337	1160.084
897.458	22.425	1229.662	1155.062
898.473	22.968	1230.112	1158.925
899.487	23.650	1230.566	1163.711
900.502	24.341	1229.457	1167.065
901.517	24.393	1228.666	1166.521
902.531	24.493	1227.587	1166.009
903.546	24.785	1227.121	1167.342
904.560	24.703	1226.261	1165.847
905.575	24.771	1225.468	1165.401
906.589	24.732	1224.542	1164.124
907.604	24.587	1223.400	1161.952
