DTS Sentinel unit serial number:	SN409020Multiplexer serial number:	ORYXHardware model number:	OX4-SRSoftware version number:	ORYX F/W v3.00 Oryx Data Collector v3.7.2.0data status	okinstallation	HaddamTimeLapsedifferential loss correction	single-endedforward channel	channel 3reverse channel	N/Adate	2011/06/21time	14:21:17forward acquisition time	30.00reverse acquisition time	0.00gamma	498.7831k internal	0.1834k external	0.1834temperature offset calibration	1.0074default loss term (dB/km)	0.3790temperature slope calibration	1.3530multiplexer offset coefficient	1.0000multiplexer slope coefficient	1.0000fibre end	0.00T internal ref (°C)	38.75T ext. ref 1 (°C)	29.94T ext. ref 2 (°C)	0.25length (m)	temperature (°C)	Stokes	anti-Stokes-747.200	-131.825	0.448	0.074
-746.185	-97.170	-0.111	-0.037
-745.171	-200.000	0.024	0.185
-744.156	46.659	0.042	0.050
-743.142	24.443	-0.508	-0.533
-742.127	-103.691	0.119	0.035
-741.112	800.000	-0.064	-0.240
-740.098	424.731	-0.217	0.595
-739.083	-200.000	0.054	-0.514
-738.069	26.106	0.268	0.283
-737.054	-86.758	0.214	-0.082
-736.039	312.406	-0.097	-0.231
-735.025	-75.557	0.158	0.071
-734.010	-6.318	0.163	-0.141
-732.996	630.583	0.232	-0.747
-731.981	-129.472	0.427	-0.074
-730.966	-59.372	0.383	0.208
-729.952	-134.016	-0.596	-0.093
-728.937	-63.813	-0.357	-0.185
-727.923	215.748	-0.164	-0.332
-726.908	503.744	0.086	-0.255
-725.894	-4.431	0.736	-0.645
-724.879	400.754	0.113	-0.301
-723.864	-70.273	-0.204	0.098
-722.850	-23.670	-0.272	-0.207
-721.835	82.041	-0.086	-0.118
-720.821	-200.000	-0.033	-0.381
-719.806	-65.851	0.323	0.163
-718.791	-200.000	0.026	-0.436
-717.777	185.181	-0.032	0.061
-716.762	81.816	0.220	-0.303
-715.748	206.118	0.241	0.477
-714.733	320.599	-0.125	0.302
-713.718	-200.000	-0.010	0.157
-712.704	800.000	0.090	-0.490
-711.689	-87.344	0.234	-0.089
-710.675	66.605	0.324	-0.418
-709.660	-200.000	0.023	-0.386
-708.645	-132.491	0.501	-0.081
-707.631	-56.719	-0.155	-0.087
-706.616	-36.707	-0.232	-0.158
-705.602	-20.327	-0.046	0.036
-704.587	-3.434	-0.223	-0.196
-703.572	-27.532	0.289	-0.212
-702.558	800.000	-0.075	0.331
-701.543	-52.791	-0.051	-0.030
-700.529	800.000	-0.122	0.439
-699.514	24.793	0.100	-0.105
-698.499	-5.121	-0.426	-0.370
-697.485	-171.168	-0.511	-0.021
-696.470	-200.000	0.007	-0.110
-695.456	243.582	0.285	0.606
-694.441	-33.403	-0.299	0.209
-693.426	-38.913	-0.208	0.138
-692.412	-26.097	0.184	0.136
-691.397	-152.854	-0.319	-0.028
-690.383	-200.000	-0.065	-0.528
-689.368	85.094	0.253	-0.352
-688.354	363.816	0.158	0.403
-687.339	295.485	0.052	-0.121
-686.324	800.000	0.018	-0.063
-685.310	-65.866	-0.266	0.134
-684.295	-125.777	-0.338	0.064
-683.281	-120.168	0.282	0.061
-682.266	17.444	-0.223	-0.225
-681.251	186.895	-0.171	-0.324
-680.237	251.676	-0.193	-0.418
-679.222	-86.252	-0.186	0.072
-678.208	-200.000	0.032	0.207
-677.193	16.084	0.300	-0.299
-676.178	-200.000	-0.024	-0.435
-675.164	-13.093	-0.080	0.066
-674.149	-112.217	-0.288	-0.073
-673.135	86.065	0.238	0.331
-672.120	-20.199	-0.106	-0.083
-671.105	-25.260	-0.570	0.426
-670.091	8.682	0.189	-0.180
-669.076	190.232	0.188	-0.358
-668.062	-137.049	-0.211	-0.030
-667.047	-52.086	0.041	-0.024
-666.032	-21.710	-0.309	-0.237
-665.018	-140.537	-0.480	0.062
-664.003	-51.526	-0.246	-0.145
-662.989	-200.000	0.015	-0.342
-661.974	215.101	0.127	0.255
-660.959	-9.236	-0.344	0.291
-659.945	-22.749	-0.123	-0.094
-658.930	2.693	-0.435	-0.399
-657.916	-77.019	-0.397	-0.174
-656.901	174.145	0.122	-0.223
-655.886	-200.000	0.077	-0.489
-654.872	29.259	-0.088	0.094
-653.857	134.501	-0.073	0.120
-652.843	27.287	0.168	-0.178
-651.828	87.104	0.185	-0.258
-650.814	-200.000	-0.081	0.544
-649.799	57.443	-0.198	0.245
-648.784	12.326	0.406	-0.395
-647.770	-71.210	0.302	0.143
-646.755	100.555	0.161	-0.237
-645.741	-20.131	-0.077	0.060
-644.726	-147.736	-0.076	-0.008
-643.711	-200.000	0.010	0.315
-642.697	-200.000	0.025	-0.206
-641.682	40.305	0.174	0.198
-640.668	800.000	0.099	-0.377
-639.653	-200.000	-0.034	-0.337
-638.638	800.000	0.060	-0.258
-637.624	-117.728	0.324	0.073
-636.609	-115.390	-0.396	-0.094
-635.595	-28.646	-0.454	-0.329
-634.580	-110.343	-0.197	0.051
-633.565	-76.660	0.241	0.106
-632.551	800.000	0.152	0.632
-631.536	-161.170	0.227	-0.015
-630.522	247.663	-0.047	-0.101
-629.507	129.885	0.326	0.527
-628.492	-75.074	-0.148	-0.067
-627.478	99.727	-0.063	0.092
-626.463	-200.000	-0.001	-0.051
-625.449	21.231	0.212	0.217
-624.434	-167.435	-0.471	-0.023
-623.419	-66.830	-0.305	-0.152
-622.405	-76.885	-0.320	-0.141
-621.390	800.000	-0.010	-0.048
-620.376	-82.237	0.138	0.057
-619.361	158.275	0.129	0.227
-618.346	-76.733	-0.096	0.042
-617.332	-35.250	0.127	0.087
-616.317	-127.728	0.642	0.116
-615.303	23.527	-0.305	0.317
-614.288	74.893	0.349	0.465
-613.273	-171.076	0.330	-0.014
-612.259	52.410	0.241	-0.290
-611.244	800.000	-0.010	-0.058
-610.230	-58.791	-0.405	0.220
-609.215	-99.298	-0.343	-0.109
-608.201	-200.000	-0.043	0.689
-607.186	800.000	0.057	0.269
-606.171	-126.144	-0.222	-0.042
-605.157	-176.928	-0.329	-0.010
-604.142	-33.873	-0.314	0.218
-603.128	-123.378	0.353	0.070
-602.113	-200.000	0.002	0.145
-601.098	-200.000	-0.050	-0.461
-600.084	-51.076	0.562	0.332
-599.069	-164.881	-0.416	0.023
-598.055	-99.795	-0.280	0.088
-597.040	92.973	-0.204	-0.291
-596.025	36.013	-0.255	-0.284
-595.011	679.700	0.098	-0.324
-593.996	-178.177	-0.420	0.012
-592.982	419.055	0.111	-0.300
-591.967	232.498	0.182	-0.379
-590.952	-143.512	-0.307	0.036
-589.938	-200.000	-0.020	0.740
-588.923	-51.354	-0.120	-0.071
-587.909	800.000	0.039	0.201
-586.894	-132.130	-0.366	0.059
-585.879	9.529	-0.438	0.418
-584.865	-85.562	-0.142	0.055
-583.850	800.000	-0.069	0.291
-582.836	-154.785	-0.103	0.008
-581.821	-200.000	-0.017	0.186
-580.806	-96.906	0.176	-0.058
-579.792	22.502	-0.070	-0.072
-578.777	-178.085	-0.283	-0.008
-577.763	277.829	0.154	0.346
-576.748	-132.708	-0.182	-0.029
-575.733	104.082	-0.191	-0.284
-574.719	-29.154	-0.065	-0.047
-573.704	-171.821	-0.120	-0.005
-572.690	800.000	-0.040	-0.153
-571.675	-85.054	-0.363	-0.142
-570.661	209.071	0.237	-0.469
-569.646	359.006	-0.118	-0.297
-568.631	-200.000	-0.014	0.253
-567.617	-200.000	-0.024	0.482
-566.602	-127.614	-0.110	0.020
-565.588	458.708	-0.104	-0.294
-564.573	-34.922	-0.236	-0.162
-563.558	-135.114	0.336	0.050
-562.544	-200.000	-0.027	0.277
-561.529	-148.280	-0.515	-0.053
-560.515	-7.669	0.376	0.320
-559.500	25.462	-0.153	0.161
-558.485	800.000	0.109	-0.530
-557.471	800.000	0.072	-0.324
-556.456	86.767	-0.139	0.193
-555.442	-200.000	0.021	0.190
-554.427	302.063	0.095	0.222
-553.412	447.887	-0.060	0.167
-552.398	-96.374	0.462	0.153
-551.383	-56.629	0.631	0.351
-550.369	-168.951	0.477	-0.022
-549.354	-99.952	0.353	0.110
-548.339	-167.626	0.517	0.025
-547.325	800.000	-0.037	0.144
-546.310	-19.208	-0.287	-0.224
-545.296	127.573	-0.063	0.102
-544.281	-200.000	0.005	0.290
-543.266	-175.455	0.276	0.009
-542.252	177.790	-0.068	-0.125
-541.237	-89.901	-0.360	0.132
-540.223	-51.751	0.484	-0.283
-539.208	-47.116	0.008	-0.005
-538.193	453.167	-0.077	-0.214
-537.179	16.010	-0.357	-0.353
-536.164	-200.000	0.088	-0.504
-535.150	632.220	0.138	0.443
-534.135	224.267	-0.075	0.153
-533.121	60.302	-0.348	-0.433
-532.106	317.086	0.152	-0.364
-531.091	-88.138	-0.279	-0.105
-530.077	-200.000	0.000	0.148
-529.062	-25.580	-0.314	0.233
-528.048	-34.014	-0.125	0.086
-527.033	154.055	0.189	0.327
-526.018	-160.771	-0.380	0.025
-525.004	800.000	-0.046	0.233
-523.989	-117.754	0.072	0.016
-522.975	87.128	-0.304	-0.424
-521.960	123.116	0.321	-0.506
-520.945	-92.272	-0.497	-0.175
-519.931	216.823	0.168	-0.338
-518.916	-90.834	-0.283	-0.102
-517.902	-83.916	-0.301	0.120
-516.887	-65.831	-0.500	0.251
-515.872	192.229	0.061	0.115
-514.858	-35.820	0.405	0.275
-513.843	-29.113	-0.353	0.254
-512.829	-59.788	0.103	0.055
-511.814	72.519	-0.171	-0.224
-510.799	9.542	0.126	-0.120
-509.785	265.910	0.135	0.298
-508.770	265.449	0.140	-0.309
-507.756	15.406	-0.122	-0.120
-506.741	-200.000	-0.045	0.421
-505.726	-149.618	-0.115	0.011
-504.712	-200.000	0.074	0.437
-503.697	217.067	0.176	0.353
-502.683	567.567	0.133	0.407
-501.668	-200.000	0.050	-0.522
-500.653	26.995	-0.083	-0.087
-499.639	-114.588	0.229	-0.055
-498.624	-200.000	-0.009	-0.127
-497.610	800.000	-0.044	0.158
-496.595	-178.984	-0.578	0.016
-495.581	-134.884	-0.508	-0.076
-494.566	-84.876	0.446	-0.175
-493.551	58.279	-0.312	-0.385
-492.537	-19.586	-0.110	-0.086
-491.522	-12.784	0.344	-0.281
-490.508	-138.883	0.455	-0.062
-489.493	-116.531	-0.511	0.117
-488.478	157.192	-0.112	-0.195
-487.464	7.297	0.312	0.292
-486.449	-200.000	-0.006	0.539
-485.435	-197.608	-0.360	-0.003
-484.420	-77.201	0.359	0.156
-483.405	-200.000	-0.013	0.108
-482.391	-143.276	0.346	-0.041
-481.376	-200.000	-0.026	0.306
-480.362	-200.000	-0.010	0.126
-479.347	34.398	0.196	-0.215
-478.332	113.747	0.074	-0.112
-477.318	-114.475	0.408	0.098
-476.303	-200.000	0.022	-0.398
-475.289	-72.902	0.198	0.091
-474.274	144.907	-0.100	-0.168
-473.259	124.208	0.143	0.226
-472.245	-117.967	-0.260	0.058
-471.230	-200.000	0.003	0.467
-470.216	616.859	0.110	0.347
-469.201	-53.660	0.034	-0.020
-468.186	-200.000	0.028	-0.183
-467.172	-83.551	-0.207	0.083
-466.157	25.683	0.294	-0.307
-465.143	303.242	0.174	-0.405
-464.128	-200.000	-0.028	-0.166
-463.113	-0.427	0.306	0.273
-462.099	-118.184	0.074	-0.016
-461.084	643.947	-0.194	-0.625
-460.070	-186.196	0.060	0.001
-459.055	-120.241	0.319	-0.068
-458.040	-85.937	-0.079	-0.031
-457.026	133.800	-0.092	-0.150
-456.011	-82.727	0.099	0.040
-454.997	-20.095	0.210	-0.162
-453.982	635.145	-0.187	-0.597
-452.968	188.494	0.259	-0.488
-451.953	800.000	0.016	-0.087
-450.938	-2.228	-0.168	0.148
-449.924	-158.564	0.378	-0.027
-448.909	-161.756	0.459	-0.029
-447.895	-28.924	0.231	-0.166
-446.880	-19.593	0.262	0.203
-445.865	-155.321	-0.323	-0.026
-444.851	159.830	-0.099	0.174
-443.836	800.000	-0.036	0.172
-442.822	-138.834	-0.530	0.072
-441.807	197.880	-0.099	0.191
-440.792	80.109	-0.089	0.120
-439.778	-13.055	-0.219	0.178
-438.763	270.945	0.076	0.168
-437.749	194.607	0.203	0.386
-436.734	174.951	0.100	0.181
-435.719	-88.769	0.383	0.142
-434.705	349.943	-0.134	-0.334
-433.690	-194.065	-0.465	0.005
-432.676	191.925	0.138	0.261
-431.661	236.074	0.117	-0.243
-430.646	160.686	0.122	0.214
-429.632	104.287	-0.269	-0.397
-428.617	-27.749	-0.171	-0.124
-427.603	-113.900	-0.051	0.012
-426.588	800.000	-0.019	-0.076
-425.573	800.000	-0.159	-0.599
-424.559	533.151	-0.118	-0.353
-423.544	800.000	-0.027	0.133
-422.530	-200.000	-0.020	-0.220
-421.515	43.772	-0.233	-0.267
-420.500	800.000	-0.127	-0.533
-419.486	120.449	0.145	0.226
-418.471	-200.000	-0.080	0.444
-417.457	1.968	0.184	-0.166
-416.442	171.037	0.139	-0.250
-415.428	-75.556	0.636	0.282
-414.413	55.228	0.198	-0.240
-413.398	-131.881	-0.258	0.042
-412.384	800.000	-0.111	-0.503
-411.369	800.000	-0.096	-0.416
-410.355	-90.308	0.198	-0.072
-409.340	-200.000	0.006	-0.339
-408.325	-76.599	-0.415	0.181
-407.311	544.174	0.058	0.175
-406.296	-93.803	-0.657	-0.225
-405.282	194.935	0.108	-0.205
-404.267	16.372	0.562	0.555
-403.252	21.007	-0.277	0.281
-402.238	357.191	0.068	0.169
-401.223	171.002	0.362	0.652
-400.209	-169.660	-0.234	0.010
-399.194	-162.965	0.362	0.022
-398.179	449.972	-0.037	0.103
-397.165	46.086	0.296	-0.343
-396.150	-200.000	-0.020	0.203
-395.136	-40.642	-0.410	0.265
-394.121	29.409	-0.129	0.137
-393.106	287.395	0.022	-0.049
-392.092	-70.091	-0.232	-0.110
-391.077	-150.018	-0.805	0.077
-390.063	800.000	-0.018	-0.088
-389.048	-146.532	0.500	-0.054
-388.033	-52.151	-0.317	0.183
-387.019	45.065	-0.374	0.431
-386.004	-98.914	0.133	0.042
-384.990	-122.436	-0.018	-0.004
-383.975	-58.876	-0.322	0.174
-382.960	-154.645	-0.063	-0.005
-381.946	497.515	0.064	-0.185
-380.931	-101.760	0.667	-0.201
-379.917	-135.207	0.137	0.020
-378.902	-111.028	-0.379	0.097
-377.888	211.043	-0.078	0.153
-376.873	-78.365	-0.399	-0.170
-375.858	-42.525	0.284	-0.180
-374.844	-190.085	0.550	-0.007
-373.829	67.458	0.422	0.539
-372.815	388.886	0.125	-0.325
-371.800	-25.279	-0.532	0.393
-370.785	444.991	0.074	0.203
-369.771	-75.499	0.734	0.325
-368.756	-200.000	0.044	0.412
-367.742	-55.274	0.308	-0.173
-366.727	178.784	0.040	0.073
-365.712	6.007	-0.201	0.186
-364.698	-99.012	-0.248	-0.078
-363.683	100.093	-0.114	-0.166
-362.669	800.000	-0.030	-0.163
-361.654	60.519	0.366	-0.453
-360.639	-110.810	-0.177	-0.045
-359.625	758.466	-0.064	-0.219
-358.610	37.250	-0.258	-0.286
-357.596	43.066	-0.405	-0.461
-356.581	55.098	-0.068	-0.082
-355.566	362.255	0.129	-0.324
-354.552	33.202	-0.191	0.207
-353.537	115.080	0.105	-0.160
-352.523	800.000	0.094	-0.400
-351.508	-64.472	-0.493	-0.249
-350.493	-200.000	-0.065	-0.597
-349.479	28.098	0.406	0.428
-348.464	-161.271	-0.450	-0.029
-347.450	-78.931	-0.272	-0.115
-346.435	-41.864	-0.371	0.237
-345.420	-197.877	-0.596	-0.004
-344.406	-134.922	0.289	0.043
-343.391	590.834	0.057	-0.175
-342.377	-200.000	-0.040	-0.262
-341.362	-41.739	0.195	-0.125
-340.348	-84.311	-0.202	-0.079
-339.333	-3.680	-0.323	0.280
-338.318	187.770	0.055	0.103
-337.304	-200.000	0.016	0.090
-336.289	-182.448	-0.617	-0.014
-335.275	-200.000	-0.010	0.215
-334.260	4.582	-0.359	-0.329
-333.245	-20.389	-0.314	-0.241
-332.231	-200.000	0.010	0.478
-331.216	52.273	-0.170	0.202
-330.202	-136.608	0.633	0.091
-329.187	-125.563	0.620	0.117
-328.172	800.000	0.067	-0.289
-327.158	154.434	-0.037	-0.064
-326.143	243.017	0.091	-0.191
-325.129	-3.096	0.063	-0.055
-324.114	13.220	0.137	0.132
-323.099	800.000	-0.028	-0.129
-322.085	-13.473	-0.229	-0.185
-321.070	245.102	0.165	0.347
-320.056	-31.576	-0.110	0.077
-319.041	-127.457	-0.516	0.093
-318.026	-14.314	0.310	0.248
-317.012	800.000	0.118	0.438
-315.997	306.244	0.173	0.402
-314.983	800.000	0.068	-0.267
-313.968	235.069	-0.139	0.288
-312.953	-43.138	-0.276	0.174
-311.939	-200.000	-0.006	-0.431
-310.924	115.041	0.094	0.143
-309.910	162.123	0.077	0.135
-308.895	-61.295	-0.422	0.221
-307.880	-57.879	-0.213	-0.116
-306.866	-200.000	0.008	0.242
-305.851	800.000	0.122	0.452
-304.837	-56.249	-0.358	-0.198
-303.822	366.351	0.023	0.058
-302.807	124.070	-0.094	0.148
-301.793	16.708	-0.069	-0.068
-300.778	-47.782	-0.452	0.272
-299.764	94.936	0.182	0.259
-298.749	-23.917	-0.132	-0.099
-297.735	-98.333	-0.409	-0.130
-296.720	2.750	-0.534	0.483
-295.705	-114.821	0.756	0.178
-294.691	-179.350	0.430	0.012
-293.676	-115.443	-0.382	0.089
-292.662	32.443	-0.219	0.235
-291.647	291.215	0.221	-0.504
-290.632	-95.760	0.367	-0.122
-289.618	-200.000	0.010	0.080
-288.603	800.000	0.050	-0.222
-287.589	-90.287	-0.381	0.137
-286.574	-57.371	-0.453	-0.247
-285.559	-107.034	0.127	-0.035
-284.545	35.825	0.346	0.379
-283.530	-200.000	0.006	-0.127
-282.516	-35.135	0.288	-0.195
-281.501	178.286	0.085	0.154
-280.486	5.658	0.146	0.134
-279.472	-64.958	0.303	-0.152
-278.457	800.000	-0.070	-0.294
-277.443	-102.629	-0.328	-0.097
-276.428	-131.091	0.658	0.108
-275.413	-78.731	0.329	-0.139
-274.399	-200.000	-0.044	0.272
-273.384	-85.082	-0.588	0.228
-272.370	204.188	0.197	0.381
-271.355	-14.884	-0.249	0.199
-270.340	90.648	0.223	-0.311
-269.326	-189.201	0.211	0.003
-268.311	800.000	0.106	-0.386
-267.297	-200.000	0.020	0.542
-266.282	-136.798	0.291	0.041
-265.267	800.000	-0.043	-0.204
-264.253	146.430	-0.199	-0.333
-263.238	-200.000	-0.013	0.376
-262.224	65.050	-0.114	-0.143
-261.209	26.945	0.181	0.189
-260.195	82.712	0.151	-0.204
-259.180	5.081	0.376	-0.344
-258.165	-94.573	-0.269	0.091
-257.151	-200.000	0.028	0.211
-256.136	-38.380	-0.271	-0.178
-255.122	-200.000	0.022	0.122
-254.107	96.269	0.040	-0.056
-253.092	72.397	-0.189	-0.245
-252.078	45.089	-0.319	0.366
-251.063	25.645	0.469	0.486
-250.049	800.000	0.072	-0.303
-249.034	-135.475	0.515	0.076
-248.019	242.591	0.100	-0.210
-247.005	-200.000	0.005	0.041
-245.990	-42.422	-0.133	-0.084
-244.976	4.419	0.108	0.098
-243.961	-41.837	0.535	0.340
-242.946	-37.774	-0.170	-0.112
-241.932	-200.000	-0.038	0.238
-240.917	67.056	0.215	0.272
-239.903	-200.000	0.022	0.129
-238.888	800.000	-0.053	0.293
-237.873	800.000	0.007	-0.033
-236.859	131.958	0.268	-0.430
-235.844	264.427	-0.113	0.246
-234.830	102.314	0.066	-0.096
-233.815	176.135	-0.276	-0.501
-232.800	-15.017	-0.295	-0.235
-231.786	-200.000	-0.014	-0.177
-230.771	-82.267	0.429	-0.173
-229.757	20.599	0.180	-0.181
-228.742	-52.660	-0.260	0.149
-227.727	5.390	0.284	-0.260
-226.713	163.686	-0.569	-0.997
-225.698	-200.000	0.003	-0.028
-224.684	590.477	0.069	-0.213
-223.669	-199.370	0.169	0.001
-222.655	280.590	0.175	-0.390
-221.640	-149.348	0.151	0.015
-220.625	-31.725	0.493	0.343
-219.611	-101.369	-0.248	-0.075
-218.596	-36.792	0.287	-0.191
-217.582	-200.000	-0.021	-0.198
-216.567	-26.042	0.233	0.170
-215.552	-200.000	0.045	-0.708
-214.538	800.000	0.023	-0.103
-213.523	45.549	-0.167	0.191
-212.509	-11.467	-0.178	-0.146
-211.494	555.770	0.164	0.494
-210.479	-137.683	-0.060	0.008
-209.465	-15.951	0.126	0.099
-208.450	344.697	0.133	-0.325
-207.436	-94.407	0.247	0.083
-206.421	41.327	0.229	0.257
-205.406	40.694	-0.182	0.204
-204.392	-103.598	-0.519	-0.150
-203.377	184.986	0.051	0.094
-202.363	117.386	0.124	0.189
-201.348	10.861	0.371	-0.352
-200.333	-109.572	-0.194	0.050
-199.319	29.107	-0.254	-0.268
-198.304	189.229	0.115	-0.214
-197.290	247.157	0.160	0.337
-196.275	14.261	0.324	-0.314
-195.260	-67.601	-0.433	0.210
-194.246	-4.124	-0.194	-0.167
-193.231	452.302	-0.067	-0.184
-192.217	19.373	-0.109	0.109
-191.202	800.000	0.068	-0.263
-190.187	9.488	0.114	0.107
-189.173	-142.465	0.309	0.037
-188.158	34.255	0.311	-0.336
-187.144	-200.000	-0.032	0.283
-186.129	55.140	0.307	-0.369
-185.114	-137.211	0.074	0.010
-184.100	-10.552	-0.085	0.070
-183.085	-64.053	0.220	0.111
-182.071	-200.000	0.047	0.378
-181.056	800.000	0.141	0.494
-180.042	-95.252	0.147	-0.049
-179.027	-118.135	-0.185	0.041
-178.012	800.000	-0.134	-0.491
-176.998	381.819	0.064	0.164
-175.983	-124.143	-0.147	-0.028
-174.969	120.159	0.290	0.447
-173.954	-200.000	-0.083	-0.458
-172.939	163.701	-0.395	-0.691
-171.925	190.063	-0.174	-0.326
-170.910	800.000	-0.041	0.178
-169.896	583.458	-0.046	-0.140
-168.881	-100.657	0.535	-0.163
-167.866	-142.592	0.345	0.041
-166.852	-166.531	-0.273	-0.014
-165.837	-53.236	0.320	0.182
-164.823	-33.785	0.072	0.049
-163.808	-150.325	0.182	-0.017
-162.793	127.282	-0.142	0.225
-161.779	800.000	0.121	0.455
-160.764	57.709	-0.168	0.204
-159.750	-56.092	0.327	-0.180
-158.735	204.689	-0.158	0.304
-157.720	-151.257	0.390	0.036
-156.706	-119.798	-0.227	0.048
-155.691	14.530	-0.212	0.205
-154.677	-200.000	-0.001	-0.073
-153.662	-120.611	0.265	0.055
-152.647	-51.451	0.386	-0.223
-151.633	-63.362	-0.369	-0.188
-150.618	-112.099	-0.139	0.034
-149.604	260.590	0.071	-0.153
-148.589	-183.069	0.317	0.007
-147.574	-133.182	0.135	-0.021
-146.560	2.015	-0.205	0.183
-145.545	507.395	0.027	-0.079
-144.531	209.303	-0.278	0.542
-143.516	217.401	0.142	-0.282
-142.502	499.521	0.062	0.177
-141.487	470.323	0.162	0.455
-140.472	247.549	-0.103	-0.216
-139.458	315.171	0.200	0.468
-138.443	-99.061	0.045	0.014
-137.429	138.402	-0.134	0.219
-136.414	-18.351	-0.303	0.234
-135.399	-192.454	-0.313	0.004
-134.385	464.411	0.047	0.132
-133.370	-115.487	-0.255	-0.059
-132.356	-83.859	0.054	-0.021
-131.341	126.513	0.125	-0.197
-130.326	-111.774	-0.262	0.065
-129.312	-200.000	0.002	-0.230
-128.297	58.960	-0.164	0.200
-127.283	88.167	-0.249	-0.343
-126.268	-22.479	-0.088	0.066
-125.253	4.502	-0.251	0.228
-124.239	-200.000	0.032	0.278
-123.224	-27.089	-0.256	-0.184
-122.210	114.472	0.214	-0.323
-121.195	-8.587	-0.214	-0.177
-120.180	240.707	-0.189	0.392
-119.166	-36.287	0.298	-0.198
-118.151	-10.924	-0.141	-0.115
-117.137	22.429	-0.182	-0.184
-116.122	14.812	0.202	-0.196
-115.107	47.065	-0.159	0.184
-114.093	-200.000	0.003	0.286
-113.078	97.330	-0.261	0.372
-112.064	208.647	-0.196	-0.382
-111.049	612.437	0.132	-0.410
-110.034	-200.000	-0.028	-0.253
-109.020	-150.766	-0.345	-0.032
-108.005	-200.000	0.065	-0.499
-106.991	12.984	0.220	0.211
-105.976	-200.000	-0.034	-0.299
-104.962	800.000	-0.119	0.453
-103.947	-88.036	0.198	0.073
-102.932	234.165	-0.181	0.370
-101.918	543.902	-0.062	-0.185
-100.903	-200.000	-0.050	0.470
-99.889	12.615	-0.461	-0.440
-98.874	0.017	-0.049	0.044
-97.859	-23.855	-0.176	-0.130
-96.845	-75.033	-0.759	-0.334
-95.830	-33.690	-0.269	0.183
-94.816	-54.026	0.615	0.345
-93.801	-200.000	-0.072	0.424
-92.786	47.896	-0.048	-0.055
-91.772	5.880	0.289	-0.264
-90.757	133.487	0.078	0.125
-89.743	-24.483	0.152	0.111
-88.728	-33.249	-0.314	-0.215
-87.713	800.000	-0.107	0.367
-86.699	-36.387	-0.506	-0.336
-85.684	-41.144	-0.354	-0.226
-84.670	-49.041	0.333	0.196
-83.655	-8.573	0.217	-0.180
-82.640	-200.000	-0.049	-0.470
-81.626	66.951	0.163	-0.206
-80.611	800.000	-0.060	-0.311
-79.597	-34.835	0.182	-0.123
-78.582	250.495	-0.277	-0.583
-77.567	-126.512	-0.294	-0.053
-76.553	150.338	-0.059	0.100
-75.538	-94.102	0.455	-0.153
-74.524	800.000	-0.033	-0.141
-73.509	725.005	-0.153	-0.508
-72.494	-61.691	-0.384	0.198
-71.480	-200.000	-0.007	0.322
-70.465	-36.455	-0.420	-0.279
-69.451	800.000	-0.085	-0.387
-68.436	-47.794	-0.191	-0.114
-67.422	-72.198	0.177	-0.081
-66.407	-186.245	0.033	0.001
-65.392	-200.000	-0.024	-0.187
-64.378	-28.552	-0.094	-0.067
-63.363	443.896	0.046	0.125
-62.349	-116.087	-0.292	-0.067
-61.334	-27.705	-1.284	-0.919
-60.319	-102.943	0.183	-0.053
-59.305	337.978	-2.188	-5.280
-58.290	-19.388	2.660	2.033
-57.276	376.646	3.892	9.858
-56.261	-200.000	10.181	185.526
-55.246	556.625	1070.915	3203.434
-54.232	73.862	2706.773	3508.434
-53.217	77.276	2668.856	3507.925
-52.203	81.306	2405.620	3213.392
-51.188	41.646	2055.304	2299.326
-50.173	42.202	1918.725	2152.451
-49.159	39.883	1907.265	2114.593
-48.144	39.342	1903.175	2104.156
-47.130	39.296	1899.988	2100.054
-46.115	39.080	1899.006	2096.575
-45.100	39.120	1897.209	2094.934
-44.086	38.994	1896.192	2092.383
-43.071	39.074	1895.182	2092.037
-42.057	38.976	1894.265	2089.895
-41.042	38.918	1892.487	2087.228
-40.027	38.981	1891.223	2086.424
-39.013	38.995	1889.320	2084.390
-37.998	39.047	1887.607	2082.973
-36.984	38.938	1887.218	2081.299
-35.969	39.010	1885.966	2080.603
-34.954	38.858	1884.425	2077.205
-33.940	38.841	1883.654	2076.086
-32.925	38.964	1881.645	2075.098
-31.911	38.874	1881.812	2074.246
-30.896	38.873	1879.783	2071.912
-29.881	38.905	1877.698	2069.876
-28.867	38.720	1877.219	2067.303
-27.852	38.807	1875.080	2065.792
-26.838	38.743	1873.632	2063.437
-25.823	38.685	1872.708	2061.720
-24.809	38.691	1871.071	2059.901
-23.794	38.677	1870.408	2058.942
-22.779	38.845	1868.184	2058.186
-21.765	38.779	1867.593	2056.755
-20.750	38.725	1866.223	2054.597
-19.736	38.802	1864.476	2053.402
-18.721	38.626	1864.586	2051.587
-17.706	38.703	1862.609	2050.144
-16.692	38.622	1861.512	2047.997
-15.677	38.698	1861.413	2048.612
-14.663	38.743	1858.638	2045.945
-13.648	38.631	1857.882	2043.854
-12.633	38.603	1856.595	2042.069
-11.619	38.650	1855.123	2040.860
-10.604	38.708	1853.581	2039.687
-9.590	38.573	1853.255	2037.834
-8.575	38.586	1852.189	2036.717
-7.560	38.603	1850.690	2035.172
-6.546	38.646	1850.068	2034.854
-5.531	38.569	1848.755	2032.523
-4.517	38.526	1848.168	2031.351
-3.502	38.653	1846.680	2030.960
-2.487	38.769	1845.593	2030.894
-1.473	38.759	1843.160	2028.030
-0.458	38.872	1823.558	2007.545
0.556	34.353	1946.622	2081.028
1.571	33.016	2160.221	2292.794
2.586	35.234	2211.422	2374.517
3.600	35.440	2215.072	2380.720
4.615	35.760	2216.105	2385.540
5.629	35.665	2213.177	2380.920
6.644	35.571	2212.078	2378.288
7.659	35.848	2209.771	2378.956
8.673	36.308	2210.018	2384.655
9.688	35.590	2211.633	2377.185
10.702	30.489	2271.200	2375.568
11.717	25.768	2331.053	2375.437
12.731	13.326	2299.490	2179.206
13.746	2.336	2270.590	2007.182
14.761	0.604	2266.293	1980.334
15.775	0.449	2263.894	1975.966
16.790	0.392	2261.946	1973.272
17.804	0.297	2260.763	1970.752
18.819	0.315	2260.147	1970.221
19.834	0.400	2258.204	1969.402
20.848	0.308	2256.954	1966.877
21.863	0.379	2255.308	1966.134
22.877	0.312	2254.584	1964.391
23.892	0.239	2252.053	1960.994
24.907	0.245	2248.958	1958.147
25.921	0.306	2247.349	1957.300
26.936	0.317	2245.015	1955.180
27.950	0.348	2241.938	1952.669
28.965	0.303	2240.842	1950.895
29.980	0.294	2239.737	1949.580
30.994	0.483	2237.695	1950.032
32.009	6.719	2258.191	2049.211
33.023	21.986	2302.615	2291.045
34.038	29.982	2320.946	2414.279
35.053	31.677	2322.054	2437.337
36.067	31.709	2319.554	2434.843
37.082	31.227	2316.371	2424.919
38.096	31.223	2315.092	2423.232
39.111	31.932	2314.104	2431.148
40.126	32.908	2317.247	2446.881
41.140	34.092	2317.711	2462.496
42.155	33.311	2312.820	2446.857
43.169	33.020	2311.403	2441.288
44.184	33.732	2310.219	2448.991
45.199	33.759	2308.077	2446.773
46.213	33.276	2305.681	2437.683
47.228	32.871	2303.513	2429.858
48.242	32.669	2301.157	2424.471
49.257	32.737	2299.479	2423.295
50.271	32.984	2298.019	2424.663
51.286	32.824	2294.886	2418.994
52.301	32.439	2292.848	2411.603
53.315	33.208	2295.210	2423.707
54.330	33.901	2295.474	2432.614
55.344	33.461	2290.159	2421.048
56.359	33.506	2286.837	2417.819
57.374	32.941	2284.160	2407.462
58.388	32.432	2280.866	2397.188
59.403	32.948	2279.370	2401.931
60.417	33.830	2278.932	2412.442
61.432	34.348	2278.612	2418.432
62.447	33.942	2274.057	2408.139
63.461	33.486	2270.424	2398.199
64.476	32.935	2268.996	2389.396
65.490	34.083	2270.890	2405.712
66.505	35.008	2272.202	2418.574
67.520	34.445	2267.753	2406.410
68.534	32.033	2258.885	2366.194
69.549	31.093	2253.824	2348.719
70.563	31.307	2252.146	2349.388
71.578	31.447	2250.733	2349.404
72.593	31.795	2249.636	2352.368
73.607	32.108	2249.304	2355.690
74.622	31.928	2247.836	2351.606
75.636	31.541	2242.803	2341.181
76.651	31.603	2241.467	2340.295
77.666	31.571	2240.495	2338.588
78.680	31.664	2237.670	2336.535
79.695	31.904	2237.456	2339.036
80.709	32.134	2236.061	2340.176
81.724	32.011	2234.100	2336.308
82.739	32.084	2231.495	2334.217
83.753	31.925	2229.456	2329.823
84.768	31.620	2227.423	2323.616
85.782	31.272	2224.427	2315.875
86.797	31.286	2222.491	2313.759
87.812	31.107	2220.207	2308.873
88.826	30.972	2217.732	2304.346
89.841	31.116	2216.033	2304.089
90.855	31.411	2215.212	2306.619
91.870	31.079	2212.693	2299.603
92.884	30.937	2210.240	2295.027
93.899	31.362	2211.090	2300.892
94.914	31.554	2211.888	2303.821
95.928	32.682	2214.611	2320.359
96.943	33.361	2212.948	2326.722
97.957	32.179	2207.227	2305.862
98.972	31.244	2202.660	2289.299
99.987	30.745	2198.010	2278.053
101.001	30.820	2195.492	2276.096
102.016	30.866	2194.232	2275.082
103.030	30.823	2192.644	2272.631
104.045	31.291	2191.915	2277.336
105.060	31.865	2190.374	2282.496
106.074	31.704	2188.640	2278.441
107.089	31.212	2185.830	2269.234
108.103	31.324	2185.499	2269.992
109.118	31.670	2185.269	2273.702
110.133	31.907	2183.680	2274.669
111.147	31.782	2181.505	2270.614
112.162	31.637	2180.710	2267.749
113.176	31.865	2177.448	2266.848
114.191	31.938	2175.154	2265.083
115.206	31.695	2174.456	2261.131
116.220	31.594	2172.714	2257.825
117.235	31.408	2169.409	2251.866
118.249	31.369	2167.636	2249.289
119.264	31.720	2166.774	2252.363
120.279	31.806	2165.363	2251.669
121.293	31.682	2163.423	2247.886
122.308	31.674	2161.750	2245.779
123.322	31.405	2159.439	2239.873
124.337	31.387	2159.373	2239.321
125.352	33.185	2165.011	2266.586
126.366	34.382	2165.252	2280.977
127.381	32.635	2156.222	2250.238
128.395	31.423	2151.311	2230.320
129.410	31.530	2149.941	2229.921
130.424	31.697	2148.529	2230.189
131.439	31.598	2147.727	2227.899
132.454	31.415	2144.971	2222.583
133.468	31.438	2142.578	2220.112
134.483	31.691	2141.306	2221.551
135.497	31.837	2139.996	2221.663
136.512	32.113	2138.610	2223.240
137.527	31.997	2135.959	2218.842
138.541	31.427	2134.036	2209.814
139.556	31.113	2132.207	2203.921
140.570	31.063	2131.512	2202.345
141.585	31.156	2128.319	2199.886
142.600	31.188	2127.967	2199.634
143.614	30.841	2126.761	2194.018
144.629	31.266	2124.507	2196.461
145.643	31.023	2122.985	2191.755
146.658	30.966	2120.530	2188.278
147.673	30.822	2118.119	2183.833
148.687	31.254	2117.529	2188.059
149.702	31.390	2117.206	2189.064
150.716	31.241	2115.343	2185.118
151.731	31.561	2115.286	2188.564
152.746	31.844	2114.792	2191.112
153.760	31.569	2114.543	2187.364
154.775	31.998	2115.226	2192.850
155.789	32.333	2112.653	2193.850
156.804	31.376	2107.190	2176.710
157.819	30.996	2103.148	2167.843
158.833	31.150	2100.563	2166.707
159.848	31.579	2099.701	2170.570
160.862	31.813	2099.272	2172.590
161.877	31.974	2098.664	2173.570
162.892	32.098	2099.346	2175.465
163.906	32.462	2097.699	2177.730
164.921	32.385	2095.130	2173.908
165.935	32.183	2092.918	2169.009
166.950	32.053	2090.142	2164.370
167.964	31.412	2087.591	2154.049
168.979	31.357	2085.439	2150.926
169.994	31.428	2084.385	2150.408
171.008	31.402	2082.745	2148.163
172.023	31.419	2081.019	2146.321
173.037	31.764	2081.617	2150.652
174.052	32.008	2079.729	2151.258
175.067	31.984	2077.858	2148.794
176.081	31.880	2076.073	2145.492
177.096	31.788	2075.320	2143.394
178.110	31.653	2072.305	2138.479
179.125	31.573	2072.577	2137.590
180.140	31.890	2072.133	2140.504
181.154	31.965	2070.508	2139.433
182.169	31.795	2069.100	2135.772
183.183	32.090	2069.099	2138.903
184.198	33.514	2070.149	2156.020
185.213	33.203	2067.415	2149.372
186.227	32.185	2063.696	2133.626
187.242	31.862	2061.775	2127.707
188.256	31.817	2059.276	2124.364
189.271	32.053	2057.495	2124.955
190.286	32.159	2057.121	2125.520
191.300	31.850	2053.715	2118.236
192.315	31.364	2051.318	2109.992
193.329	31.878	2050.391	2114.620
194.344	32.449	2050.285	2120.727
195.359	32.628	2049.835	2122.036
196.373	32.462	2047.916	2117.912
197.388	32.255	2044.119	2111.392
198.402	31.888	2040.832	2103.609
199.417	31.646	2039.214	2098.965
200.432	31.798	2037.887	2099.062
201.446	31.691	2037.713	2097.426
202.461	31.556	2034.222	2092.062
203.475	31.197	2032.397	2085.905
204.490	31.156	2030.759	2083.510
205.504	31.495	2028.411	2084.652
206.519	31.258	2025.612	2078.877
207.534	31.257	2024.461	2077.440
208.548	31.586	2023.612	2079.987
209.563	31.022	2021.000	2070.764
210.577	31.026	2021.224	2070.785
211.592	31.835	2020.993	2079.327
212.607	31.877	2019.793	2078.315
213.621	30.873	2018.476	2065.528
214.636	31.088	2017.790	2066.970
215.650	31.290	2014.801	2065.908
216.665	31.282	2012.874	2063.599
217.680	31.629	2012.498	2066.819
218.694	31.760	2011.616	2067.116
219.709	31.696	2009.580	2064.073
220.723	31.994	2009.397	2066.937
221.738	32.355	2008.346	2069.598
222.753	32.213	2006.015	2065.382
223.767	31.944	2003.227	2059.298
224.782	31.534	2000.600	2051.826
225.796	31.284	1999.621	2047.820
226.811	31.756	1999.026	2052.164
227.826	31.973	1997.789	2053.038
228.840	31.872	1996.388	2050.242
229.855	31.736	1994.228	2046.288
230.869	31.587	1991.283	2041.386
231.884	31.040	1989.720	2033.549
232.899	31.124	1989.355	2033.853
233.913	31.258	1989.755	2035.486
234.928	31.708	1988.897	2039.293
235.942	31.892	1987.266	2039.386
236.957	32.094	1985.371	2039.404
237.972	32.070	1984.983	2038.499
238.986	32.099	1983.896	2037.447
240.001	31.838	1982.025	2032.440
241.015	31.809	1980.418	2030.239
242.030	32.183	1981.173	2034.841
243.045	33.704	1983.864	2053.920
244.059	34.414	1982.270	2059.743
245.074	33.017	1976.353	2038.207
246.088	31.971	1972.163	2022.321
247.103	32.172	1970.117	2022.151
248.117	32.106	1969.212	2020.267
249.132	31.986	1967.161	2016.625
250.147	31.775	1964.237	2011.107
251.161	31.716	1963.266	2009.242
252.176	31.851	1961.700	2008.846
253.190	31.684	1959.252	2004.303
254.205	31.375	1956.916	1998.360
255.220	31.601	1955.910	1999.516
256.234	31.607	1955.169	1998.589
257.249	31.235	1953.499	1992.648
258.263	31.403	1952.890	1993.592
259.278	31.702	1952.382	1996.034
260.293	31.774	1950.859	1995.008
261.307	31.687	1948.937	1991.873
262.322	31.741	1946.595	1989.822
263.336	31.255	1944.755	1982.521
264.351	31.039	1942.251	1977.430
265.366	31.194	1942.021	1978.612
266.380	31.604	1940.737	1981.423
267.395	31.174	1938.685	1974.521
268.409	30.921	1937.453	1970.343
269.424	31.375	1936.477	1973.933
270.439	31.510	1936.761	1975.424
271.453	31.947	1937.164	1980.234
272.468	32.972	1936.939	1990.636
273.482	32.799	1934.273	1985.826
274.497	31.690	1928.791	1968.257
275.512	31.111	1925.885	1958.944
276.526	31.195	1923.524	1957.195
277.541	31.069	1921.932	1954.006
278.555	31.080	1921.086	1953.027
279.570	31.002	1918.271	1949.119
280.585	30.889	1916.629	1946.027
281.599	31.075	1915.938	1947.048
282.614	31.416	1915.687	1950.130
283.628	32.207	1915.382	1957.874
284.643	32.294	1915.542	1958.720
285.657	32.351	1913.974	1957.478
286.672	32.114	1912.432	1953.186
287.687	32.024	1909.139	1948.656
288.701	31.620	1907.493	1942.521
289.716	31.437	1906.141	1939.009
290.730	31.547	1904.874	1938.629
291.745	31.823	1904.246	1940.633
292.760	31.876	1903.747	1940.446
293.774	31.578	1902.793	1936.139
294.789	31.874	1902.102	1938.282
295.803	32.124	1900.337	1938.849
296.818	32.096	1898.412	1936.364
297.833	32.372	1898.512	1939.087
298.847	32.542	1896.683	1938.748
299.862	32.448	1896.042	1936.887
300.876	32.689	1895.929	1939.033
301.891	33.616	1896.367	1948.829
302.906	33.261	1895.114	1943.643
303.920	32.638	1891.009	1932.783
304.935	32.196	1887.372	1924.288
305.949	32.151	1886.353	1922.553
306.964	32.668	1885.513	1926.780
307.979	32.450	1882.386	1921.116
308.993	31.422	1879.091	1906.991
310.008	31.329	1877.663	1904.357
311.022	31.802	1877.506	1908.818
312.037	31.967	1876.003	1908.752
313.052	31.737	1873.488	1903.610
314.066	31.399	1871.271	1897.683
315.081	31.482	1870.422	1897.440
316.095	31.765	1868.946	1898.600
317.110	31.426	1867.961	1893.924
318.125	31.429	1866.549	1892.294
319.139	31.326	1865.883	1890.340
320.154	31.696	1865.401	1893.390
321.168	31.788	1863.331	1892.000
322.183	31.810	1861.696	1890.332
323.197	31.905	1861.718	1891.088
324.212	31.936	1858.439	1887.852
325.227	31.493	1856.269	1880.946
326.241	31.139	1854.432	1875.285
327.256	31.244	1852.952	1874.618
328.270	31.085	1852.551	1872.381
329.285	31.264	1852.732	1874.153
330.300	31.819	1853.556	1880.352
331.314	32.261	1853.369	1884.395
332.329	32.610	1851.040	1885.315
333.343	31.867	1848.981	1875.521
334.358	31.695	1845.589	1870.134
335.373	31.922	1843.656	1870.221
336.387	31.453	1842.324	1863.953
337.402	31.510	1840.897	1862.860
338.416	31.488	1839.017	1860.514
339.431	31.617	1838.337	1860.887
340.446	32.081	1837.418	1864.371
341.460	32.063	1835.863	1862.394
342.475	32.430	1834.059	1863.987
343.489	31.933	1831.807	1856.532
344.504	31.545	1830.655	1851.291
345.519	31.611	1829.332	1850.382
346.533	31.619	1827.236	1848.123
347.548	31.645	1825.141	1846.044
348.562	31.418	1824.375	1842.791
349.577	31.601	1824.281	1844.288
350.592	32.109	1823.925	1848.736
351.606	32.473	1822.884	1851.058
352.621	32.501	1821.379	1849.591
353.635	32.153	1819.531	1844.056
354.650	31.778	1817.943	1838.530
355.665	31.759	1816.618	1836.780
356.679	31.940	1816.393	1838.116
357.694	32.076	1814.958	1837.787
358.708	32.137	1813.173	1836.354
359.723	32.461	1812.863	1839.007
360.738	32.519	1812.403	1838.891
361.752	32.251	1810.484	1834.093
362.767	32.160	1807.160	1829.612
363.781	32.003	1805.733	1826.411
364.796	32.272	1804.587	1827.662
365.810	31.856	1802.456	1821.228
366.825	31.417	1800.729	1814.978
367.840	31.366	1799.052	1812.577
368.854	31.186	1797.048	1808.590
369.869	31.216	1796.296	1807.908
370.883	31.205	1794.133	1805.409
371.898	31.151	1793.026	1803.550
372.913	31.287	1791.566	1803.189
373.927	31.250	1791.032	1802.076
374.942	31.438	1790.059	1802.702
375.956	31.547	1789.604	1803.083
376.971	31.351	1787.081	1798.436
377.986	31.483	1785.728	1798.131
379.000	31.751	1785.007	1799.775
380.015	31.971	1784.212	1800.884
381.029	31.873	1781.732	1797.225
382.044	31.978	1780.194	1796.464
383.059	31.988	1778.398	1794.536
384.073	31.446	1777.771	1788.474
385.088	31.108	1777.131	1784.366
386.102	31.535	1775.389	1786.506
387.117	31.884	1774.418	1788.662
388.132	31.964	1774.278	1789.072
389.146	32.068	1773.988	1789.561
390.161	32.250	1773.097	1790.193
391.175	32.539	1770.489	1790.107
392.190	32.221	1765.673	1781.994
393.205	31.707	1763.781	1774.980
394.219	31.578	1762.217	1771.961
395.234	31.374	1761.004	1768.594
396.248	31.199	1759.218	1764.922
397.263	31.225	1755.998	1761.728
398.278	31.016	1754.428	1757.964
399.292	31.071	1752.864	1756.702
400.307	31.730	1754.168	1764.038
401.321	32.049	1753.514	1766.188
402.336	31.801	1752.163	1762.279
403.350	31.553	1750.229	1757.774
404.365	32.008	1749.917	1761.551
405.380	32.469	1749.378	1765.137
406.394	32.183	1748.059	1760.908
407.409	31.802	1744.313	1753.333
408.423	31.538	1742.765	1749.095
409.438	31.421	1741.555	1746.566
410.453	31.536	1740.820	1746.705
411.467	31.732	1740.108	1747.619
412.482	31.794	1739.663	1747.540
413.496	32.088	1738.696	1749.115
414.511	32.122	1737.130	1747.647
415.526	32.023	1734.933	1744.299
416.540	32.399	1734.574	1747.246
417.555	32.459	1733.301	1746.313
418.569	32.463	1733.254	1746.089
419.584	32.730	1733.316	1748.439
420.599	32.511	1732.197	1745.058
421.613	32.029	1730.316	1738.466
422.628	32.055	1729.163	1737.342
423.642	32.743	1728.836	1743.206
424.657	32.757	1726.839	1741.110
425.672	32.021	1724.514	1731.734
426.686	32.330	1722.625	1732.494
427.701	32.457	1722.452	1733.290
428.715	32.798	1722.947	1736.731
429.730	33.700	1722.304	1744.213
430.745	34.100	1722.535	1747.933
431.759	34.008	1720.179	1744.483
432.774	33.030	1717.390	1732.440
433.788	30.447	1711.220	1702.253
434.803	28.459	1706.860	1679.425
435.818	28.246	1704.970	1675.409
436.832	28.048	1704.490	1672.916
437.847	27.336	1698.187	1660.002
438.861	18.074	1670.244	1548.546
439.876	4.242	1645.532	1400.584
440.890	0.629	1639.162	1362.275
441.905	0.452	1637.322	1358.979
442.920	0.338	1635.885	1356.595
443.934	0.514	1633.856	1356.341
444.949	0.395	1633.344	1354.682
445.963	0.275	1632.935	1353.093
446.978	0.314	1632.625	1353.024
447.993	0.342	1631.422	1352.125
449.007	0.422	1628.266	1350.061
450.022	0.499	1625.742	1348.500
451.036	0.502	1624.931	1347.694
452.051	1.328	1631.722	1360.607
453.066	12.257	1657.009	1481.085
454.080	25.303	1678.244	1618.958
455.095	29.364	1687.246	1664.372
456.109	32.295	1692.386	1695.863
457.124	33.711	1691.943	1708.034
458.139	32.548	1689.321	1694.669
459.153	31.703	1686.946	1684.450
460.168	31.743	1684.276	1681.941
461.182	31.892	1683.967	1682.780
462.197	32.282	1681.881	1684.003
463.212	32.186	1680.569	1681.621
464.226	32.223	1680.052	1681.240
465.241	32.591	1679.477	1683.767
466.255	32.717	1678.758	1683.979
467.270	32.901	1677.133	1683.800
468.285	32.733	1675.987	1680.944
469.299	32.764	1675.364	1680.390
470.314	33.271	1674.283	1683.642
471.328	33.410	1672.851	1683.242
472.343	33.444	1672.554	1683.047
473.358	33.724	1671.818	1684.599
474.372	33.875	1671.133	1685.055
475.387	34.251	1670.891	1687.964
476.401	34.437	1669.694	1688.208
477.416	33.889	1667.304	1680.720
478.430	34.086	1666.277	1681.229
479.445	34.291	1665.508	1682.071
480.460	34.260	1664.184	1680.257
481.474	34.416	1663.486	1680.733
482.489	34.424	1662.471	1679.575
483.503	34.146	1659.919	1674.338
484.518	33.576	1658.143	1667.311
485.533	34.045	1657.295	1670.399
486.547	34.191	1655.988	1670.176
487.562	33.753	1654.558	1664.671
488.576	34.203	1653.831	1667.707
489.591	34.606	1653.229	1670.445
490.606	34.858	1652.954	1672.181
491.620	34.961	1651.313	1671.222
492.635	34.750	1648.707	1666.539
493.649	34.062	1646.407	1657.987
494.664	33.610	1644.094	1651.509
495.679	33.273	1642.934	1647.195
496.693	33.279	1641.502	1645.613
497.708	33.264	1640.926	1644.704
498.722	33.360	1640.429	1644.853
499.737	33.720	1638.207	1645.568
500.752	33.661	1636.692	1643.330
501.766	33.341	1634.705	1638.354
502.781	33.362	1632.884	1636.521
503.795	33.437	1631.173	1635.260
504.810	33.158	1630.556	1632.026
505.825	33.140	1629.736	1630.856
506.839	33.003	1628.934	1628.664
507.854	32.940	1626.999	1625.990
508.868	33.093	1625.232	1625.357
509.883	32.612	1623.710	1619.482
510.898	32.381	1622.109	1615.699
511.912	32.105	1619.754	1610.783
512.927	31.843	1617.631	1606.220
513.941	31.862	1616.142	1604.716
514.956	32.477	1616.796	1610.463
515.971	33.765	1616.769	1621.307
516.985	33.074	1615.069	1613.478
518.000	32.334	1612.896	1604.770
519.014	32.041	1611.758	1600.935
520.029	32.015	1610.273	1599.047
521.043	32.094	1608.406	1597.679
522.058	32.148	1606.948	1596.500
523.073	32.086	1606.458	1595.289
524.087	32.387	1604.983	1596.202
525.102	32.464	1605.473	1597.158
526.116	32.828	1604.866	1599.464
527.131	32.858	1604.145	1598.812
528.146	33.075	1603.244	1599.566
529.160	33.126	1602.133	1598.699
530.175	33.359	1601.997	1600.357
531.189	33.536	1601.064	1600.731
532.204	33.516	1599.391	1598.698
533.219	33.626	1598.163	1598.209
534.233	33.878	1597.462	1599.453
535.248	33.839	1596.833	1598.298
536.262	33.710	1596.232	1596.416
537.277	34.147	1596.313	1600.006
538.292	34.634	1594.535	1602.136
539.306	34.622	1593.294	1600.599
540.321	34.221	1591.483	1595.214
541.335	33.868	1589.032	1589.598
542.350	34.131	1588.056	1590.638
543.365	34.686	1587.348	1594.395
544.379	34.829	1586.260	1594.312
545.394	34.511	1584.341	1589.532
546.408	34.042	1582.210	1583.281
547.423	33.880	1581.315	1580.838
548.438	33.678	1580.062	1577.707
549.452	33.892	1579.413	1578.659
550.467	33.973	1577.770	1577.500
551.481	33.811	1576.067	1574.261
552.496	33.494	1575.422	1570.789
553.511	33.447	1574.230	1569.022
554.525	33.331	1572.588	1566.228
555.540	33.185	1571.280	1563.525
556.554	33.039	1570.168	1561.026
557.569	32.976	1568.283	1558.438
558.583	32.896	1566.881	1556.198
559.598	32.856	1566.142	1554.948
560.613	32.922	1564.950	1554.126
561.627	32.798	1562.779	1550.751
562.642	32.646	1560.348	1546.907
563.656	32.287	1558.223	1541.652
564.671	31.852	1557.506	1537.176
565.686	31.719	1556.449	1534.854
566.700	31.887	1555.069	1534.691
567.715	31.981	1553.516	1533.742
568.729	32.249	1553.402	1535.651
569.744	33.043	1553.348	1541.932
570.759	33.257	1551.598	1541.763
571.773	32.754	1549.832	1535.703
572.788	32.278	1547.740	1529.557
573.802	32.016	1546.114	1525.630
574.817	31.826	1543.948	1521.759
575.832	31.619	1542.958	1518.910
576.846	32.132	1542.997	1522.948
577.861	32.752	1542.101	1526.934
578.875	32.845	1541.989	1527.398
579.890	32.815	1540.735	1525.722
580.905	32.917	1540.026	1525.670
581.919	32.907	1539.977	1525.355
582.934	33.068	1539.337	1525.851
583.948	32.979	1537.322	1522.948
584.963	33.066	1535.991	1522.148
585.978	33.274	1535.947	1523.607
586.992	33.365	1534.599	1522.819
588.007	33.192	1534.530	1521.177
589.021	33.310	1533.173	1520.599
590.036	32.695	1530.498	1512.809
591.051	32.806	1530.200	1513.227
592.065	33.294	1528.096	1514.893
593.080	33.387	1527.450	1514.815
594.094	33.727	1526.578	1516.501
595.109	33.662	1525.332	1514.563
596.123	33.865	1524.035	1514.716
597.138	33.724	1523.524	1512.903
598.153	33.584	1521.551	1509.637
599.167	33.586	1519.681	1507.620
600.182	33.420	1519.239	1505.676
601.196	33.482	1518.318	1505.075
602.211	33.442	1516.459	1502.739
603.226	33.052	1514.106	1497.121
604.240	32.980	1513.195	1495.467
605.255	32.982	1511.758	1493.886
606.269	32.784	1510.494	1490.884
607.284	32.687	1509.465	1488.920
608.299	32.515	1507.826	1485.760
609.313	32.565	1507.314	1485.471
610.328	32.365	1505.258	1481.685
611.342	32.396	1503.512	1480.031
612.357	32.112	1502.751	1476.867
613.372	32.121	1501.271	1475.301
614.386	32.149	1499.799	1473.897
615.401	32.056	1498.711	1471.924
616.415	32.010	1497.874	1470.563
617.430	31.572	1496.322	1465.415
618.445	31.391	1495.393	1462.909
619.459	31.397	1493.989	1461.404
620.474	31.702	1493.256	1462.906
621.488	32.281	1494.559	1468.555
622.503	33.509	1494.328	1477.788
623.518	32.634	1491.128	1467.595
624.532	31.502	1488.381	1455.865
625.547	31.192	1486.905	1451.829
626.561	31.105	1485.838	1449.933
627.576	30.904	1484.976	1447.345
628.591	31.506	1485.010	1451.910
629.605	32.247	1484.911	1457.414
630.620	32.706	1484.876	1460.784
631.634	33.654	1485.164	1468.271
632.649	33.684	1483.340	1466.527
633.663	32.884	1480.073	1456.911
634.678	31.868	1477.535	1446.367
635.693	31.184	1475.154	1438.564
636.707	31.021	1473.484	1435.506
637.722	30.854	1472.101	1432.692
638.736	31.140	1471.636	1434.281
639.751	31.521	1470.962	1436.391
640.766	31.668	1470.058	1436.472
641.780	31.587	1469.170	1434.807
642.795	31.873	1468.602	1436.287
643.809	31.993	1468.630	1437.067
644.824	32.171	1468.065	1437.711
645.839	32.614	1467.181	1440.073
646.853	32.608	1465.561	1438.263
647.868	32.401	1465.396	1436.342
648.882	32.720	1463.953	1437.203
649.897	32.860	1462.761	1436.929
650.912	32.867	1460.750	1434.835
651.926	32.706	1459.488	1432.195
652.941	32.676	1458.639	1430.966
653.955	32.610	1457.471	1429.143
654.970	32.169	1455.220	1423.410
655.985	31.869	1452.843	1418.630
656.999	31.550	1450.805	1414.045
658.014	31.348	1450.039	1411.601
659.028	31.600	1450.218	1413.520
660.043	32.428	1449.960	1419.374
661.058	32.671	1449.164	1420.266
662.072	32.725	1448.522	1419.876
663.087	32.704	1448.523	1419.550
664.101	32.634	1446.752	1417.113
665.116	32.578	1444.840	1414.649
666.131	32.497	1443.431	1412.494
667.145	32.457	1442.258	1410.873
668.160	32.190	1441.122	1407.583
669.174	31.920	1438.563	1402.886
670.189	31.892	1437.780	1401.746
671.204	32.241	1437.584	1404.005
672.218	32.137	1436.768	1402.261
673.233	32.146	1435.184	1400.617
674.247	31.834	1433.578	1396.540
675.262	31.516	1432.046	1392.504
676.276	31.416	1430.924	1390.498
677.291	31.715	1430.618	1392.272
678.306	32.024	1430.443	1394.240
679.320	31.898	1429.086	1391.809
680.335	31.342	1427.156	1385.621
681.349	31.360	1426.580	1385.033
682.364	31.573	1425.321	1385.227
683.379	31.225	1423.850	1381.044
684.393	31.122	1422.163	1378.478
685.408	31.130	1421.012	1377.260
686.422	30.910	1419.870	1374.356
687.437	30.936	1418.887	1373.430
688.452	30.527	1417.659	1369.051
689.466	30.517	1416.188	1367.395
690.481	30.607	1415.074	1366.814
691.495	30.931	1415.787	1369.737
692.510	32.157	1417.325	1380.122
693.525	33.351	1416.971	1388.422
694.539	32.757	1414.395	1381.357
695.554	31.308	1410.474	1366.720
696.568	30.610	1408.710	1359.717
697.583	30.347	1407.908	1356.843
698.598	30.424	1407.171	1356.538
699.612	30.597	1405.849	1356.369
700.627	30.621	1404.858	1355.425
701.641	30.953	1404.644	1357.492
702.656	31.118	1403.519	1357.449
703.671	31.035	1402.780	1355.964
704.685	31.080	1402.953	1356.295
705.700	31.377	1401.897	1357.284
706.714	31.708	1400.490	1358.170
707.729	31.919	1399.929	1358.997
708.744	32.070	1398.721	1358.763
709.758	31.720	1396.940	1354.327
710.773	31.234	1394.857	1348.619
711.787	31.063	1393.298	1345.711
712.802	31.432	1393.085	1348.022
713.816	31.842	1392.544	1350.304
714.831	31.935	1391.335	1349.641
715.846	31.693	1390.137	1346.572
716.860	31.618	1388.633	1344.408
717.875	31.618	1387.879	1343.520
718.889	31.596	1387.499	1342.831
719.904	31.530	1386.489	1341.221
720.919	31.485	1384.511	1338.821
721.933	31.156	1383.979	1335.778
722.948	31.136	1382.849	1334.386
723.962	31.135	1381.614	1333.025
724.977	31.048	1379.631	1330.326
725.992	30.864	1378.438	1327.701
727.006	31.294	1377.687	1329.897
728.021	30.988	1376.464	1326.372
729.035	30.782	1375.437	1323.750
730.050	30.870	1374.241	1323.069
731.065	30.906	1372.660	1321.646
732.079	30.711	1371.588	1319.064
733.094	30.790	1371.445	1319.329
734.108	31.037	1370.157	1319.690
735.123	30.987	1367.556	1316.671
736.138	30.817	1366.654	1314.442
737.152	30.787	1365.938	1313.386
738.167	30.508	1365.226	1310.567
739.181	30.453	1363.659	1308.517
740.196	30.428	1363.621	1308.143
741.211	30.304	1362.738	1306.264
742.225	30.484	1361.089	1305.800
743.240	30.414	1359.770	1303.883
744.254	30.217	1358.286	1300.914
745.269	30.141	1356.710	1298.713
746.284	30.050	1356.097	1297.330
747.298	30.024	1355.568	1296.485
748.313	30.507	1355.276	1299.449
749.327	31.167	1355.970	1304.598
750.342	32.117	1357.614	1312.702
751.356	33.183	1357.483	1319.903
752.371	32.857	1354.196	1314.262
753.386	31.355	1350.547	1300.068
754.400	30.338	1348.521	1290.860
755.415	30.488	1347.916	1291.178
756.429	30.591	1346.352	1290.240
757.444	30.812	1345.682	1290.984
758.459	30.663	1344.489	1288.648
759.473	30.359	1343.987	1285.898
760.488	30.598	1342.232	1285.727
761.502	30.604	1341.542	1284.955
762.517	30.744	1340.178	1284.465
763.532	31.225	1338.813	1286.331
764.546	31.032	1337.989	1284.049
765.561	30.719	1337.319	1281.087
766.575	30.321	1336.298	1277.208
767.590	30.433	1335.197	1276.776
768.605	30.944	1334.191	1279.183
769.619	30.985	1333.428	1278.586
770.634	31.065	1332.263	1277.867
771.648	30.809	1330.912	1274.652
772.663	30.387	1329.792	1270.525
773.678	30.284	1329.339	1269.233
774.692	30.553	1328.423	1270.059
775.707	30.476	1327.627	1268.612
776.721	30.334	1326.862	1266.758
777.736	30.347	1325.049	1264.963
778.751	30.146	1324.585	1262.993
779.765	30.270	1322.673	1261.867
780.780	30.055	1323.007	1260.562
781.794	30.244	1321.602	1260.364
782.809	30.060	1320.331	1257.748
783.824	29.823	1319.109	1254.818
784.838	30.179	1319.235	1257.216
785.853	31.494	1319.677	1266.444
786.867	31.458	1318.317	1264.741
787.882	30.657	1316.961	1257.846
788.897	30.240	1315.230	1253.208
789.911	29.898	1314.083	1249.650
790.926	29.745	1312.942	1247.373
791.940	29.736	1311.423	1245.721
792.955	29.540	1310.082	1242.971
793.969	29.485	1309.099	1241.521
794.984	29.550	1308.637	1241.369
795.999	29.879	1307.442	1242.307
797.013	29.819	1305.611	1240.020
798.028	29.840	1304.112	1238.584
799.042	29.931	1303.399	1238.376
800.057	29.935	1302.408	1237.312
801.072	30.071	1301.246	1236.969
802.086	29.994	1300.836	1235.919
803.101	29.744	1299.506	1232.829
804.115	29.884	1298.020	1232.210
805.130	30.068	1297.373	1232.678
806.145	29.872	1296.676	1230.558
807.159	30.098	1295.236	1230.552
808.174	30.216	1294.562	1230.550
809.188	30.399	1293.825	1230.924
810.203	30.266	1292.915	1229.028
811.218	30.468	1291.079	1228.478
812.232	30.182	1289.612	1225.035
813.247	30.036	1288.450	1222.816
814.261	30.194	1287.917	1223.210
815.276	30.316	1287.492	1223.468
816.291	30.002	1286.015	1219.841
817.305	29.894	1284.612	1217.646
818.320	29.768	1283.395	1215.519
819.334	29.736	1281.643	1213.499
820.349	30.080	1280.540	1214.578
821.364	29.819	1279.135	1211.384
822.378	29.696	1278.548	1209.873
823.393	29.666	1277.460	1208.503
824.407	29.502	1276.255	1206.139
825.422	29.447	1275.757	1205.164
826.437	29.486	1275.012	1204.571
827.451	29.619	1273.050	1203.442
828.466	30.359	1272.916	1208.017
829.480	31.289	1271.745	1212.835
830.495	30.542	1269.329	1205.518
831.509	29.770	1267.847	1198.938
832.524	29.732	1266.068	1196.862
833.539	29.426	1265.593	1194.281
834.553	29.482	1263.964	1192.963
835.568	29.349	1263.198	1191.234
836.582	29.492	1262.212	1191.090
837.597	29.710	1260.799	1191.028
838.612	29.773	1259.306	1189.881
839.626	29.820	1258.921	1189.680
840.641	29.900	1258.627	1189.772
841.655	30.022	1257.671	1189.516
842.670	29.806	1256.774	1187.132
843.685	29.932	1255.434	1186.538
844.699	29.954	1253.909	1185.096
845.714	29.963	1252.177	1183.371
846.728	29.738	1251.688	1181.324
847.743	29.658	1250.558	1179.604
848.758	29.784	1249.864	1179.617
849.772	29.531	1248.653	1176.710
850.787	29.492	1247.032	1174.793
851.801	29.426	1245.719	1172.997
852.816	29.448	1244.399	1171.753
853.831	29.343	1243.320	1169.926
854.845	29.213	1241.677	1167.410
855.860	29.394	1240.669	1167.473
856.874	29.272	1240.400	1166.305
857.889	29.775	1239.261	1168.290
858.904	30.636	1238.821	1173.198
859.918	31.104	1238.876	1176.080
860.933	31.637	1238.095	1178.572
861.947	31.081	1235.969	1172.888
862.962	30.195	1233.575	1164.886
863.977	29.848	1232.646	1161.680
864.991	29.569	1230.836	1158.081
866.006	29.186	1230.518	1155.224
867.020	29.187	1229.646	1154.274
868.035	29.201	1228.493	1153.143
869.049	29.500	1226.415	1152.930
870.064	29.520	1225.745	1152.291
871.079	29.475	1225.693	1151.819
872.093	29.387	1224.836	1150.328
873.108	29.465	1224.664	1150.514
874.122	29.466	1223.032	1148.848
875.137	29.536	1222.700	1148.840
876.152	29.668	1221.752	1148.635
877.166	29.645	1219.538	1146.276
878.181	29.504	1217.920	1143.736
879.195	29.514	1217.127	1142.915
880.210	29.370	1216.557	1141.351
881.225	29.356	1215.618	1140.249
882.239	29.482	1214.294	1139.650
883.254	29.383	1213.917	1138.543
884.268	29.313	1213.165	1137.267
885.283	29.371	1211.711	1136.127
886.298	29.423	1210.363	1135.054
887.312	29.323	1209.495	1133.485
888.327	29.262	1208.531	1132.068
889.341	29.328	1207.045	1130.949
890.356	29.260	1206.334	1129.727
891.371	29.385	1205.630	1129.704
892.385	29.254	1205.504	1128.640
893.400	29.196	1205.330	1127.985
894.414	29.381	1203.925	1127.676
895.429	29.926	1203.629	1130.607
896.444	31.096	1204.457	1138.430
897.458	32.510	1203.895	1146.426
898.473	31.640	1201.871	1139.044
899.487	30.446	1199.186	1129.073
900.502	29.709	1196.586	1121.999
901.517	29.534	1195.188	1119.484
902.531	29.474	1194.049	1117.920
903.546	29.379	1193.356	1116.560
904.560	29.205	1192.814	1114.858
905.575	29.259	1192.262	1114.537
906.589	29.265	1191.441	1113.676
907.604	29.335	1190.713	1113.282
