DTS Sentinel unit serial number:	SN409020Multiplexer serial number:	ORYXHardware model number:	OX4-SRSoftware version number:	ORYX F/W v3.00 Oryx Data Collector v3.7.2.0data status	okinstallation	HaddamTimeLapsedifferential loss correction	single-endedforward channel	channel 3reverse channel	N/Adate	2011/06/22time	09:46:16forward acquisition time	30.00reverse acquisition time	0.00gamma	498.7831k internal	0.1799k external	0.1799temperature offset calibration	1.0074default loss term (dB/km)	0.3790temperature slope calibration	1.3530multiplexer offset coefficient	1.0000multiplexer slope coefficient	1.0000fibre end	0.00T internal ref (°C)	28.06T ext. ref 1 (°C)	25.15T ext. ref 2 (°C)	0.19length (m)	temperature (°C)	Stokes	anti-Stokes-747.200	23.743	-0.194	-0.206
-746.185	-200.000	-0.044	0.363
-745.171	35.830	0.404	-0.460
-744.156	191.486	0.122	0.238
-743.142	349.468	0.219	0.562
-742.127	-197.938	-0.358	-0.003
-741.112	800.000	-0.050	0.194
-740.098	-100.657	0.285	0.090
-739.083	-200.000	0.044	-0.270
-738.069	800.000	0.197	0.853
-737.054	-51.912	-0.121	-0.073
-736.039	-130.810	-0.377	-0.065
-735.025	-81.884	0.561	-0.236
-734.010	20.122	0.464	0.484
-732.996	57.137	-0.192	0.242
-731.981	237.058	0.046	0.098
-730.966	-0.734	-0.155	-0.141
-729.952	-200.000	0.020	0.144
-728.937	-95.234	0.217	-0.075
-727.923	-76.166	-0.082	0.037
-726.908	-101.580	-0.259	0.081
-725.894	-109.409	-0.127	0.035
-724.879	-200.000	0.025	0.358
-723.864	-0.320	0.420	-0.385
-722.850	-162.213	0.042	0.003
-721.835	34.608	-0.366	0.413
-720.821	54.779	-0.259	-0.324
-719.806	66.468	0.200	-0.262
-718.791	-61.398	-0.069	0.037
-717.777	800.000	-0.092	-0.413
-716.762	800.000	-0.171	0.747
-715.748	-143.826	-0.274	-0.033
-714.733	-54.594	0.078	0.045
-713.718	800.000	-0.038	-0.138
-712.704	-62.037	-0.567	0.305
-711.689	-147.582	0.286	0.031
-710.675	-43.939	0.225	-0.146
-709.660	270.054	-0.168	-0.383
-708.645	-135.494	0.593	0.090
-707.631	-108.765	0.544	-0.149
-706.616	800.000	0.031	0.110
-705.602	800.000	0.120	0.515
-704.587	30.702	-0.249	-0.275
-703.572	7.635	-0.108	0.104
-702.558	800.000	-0.141	-0.617
-701.543	-200.000	-0.030	-0.721
-700.529	107.672	-0.104	0.161
-699.514	-113.362	0.669	0.168
-698.499	559.466	0.160	-0.502
-697.485	-65.051	0.232	0.121
-696.470	-128.936	-0.226	-0.041
-695.456	108.350	0.173	-0.267
-694.441	-200.000	0.003	-0.372
-693.426	140.528	-0.155	-0.265
-692.412	800.000	-0.016	0.075
-691.397	388.954	-0.070	0.188
-690.383	-165.147	0.344	-0.019
-689.368	650.033	-0.028	0.093
-688.354	-200.000	0.045	0.733
-687.339	487.261	-0.167	0.495
-686.324	800.000	0.109	0.451
-685.310	75.290	-0.160	-0.218
-684.295	-97.172	0.459	-0.154
-683.281	-116.502	-0.129	-0.031
-682.266	44.665	-0.373	-0.443
-681.251	-17.375	0.364	0.295
-680.237	-9.264	-0.171	-0.147
-679.222	-7.629	-0.301	-0.262
-678.208	-97.294	-0.502	-0.168
-677.193	-163.755	0.302	-0.018
-676.178	-49.465	-0.319	0.195
-675.164	-42.106	-0.278	-0.183
-674.149	-102.773	0.152	0.047
-673.135	326.823	0.080	0.197
-672.120	-85.420	-0.291	-0.116
-671.105	-16.807	0.248	0.202
-670.091	38.791	-0.447	-0.514
-669.076	10.898	0.117	-0.115
-668.062	-200.000	0.064	0.390
-667.047	72.538	0.253	0.340
-666.032	-14.737	-0.614	-0.508
-665.018	-163.821	0.225	-0.013
-664.003	167.296	-0.098	0.180
-662.989	79.885	0.236	0.328
-661.974	-161.972	0.080	0.005
-660.959	-125.407	0.337	0.066
-659.945	-200.000	-0.001	-0.123
-658.930	100.101	-0.075	-0.112
-657.916	155.680	0.283	-0.503
-656.901	-186.046	-0.403	-0.007
-655.886	-126.020	-0.181	0.035
-654.872	387.367	-0.175	0.468
-653.857	-98.340	-0.143	-0.047
-652.843	242.455	-0.101	-0.219
-651.828	54.226	0.102	0.127
-650.814	231.243	-0.053	-0.112
-649.799	-113.746	0.187	-0.047
-648.784	46.580	-0.160	-0.191
-647.770	-77.486	0.412	-0.183
-646.755	254.101	0.261	0.578
-645.741	147.202	0.149	0.259
-644.726	-95.450	-0.284	0.097
-643.711	800.000	-0.072	-0.342
-642.697	-87.770	-0.233	0.090
-641.682	92.225	0.279	-0.405
-640.668	-14.411	-0.130	-0.108
-639.653	-149.290	0.374	0.038
-638.638	146.245	-0.110	0.191
-637.624	10.926	-0.228	-0.225
-636.609	-43.358	0.187	0.122
-635.595	377.184	-0.067	0.178
-634.580	800.000	-0.121	0.501
-633.565	-200.000	0.053	-0.331
-632.551	-7.461	-0.137	-0.119
-631.536	800.000	-0.078	-0.309
-630.522	-131.722	-0.610	0.102
-629.507	-95.775	0.223	-0.076
-628.492	-200.000	0.023	0.156
-627.478	-168.651	-0.577	0.028
-626.463	116.464	-0.166	0.263
-625.449	258.932	0.078	-0.173
-624.434	800.000	-0.067	0.347
-623.419	-55.703	0.206	0.118
-622.405	-2.489	0.333	-0.300
-621.390	-139.602	-0.600	0.081
-620.376	-60.766	0.284	0.154
-619.361	-12.199	0.097	-0.082
-618.346	-99.703	0.471	0.151
-617.332	-167.072	-0.873	-0.045
-616.317	-89.772	-0.326	0.122
-615.303	-73.069	0.103	-0.048
-614.288	800.000	-0.046	-0.257
-613.273	31.436	0.263	-0.290
-612.259	256.826	-0.241	0.533
-611.244	-200.000	0.018	-0.118
-610.230	328.035	-0.098	-0.242
-609.215	-66.378	-0.190	0.097
-608.201	99.057	0.170	0.254
-607.186	-145.626	-0.346	-0.039
-606.171	8.770	0.137	0.133
-605.157	156.008	0.220	-0.392
-604.142	-60.020	0.538	0.295
-603.128	135.395	0.260	-0.436
-602.113	-37.997	0.184	-0.125
-601.098	47.061	-0.068	0.081
-600.084	432.650	0.123	-0.345
-599.069	505.676	0.016	-0.048
-598.055	272.596	-0.105	-0.240
-597.040	220.293	0.132	0.273
-596.025	269.798	-0.228	0.516
-595.011	-167.739	0.246	-0.012
-593.996	391.723	0.189	-0.508
-592.982	-126.709	0.467	-0.088
-591.967	123.246	-0.018	-0.029
-590.952	800.000	0.103	0.391
-589.938	536.013	-0.067	0.205
-588.923	50.377	-0.173	-0.210
-587.909	47.531	-0.514	-0.616
-586.894	4.949	-0.277	0.261
-585.879	-114.189	-0.344	0.085
-584.865	65.584	-0.170	-0.221
-583.850	-119.445	0.297	-0.066
-582.836	-80.141	0.095	0.041
-581.821	-40.523	-0.102	0.068
-580.806	-200.000	-0.016	0.577
-579.792	-138.641	-0.779	0.108
-578.777	-188.449	0.213	0.003
-577.763	-97.426	-0.395	0.131
-576.748	-200.000	-0.019	-0.168
-575.733	154.325	-0.137	0.243
-574.719	-200.000	-0.046	0.503
-573.704	-97.538	0.167	-0.055
-572.690	-66.793	0.296	0.150
-571.675	-200.000	0.042	0.248
-570.661	800.000	-0.036	0.144
-569.646	-53.724	0.298	0.174
-568.631	-89.800	-0.243	0.091
-567.617	82.512	-0.120	-0.168
-566.602	-129.975	-0.275	0.048
-565.588	-200.000	-0.033	-0.275
-564.573	-200.000	0.005	0.180
-563.558	156.322	-0.278	0.494
-562.544	-200.000	0.014	0.287
-561.529	-105.918	-0.183	-0.053
-560.515	25.310	-0.140	-0.149
-559.500	-200.000	0.005	-0.089
-558.485	-200.000	-0.044	0.276
-557.471	89.649	0.207	-0.297
-556.456	519.653	-0.042	-0.126
-555.442	-78.703	-0.475	0.207
-554.427	-13.203	-0.317	-0.264
-553.412	87.480	0.129	-0.183
-552.398	359.391	-0.189	-0.488
-551.383	-200.000	0.046	-0.409
-550.369	800.000	0.082	0.329
-549.354	-88.966	0.171	0.065
-548.339	800.000	0.106	0.444
-547.325	197.506	-0.127	-0.250
-546.310	-46.188	0.168	0.106
-545.296	237.280	0.195	-0.415
-544.281	-196.753	-0.047	0.000
-543.266	-200.000	-0.014	0.087
-542.252	176.611	0.044	-0.082
-541.237	-88.158	0.483	-0.185
-540.223	-55.995	-0.212	0.121
-539.208	-54.116	-0.343	-0.199
-538.193	-200.000	0.018	-0.653
-537.179	108.209	-0.303	-0.464
-536.164	800.000	0.146	-0.754
-535.150	-62.660	-0.180	-0.095
-534.135	-200.000	0.003	-0.461
-533.121	-147.571	0.365	0.039
-532.106	-20.395	0.118	-0.093
-531.091	-160.365	0.086	0.006
-530.077	25.482	-0.446	-0.475
-529.062	110.503	-0.229	-0.353
-528.048	-200.000	-0.032	0.279
-527.033	82.907	0.202	0.282
-526.018	89.589	-0.270	-0.387
-525.004	-27.210	0.292	-0.218
-523.989	800.000	-0.136	-0.564
-522.975	125.446	0.235	-0.381
-521.960	291.382	-0.073	0.171
-520.945	-126.161	-0.282	0.054
-519.931	-133.808	0.040	-0.006
-518.916	-142.961	-0.161	-0.020
-517.902	-86.253	0.044	0.017
-516.887	-53.422	0.344	-0.201
-515.872	800.000	0.073	-0.343
-514.858	53.296	-0.202	-0.249
-513.843	-76.576	-0.301	-0.135
-512.829	-142.880	0.294	-0.036
-511.814	800.000	-0.045	-0.168
-510.799	-102.099	-0.443	-0.136
-509.785	-98.087	-0.434	0.142
-508.770	-160.481	-0.249	-0.017
-507.756	36.044	0.264	-0.298
-506.741	-200.000	-0.014	0.479
-505.726	-106.067	-0.167	-0.048
-504.712	-141.791	-0.183	-0.023
-503.697	800.000	-0.061	-0.298
-502.683	-97.425	0.226	0.075
-501.668	-200.000	0.031	0.337
-500.653	39.411	-0.256	-0.294
-499.639	-56.393	0.282	-0.160
-498.624	-78.883	0.532	-0.231
-497.610	131.744	-0.133	-0.219
-496.595	-59.548	-0.449	0.246
-495.581	11.735	0.107	0.105
-494.566	800.000	0.028	-0.140
-493.551	221.766	0.154	0.318
-492.537	-156.688	0.110	-0.009
-491.522	-200.000	0.066	0.507
-490.508	-42.934	-0.132	0.086
-489.493	-10.480	-0.413	-0.350
-488.478	-58.874	0.009	0.005
-487.464	-84.645	-0.247	0.099
-486.449	-115.398	-0.157	0.037
-485.435	61.757	0.056	0.071
-484.420	-41.339	-0.157	0.103
-483.405	163.994	-0.215	-0.388
-482.391	115.216	-0.119	-0.187
-481.376	-167.894	-0.274	0.014
-480.362	32.527	-0.128	-0.141
-479.347	203.386	-0.077	-0.153
-478.332	-101.923	-0.134	-0.041
-477.318	-152.880	-0.314	-0.028
-476.303	10.250	0.194	0.188
-475.289	19.154	0.267	0.274
-474.274	96.748	0.347	-0.509
-473.259	72.969	-0.131	0.175
-472.245	391.777	0.077	-0.205
-471.230	81.009	-0.140	0.194
-470.216	-52.280	0.444	-0.262
-469.201	-100.038	-0.134	0.043
-468.186	-200.000	0.030	0.277
-467.172	135.164	-0.106	-0.177
-466.157	-163.230	-0.652	-0.039
-465.143	-57.916	-0.228	0.127
-464.128	53.843	-0.321	-0.395
-463.113	-43.155	-0.153	-0.099
-462.099	131.852	-0.227	0.374
-461.084	40.640	0.127	0.146
-460.070	492.344	0.178	0.525
-459.055	92.697	0.237	0.342
-458.040	635.651	0.115	-0.374
-457.026	-200.000	0.000	-0.580
-456.011	-95.537	0.338	-0.115
-454.997	31.975	-0.235	0.259
-453.982	185.890	0.031	0.059
-452.968	-94.023	0.245	0.086
-451.953	-98.791	-0.426	-0.138
-450.938	-200.000	-0.061	0.568
-449.924	-66.040	0.269	0.136
-448.909	-148.547	0.293	0.030
-447.895	-3.051	-0.566	0.504
-446.880	501.644	0.009	0.027
-445.865	-87.465	0.441	-0.170
-444.851	-200.000	0.030	0.410
-443.836	-200.000	0.007	0.271
-442.822	-84.912	-0.365	0.146
-441.807	-127.985	-0.142	-0.026
-440.792	-53.386	0.696	0.406
-439.778	-14.161	0.047	0.038
-438.763	401.612	-0.072	0.193
-437.749	-80.596	0.359	-0.152
-436.734	-128.582	0.242	0.043
-435.719	2.467	-0.219	-0.202
-434.705	-81.981	0.118	0.049
-433.690	7.523	0.087	0.083
-432.676	-81.178	0.281	0.118
-431.661	-163.238	-0.103	0.006
-430.646	-84.809	-0.463	-0.185
-429.632	-144.454	0.305	0.036
-428.617	-68.487	-0.204	0.101
-427.603	-60.684	0.163	-0.088
-426.588	-108.514	0.651	0.178
-425.573	118.018	-0.033	0.051
-424.559	800.000	-0.093	0.442
-423.544	76.063	-0.426	0.576
-422.530	-136.381	-0.312	0.046
-421.515	13.256	-0.116	-0.114
-420.500	205.638	-0.119	-0.237
-419.486	265.789	-0.146	-0.326
-418.471	512.437	-0.082	-0.244
-417.457	71.675	0.279	0.370
-416.442	334.814	0.228	-0.566
-415.428	-140.540	0.312	-0.041
-414.413	127.979	-0.423	-0.689
-413.398	422.578	0.142	-0.392
-412.384	132.414	-0.148	-0.243
-411.369	-126.029	0.178	-0.034
-410.355	208.989	-0.072	0.144
-409.340	-145.803	0.528	0.059
-408.325	131.819	0.245	0.403
-407.311	69.555	-0.089	-0.117
-406.296	-128.061	0.391	-0.071
-405.282	-56.510	0.428	-0.241
-404.267	-12.313	0.368	0.307
-403.252	16.477	0.155	0.156
-402.238	-200.000	0.216	0.001
-401.223	48.027	0.248	-0.296
-400.209	800.000	-0.030	-0.130
-399.194	-125.444	-0.525	0.101
-398.179	-135.086	0.142	0.022
-397.165	390.568	-0.137	0.363
-396.150	-26.753	0.331	-0.246
-395.136	-50.263	-0.185	0.111
-394.121	-151.328	0.199	0.019
-393.106	-36.040	0.112	-0.077
-392.092	-73.272	-0.354	-0.165
-391.077	50.305	0.105	-0.126
-390.063	-200.000	-0.004	0.064
-389.048	-169.400	0.435	0.020
-388.033	738.239	-0.016	0.053
-387.019	-74.124	-0.186	0.085
-386.004	800.000	-0.100	0.451
-384.990	382.412	-0.116	-0.305
-383.975	557.928	-0.102	0.316
-382.960	-200.000	0.004	0.108
-381.946	-200.000	0.032	-0.459
-380.931	666.049	0.075	0.247
-379.917	800.000	-0.072	-0.335
-378.902	60.828	-0.143	-0.181
-377.888	140.352	-0.329	0.555
-376.873	40.523	0.180	0.206
-375.858	111.641	0.401	0.618
-374.844	-65.671	0.299	-0.152
-373.829	118.296	0.221	-0.349
-372.815	-20.753	0.217	-0.169
-371.800	-114.855	0.558	0.135
-370.785	-200.000	0.005	0.137
-369.771	-78.165	0.392	0.171
-368.756	-11.311	0.180	0.151
-367.742	-174.232	0.319	0.012
-366.727	146.629	0.097	0.166
-365.712	-137.252	-0.278	0.040
-364.698	-200.000	-0.075	0.445
-363.683	92.672	0.104	-0.149
-362.669	-200.000	0.005	0.351
-361.654	204.687	-0.135	-0.267
-360.639	-200.000	0.059	-0.359
-359.625	-171.153	0.501	-0.021
-358.610	-200.000	0.004	-0.117
-357.596	-77.680	0.269	-0.118
-356.581	216.690	-0.044	-0.090
-355.566	-155.230	0.450	-0.037
-354.552	-42.421	-0.031	0.020
-353.537	47.766	-0.362	0.431
-352.523	552.755	0.023	0.070
-351.508	-129.406	-0.146	0.026
-350.493	169.190	-0.273	-0.497
-349.479	-41.442	0.439	-0.287
-348.464	-154.013	0.412	0.035
-347.450	-133.021	-0.230	-0.037
-346.435	-146.562	-0.463	-0.051
-345.420	-61.508	-0.157	0.083
-344.406	73.138	0.603	0.803
-343.391	-78.185	-0.137	0.060
-342.377	-20.459	0.153	-0.120
-341.362	201.389	0.115	-0.226
-340.348	76.067	-0.297	-0.400
-339.333	-30.466	0.237	-0.170
-338.318	350.337	-0.038	-0.095
-337.304	-14.608	0.304	-0.248
-336.289	-200.000	0.049	-0.322
-335.275	-66.313	0.224	-0.113
-334.260	680.823	0.053	0.177
-333.245	356.268	0.077	-0.197
-332.231	-68.164	-0.501	-0.247
-331.216	-93.133	-0.472	-0.166
-330.202	-32.346	0.232	-0.165
-329.187	2.215	0.114	0.105
-328.172	-126.054	-0.488	-0.092
-327.158	126.400	-0.196	0.316
-326.143	-128.390	0.209	-0.037
-325.129	-33.947	-0.385	-0.269
-324.114	-87.913	-0.327	0.124
-323.099	-164.382	-0.160	-0.009
-322.085	-70.079	-0.142	0.068
-321.070	481.639	-0.093	0.271
-320.056	59.541	-0.241	-0.302
-319.041	85.089	0.260	-0.363
-318.026	-13.176	-0.285	-0.235
-317.012	800.000	-0.050	0.188
-315.997	-200.000	-0.006	-0.149
-314.983	-3.499	0.295	0.261
-313.968	-45.644	0.059	0.037
-312.953	19.097	0.093	-0.094
-311.939	108.511	0.260	-0.395
-310.924	51.992	0.416	0.504
-309.910	-200.000	-0.004	0.412
-308.895	-132.002	-0.290	-0.048
-307.880	222.297	0.220	-0.452
-306.866	-28.062	0.321	-0.235
-305.851	31.267	-0.139	-0.152
-304.837	-95.947	-0.393	-0.132
-303.822	23.268	0.236	-0.246
-302.807	128.403	-0.239	0.388
-301.793	-95.154	-0.213	0.072
-300.778	-143.129	-0.559	0.068
-299.764	-98.065	0.603	-0.196
-298.749	13.892	0.477	0.471
-297.735	50.393	0.057	0.069
-296.720	800.000	-0.024	-0.098
-295.705	-98.857	-0.293	-0.094
-294.691	-15.916	-0.699	-0.564
-293.676	290.730	-0.132	0.305
-292.662	-129.397	0.294	-0.051
-291.647	-147.396	0.337	0.036
-290.632	-99.678	-0.089	0.028
-289.618	-60.527	0.430	0.231
-288.603	18.197	-0.165	0.167
-287.589	99.415	-0.226	0.332
-286.574	-200.000	0.017	0.237
-285.559	-69.199	0.172	0.084
-284.545	110.513	0.125	0.192
-283.530	-99.439	-0.501	0.159
-282.516	63.339	0.340	0.433
-281.501	117.222	-0.294	0.460
-280.486	-92.733	-0.479	0.169
-279.472	-48.807	0.143	-0.087
-278.457	113.149	-0.148	-0.229
-277.443	-2.875	-0.243	-0.215
-276.428	187.679	0.136	-0.258
-275.413	-107.086	0.048	0.013
-274.399	86.483	-0.271	0.380
-273.384	41.822	-0.156	-0.179
-272.370	-135.413	-0.033	0.005
-271.355	267.650	0.024	-0.054
-270.340	338.693	0.050	0.125
-269.326	465.931	0.079	-0.224
-268.311	-127.009	0.412	0.076
-267.297	78.391	0.114	-0.155
-266.282	-187.702	0.349	-0.006
-265.267	194.234	-0.183	-0.353
-264.253	-76.989	0.107	-0.047
-263.238	-104.769	-0.310	-0.090
-262.224	800.000	0.122	0.644
-261.209	-94.262	0.128	0.044
-260.195	800.000	-0.043	0.163
-259.180	607.048	-0.148	-0.471
-258.165	-20.898	0.056	-0.043
-257.151	-43.318	0.415	0.266
-256.136	-142.294	0.164	-0.020
-255.122	18.503	-0.110	-0.112
-254.107	159.503	0.137	0.242
-253.092	800.000	-0.026	-0.105
-252.078	-97.446	0.177	0.058
-251.063	-152.830	0.357	-0.032
-250.049	800.000	-0.086	0.372
-249.034	-200.000	0.002	-0.114
-248.019	-200.000	-0.018	-0.481
-247.005	176.070	-0.088	0.162
-245.990	-113.388	-0.182	-0.045
-244.976	70.495	-0.307	0.403
-243.961	-200.000	-0.010	0.167
-242.946	-21.309	0.380	0.294
-241.932	-75.380	-0.064	-0.029
-240.917	-74.118	0.236	-0.108
-239.903	-182.548	0.198	0.005
-238.888	800.000	-0.106	0.470
-237.873	-23.773	0.348	-0.264
-236.859	-102.327	-0.282	0.085
-235.844	-200.000	0.009	0.151
-234.830	28.526	-0.147	-0.157
-233.815	393.074	-0.149	-0.395
-232.800	11.025	0.177	-0.172
-231.786	-165.593	-0.436	-0.024
-230.771	15.927	-0.284	0.283
-229.757	-200.000	0.067	0.596
-228.742	102.624	-0.155	0.231
-227.727	93.916	0.072	0.103
-226.713	-97.506	0.247	-0.081
-225.698	-200.000	0.035	0.302
-224.684	-39.119	0.205	-0.136
-223.669	336.960	0.071	-0.175
-222.655	517.094	-0.084	0.250
-221.640	-200.000	0.076	0.571
-220.625	-125.696	0.411	-0.078
-219.611	-200.000	-0.003	-0.282
-218.596	-185.747	-0.156	0.003
-217.582	177.562	-0.051	0.094
-216.567	800.000	0.093	0.349
-215.552	84.576	-0.102	-0.142
-214.538	-45.078	0.182	0.114
-213.523	-111.194	-0.241	-0.062
-212.509	107.411	0.066	0.100
-211.494	-96.252	0.210	-0.070
-210.479	113.087	-0.132	-0.202
-209.465	-200.000	-0.075	-0.453
-208.450	-7.877	0.051	0.043
-207.436	40.003	0.144	0.164
-206.421	-47.983	0.177	-0.108
-205.406	-200.000	-0.013	0.406
-204.392	-73.234	-0.498	0.230
-203.377	-17.022	-0.265	-0.212
-202.363	23.469	0.048	0.050
-201.348	-28.370	-0.191	0.139
-200.333	-30.606	0.474	-0.339
-199.319	149.212	-0.357	-0.612
-198.304	-200.000	0.056	-0.386
-197.290	-134.311	-0.119	-0.018
-196.275	-111.564	0.459	0.117
-195.260	-40.557	0.200	-0.131
-194.246	107.009	0.190	0.286
-193.231	201.029	-0.154	-0.300
-192.217	-45.367	-0.300	0.188
-191.202	800.000	0.008	-0.028
-190.187	-58.449	0.324	0.177
-189.173	329.289	0.104	-0.255
-188.158	-52.287	-0.294	0.172
-187.144	-32.993	0.340	0.238
-186.129	-200.000	0.003	-0.144
-185.114	-92.989	-0.490	0.172
-184.100	621.339	-0.012	-0.038
-183.085	-73.948	-0.417	0.190
-182.071	182.513	-0.061	0.114
-181.056	77.374	-0.226	-0.305
-180.042	-44.339	0.198	0.125
-179.027	89.847	0.033	-0.046
-178.012	-31.132	0.574	0.408
-176.998	-97.247	0.343	0.112
-175.983	-52.773	-0.676	-0.393
-174.969	800.000	-0.098	-0.345
-173.954	-200.000	-0.017	0.298
-172.939	800.000	0.100	-0.440
-171.925	-7.530	0.236	0.202
-170.910	-200.000	0.075	0.444
-169.896	-200.000	0.020	-0.491
-168.881	-200.000	-0.041	-0.339
-167.866	416.401	0.159	-0.432
-166.852	-0.679	0.114	0.102
-165.837	-102.944	-0.415	0.124
-164.823	290.709	0.169	0.391
-163.808	723.892	0.221	0.750
-162.793	-4.965	-0.374	0.325
-161.779	-159.659	-0.290	-0.020
-160.764	-101.124	-0.077	-0.024
-159.750	-111.302	0.538	0.138
-158.735	800.000	-0.027	0.124
-157.720	-76.640	-0.155	-0.068
-156.706	-42.574	0.127	0.082
-155.691	800.000	0.027	-0.144
-154.677	176.291	-0.028	0.052
-153.662	-8.383	-0.370	-0.314
-152.647	-107.417	0.483	-0.133
-151.633	598.929	0.223	0.704
-150.618	6.255	-0.573	0.537
-149.604	-200.000	0.069	-0.448
-148.589	-87.796	0.275	-0.104
-147.574	24.300	0.272	0.284
-146.560	183.318	0.182	0.341
-145.545	65.155	-0.073	-0.093
-144.531	-200.000	-0.033	0.198
-143.516	-183.310	0.474	-0.010
-142.502	48.041	-0.148	-0.175
-141.487	3.129	-0.277	0.254
-140.472	-8.778	-0.293	0.247
-139.458	717.658	0.055	0.187
-138.443	98.804	0.264	0.385
-137.429	-114.761	-0.661	0.158
-136.414	-29.652	0.259	-0.186
-135.399	359.153	0.075	0.190
-134.385	-26.072	-0.230	0.171
-133.370	82.580	-0.313	0.430
-132.356	-161.490	-0.520	0.033
-131.341	-81.452	0.143	0.059
-130.326	-116.930	-0.425	-0.097
-129.312	239.175	-0.108	-0.227
-128.297	204.291	-0.065	-0.127
-127.283	-140.773	-0.444	-0.057
-126.268	-53.868	-0.072	0.041
-125.253	-200.000	-0.004	0.326
-124.239	-123.298	0.322	0.064
-123.224	-91.808	-0.150	0.053
-122.210	-200.000	0.015	0.370
-121.195	327.120	-0.015	0.037
-120.180	76.397	-0.142	0.190
-119.166	-3.539	-0.300	0.263
-118.151	299.008	0.035	0.082
-117.137	40.544	-0.128	-0.145
-116.122	529.093	-0.107	-0.322
-115.107	24.510	-0.334	-0.349
-114.093	-168.591	-0.259	0.012
-113.078	77.776	-0.310	0.416
-112.064	-5.313	-0.329	0.285
-111.049	76.312	0.350	0.468
-110.034	463.486	-0.160	0.453
-109.020	16.880	-0.084	-0.084
-108.005	-107.993	-0.424	0.115
-106.991	-78.651	0.322	0.138
-105.976	-30.909	0.358	0.255
-104.962	2.968	0.338	0.309
-103.947	-200.000	0.009	0.231
-102.932	45.028	0.228	0.265
-101.918	-134.440	0.206	-0.032
-100.903	480.620	-0.098	0.280
-99.889	800.000	-0.022	-0.120
-98.874	12.856	-0.297	-0.289
-97.859	32.548	0.111	0.121
-96.845	-97.505	0.246	0.080
-95.830	-97.179	-0.228	-0.075
-94.816	497.502	0.054	-0.158
-93.801	-30.755	0.381	-0.271
-92.786	-66.998	0.467	0.231
-91.772	223.294	0.277	0.564
-90.757	40.917	0.136	0.155
-89.743	-200.000	-0.047	0.494
-88.728	-103.525	-0.152	-0.045
-87.713	410.650	0.096	0.258
-86.699	6.103	0.099	0.092
-85.684	-52.816	0.046	0.027
-84.670	15.091	0.235	0.232
-83.655	-65.308	0.296	-0.149
-82.640	11.984	0.271	-0.262
-81.626	435.262	-0.021	-0.059
-80.611	262.389	0.134	0.294
-79.597	800.000	-0.064	0.286
-78.582	115.024	0.255	0.393
-77.567	-71.856	0.136	-0.064
-76.553	-17.146	-0.209	0.166
-75.538	-66.345	0.484	0.242
-74.524	-200.000	-0.010	-0.331
-73.509	-50.232	0.231	0.137
-72.494	800.000	-0.048	0.206
-71.480	566.818	-0.049	-0.151
-70.465	45.279	0.056	-0.065
-69.451	-7.958	0.088	-0.075
-68.436	-200.000	0.010	0.701
-67.422	-200.000	-0.014	0.734
-66.407	-114.981	0.445	-0.106
-65.392	33.711	-0.101	-0.111
-64.378	201.505	-0.081	0.158
-63.363	20.983	-0.328	0.335
-62.349	-93.210	-0.297	-0.103
-61.334	-4.914	-1.822	-1.578
-60.319	218.155	0.729	1.469
-59.305	243.620	-3.159	-6.693
-58.290	39.776	3.551	4.011
-57.276	490.196	3.694	10.690
-56.261	-200.000	17.134	265.094
-55.246	427.572	1214.988	3316.031
-54.232	60.713	2826.495	3528.491
-53.217	70.752	2704.420	3526.445
-52.203	48.552	2438.857	2877.172
-51.188	37.716	2097.892	2344.622
-50.173	30.501	1977.557	2127.381
-49.159	29.059	1966.753	2099.161
-48.144	28.490	1962.839	2088.389
-47.130	28.346	1961.169	2084.876
-46.115	28.404	1958.770	2082.907
-45.100	28.379	1957.553	2081.247
-44.086	28.397	1955.717	2079.415
-43.071	28.266	1954.764	2076.821
-42.057	28.357	1952.812	2075.701
-41.042	28.340	1951.175	2073.693
-40.027	28.255	1949.327	2070.677
-39.013	28.326	1948.826	2070.865
-37.998	28.286	1946.949	2068.334
-36.984	28.251	1946.178	2067.045
-35.969	28.201	1944.562	2064.678
-34.954	28.149	1944.294	2063.716
-33.940	28.088	1943.500	2062.102
-32.925	28.159	1941.298	2060.492
-31.911	28.205	1939.298	2058.803
-30.896	28.149	1938.968	2057.744
-29.881	28.217	1937.233	2056.580
-28.867	28.163	1935.113	2053.640
-27.852	28.117	1934.757	2052.666
-26.838	28.082	1933.634	2051.000
-25.823	28.042	1931.755	2048.471
-24.809	28.208	1930.006	2048.403
-23.794	28.070	1929.073	2045.785
-22.779	27.963	1927.429	2042.755
-21.765	28.141	1925.531	2042.659
-20.750	28.000	1924.438	2039.841
-19.736	27.994	1924.182	2039.422
-18.721	28.052	1923.097	2038.842
-17.706	28.066	1921.283	2036.994
-16.692	27.982	1921.211	2035.894
-15.677	28.019	1919.490	2034.397
-14.663	28.028	1917.262	2032.060
-13.648	27.894	1916.650	2029.828
-12.633	27.960	1914.901	2028.642
-11.619	28.021	1912.625	2026.822
-10.604	28.016	1911.599	2025.600
-9.590	27.890	1911.461	2023.972
-8.575	27.845	1910.827	2022.715
-7.560	28.013	1909.623	2023.233
-6.546	27.880	1908.186	2020.155
-5.531	27.856	1907.362	2018.937
-4.517	27.961	1906.730	2019.348
-3.502	28.059	1904.389	2017.878
-2.487	28.085	1903.188	2016.812
-1.473	28.040	1899.849	2012.699
-0.458	28.233	1882.053	1995.882
0.556	25.767	2027.753	2108.828
1.571	25.017	2240.982	2320.550
2.586	26.291	2283.975	2381.672
3.600	26.127	2287.429	2382.813
4.615	26.219	2286.416	2382.696
5.629	26.324	2284.322	2381.621
6.644	26.292	2283.172	2379.704
7.659	26.251	2281.877	2377.534
8.673	26.322	2278.372	2374.537
9.688	25.821	2285.414	2374.946
10.702	24.698	2364.674	2441.620
11.717	23.342	2432.601	2492.291
12.731	11.976	2400.634	2299.732
13.746	1.888	2372.596	2131.361
14.761	0.425	2367.454	2105.971
15.775	0.237	2365.373	2101.228
16.790	0.208	2364.209	2099.529
17.804	0.092	2362.520	2096.163
18.819	0.182	2361.781	2096.513
19.834	0.211	2359.778	2094.891
20.848	0.086	2358.745	2091.969
21.863	0.140	2357.114	2091.024
22.877	0.107	2355.003	2088.451
23.892	0.208	2351.636	2086.620
24.907	0.147	2349.890	2083.970
25.921	0.060	2348.016	2080.842
26.936	0.089	2345.707	2078.952
27.950	0.172	2342.990	2077.446
28.965	0.217	2340.927	2075.998
29.980	0.279	2339.609	2075.440
30.994	0.299	2338.008	2074.039
32.009	5.874	2359.153	2170.224
33.023	21.174	2406.957	2429.520
34.038	29.668	2425.549	2567.177
35.053	31.606	2428.541	2597.096
36.067	31.594	2424.320	2592.104
37.082	30.965	2421.089	2579.590
38.096	30.794	2419.281	2574.979
39.111	31.303	2418.045	2580.426
40.126	31.715	2418.144	2585.942
41.140	32.376	2417.069	2593.648
42.155	31.777	2413.638	2581.367
43.169	31.279	2410.694	2571.013
44.184	31.894	2409.297	2577.717
45.199	32.046	2407.109	2577.166
46.213	31.685	2405.646	2570.319
47.228	31.606	2404.591	2567.796
48.242	31.577	2402.101	2564.429
49.257	31.706	2401.050	2564.767
50.271	32.035	2398.639	2566.409
51.286	32.130	2397.897	2566.610
52.301	31.821	2394.227	2558.136
53.315	29.482	2385.683	2516.694
54.330	25.708	2371.503	2449.910
55.344	23.493	2363.513	2411.130
56.359	23.288	2358.558	2402.995
57.374	23.052	2357.177	2398.072
58.388	23.007	2354.557	2394.515
59.403	23.358	2352.012	2396.418
60.417	23.575	2350.476	2397.509
61.432	23.863	2348.256	2398.865
62.447	23.779	2346.185	2395.321
63.461	23.629	2343.688	2390.458
64.476	23.634	2341.497	2387.996
65.490	24.085	2342.583	2394.921
66.505	25.236	2346.838	2414.566
67.520	27.784	2353.608	2455.757
68.534	29.782	2357.460	2486.509
69.549	30.885	2356.918	2500.539
70.563	31.215	2354.082	2501.667
71.578	30.746	2352.397	2493.263
72.593	30.840	2351.217	2492.982
73.607	31.440	2350.951	2500.473
74.622	31.875	2349.927	2504.921
75.636	31.389	2346.226	2494.159
76.651	30.796	2342.649	2482.119
77.666	30.946	2341.092	2482.179
78.680	31.006	2338.903	2480.369
79.695	31.219	2336.834	2480.713
80.709	31.290	2336.521	2481.034
81.724	31.519	2334.847	2482.023
82.739	31.718	2331.589	2480.901
83.753	31.547	2329.555	2476.172
84.768	31.172	2327.565	2468.769
85.782	30.932	2326.862	2464.537
86.797	30.916	2325.276	2462.353
87.812	30.720	2322.008	2455.997
88.826	30.387	2318.470	2447.556
89.841	30.643	2317.225	2449.330
90.855	31.434	2317.366	2459.653
91.870	30.890	2314.656	2449.292
92.884	30.585	2310.903	2441.008
93.899	30.800	2310.812	2443.461
94.914	29.712	2306.386	2424.149
95.928	26.331	2294.384	2366.830
96.943	24.928	2289.576	2343.149
97.957	27.804	2297.319	2388.685
98.972	30.153	2299.076	2421.097
99.987	29.661	2297.062	2412.235
101.001	29.614	2296.078	2410.302
102.016	30.044	2294.244	2413.719
103.030	30.235	2292.263	2413.838
104.045	30.624	2292.106	2418.475
105.060	31.395	2290.367	2426.411
106.074	31.065	2287.523	2418.809
107.089	30.294	2284.635	2405.432
108.103	30.602	2286.505	2411.119
109.118	31.274	2283.916	2416.853
110.133	31.245	2282.055	2414.211
111.147	31.506	2280.526	2415.696
112.162	31.298	2278.962	2411.055
113.176	30.883	2274.574	2400.743
114.191	30.880	2272.315	2398.038
115.206	31.007	2270.986	2397.995
116.220	30.872	2269.177	2394.046
117.235	30.711	2266.911	2389.292
118.249	30.506	2264.695	2384.034
119.264	31.022	2264.402	2390.085
120.279	31.375	2264.028	2393.944
121.293	31.092	2260.722	2386.525
122.308	30.930	2259.121	2382.469
123.322	31.048	2258.130	2382.651
124.337	29.968	2252.078	2362.151
125.352	26.708	2241.215	2308.801
126.366	25.954	2240.730	2298.365
127.381	28.952	2246.852	2342.817
128.395	30.271	2247.232	2359.808
129.410	30.759	2246.392	2364.884
130.424	31.156	2245.257	2368.464
131.439	30.662	2243.149	2359.664
132.454	30.643	2240.396	2356.245
133.468	31.035	2240.306	2360.854
134.483	30.994	2237.145	2356.720
135.497	30.505	2234.356	2347.295
136.512	30.780	2232.886	2348.957
137.527	30.852	2230.837	2347.436
138.541	30.690	2230.047	2344.265
139.556	30.172	2227.348	2334.592
140.570	30.377	2227.343	2336.905
141.585	30.934	2225.924	2342.173
142.600	31.058	2224.581	2342.041
143.614	30.795	2222.965	2336.752
144.629	31.194	2222.592	2341.109
145.643	30.696	2217.769	2329.480
146.658	30.367	2216.510	2323.738
147.673	30.516	2214.409	2323.132
148.687	30.888	2213.639	2326.718
149.702	30.667	2212.215	2322.169
150.716	30.309	2211.289	2316.436
151.731	30.831	2212.076	2323.530
152.746	31.798	2212.438	2335.750
153.760	30.031	2204.996	2305.535
154.775	26.173	2192.525	2244.126
155.789	24.394	2187.892	2216.918
156.804	27.069	2193.176	2255.434
157.819	29.198	2195.566	2284.195
158.833	29.951	2195.393	2293.116
159.848	30.703	2194.207	2300.954
160.862	31.205	2195.131	2307.893
161.877	31.434	2195.009	2310.336
162.892	31.270	2192.227	2305.087
163.906	31.272	2190.918	2303.462
164.921	31.214	2189.002	2300.463
165.935	31.092	2186.683	2296.237
166.950	30.721	2184.834	2289.428
167.964	30.529	2181.049	2282.818
168.979	30.643	2179.567	2282.406
169.994	30.851	2179.757	2284.891
171.008	31.106	2176.515	2284.363
172.023	30.849	2175.114	2279.457
173.037	31.057	2175.037	2281.655
174.052	31.007	2172.216	2277.811
175.067	30.643	2169.611	2270.344
176.081	30.867	2168.051	2271.192
177.096	30.827	2167.674	2270.032
178.110	30.524	2164.029	2262.238
179.125	30.324	2163.160	2258.608
180.140	30.704	2161.844	2261.604
181.154	30.708	2160.434	2259.916
182.169	30.176	2159.316	2251.983
183.183	29.217	2152.912	2233.348
184.198	25.776	2142.223	2180.206
185.213	24.906	2142.075	2169.205
186.227	28.852	2149.597	2224.676
187.242	30.375	2152.035	2245.465
188.256	30.446	2152.057	2246.074
189.271	31.416	2152.131	2257.674
190.286	31.645	2149.709	2257.635
191.300	30.889	2145.019	2243.287
192.315	30.906	2143.873	2242.025
193.329	31.219	2143.671	2245.331
194.344	31.440	2142.848	2246.871
195.359	31.336	2142.076	2244.535
196.373	31.820	2140.644	2248.611
197.388	31.677	2138.175	2244.028
198.402	31.011	2134.497	2231.879
199.417	30.823	2131.455	2226.177
200.432	30.975	2129.417	2225.612
201.446	31.173	2130.042	2228.364
202.461	31.398	2128.996	2229.708
203.475	30.805	2126.022	2219.227
204.490	30.678	2123.423	2214.720
205.504	30.683	2120.274	2211.234
206.519	30.317	2118.341	2204.584
207.534	30.424	2116.494	2203.673
208.548	30.593	2115.961	2204.877
209.563	30.300	2113.023	2198.054
210.577	29.998	2110.306	2191.381
211.592	30.421	2111.425	2197.311
212.607	28.941	2104.110	2171.878
213.621	24.806	2093.322	2111.547
214.636	24.735	2094.142	2111.272
215.650	28.580	2101.574	2164.203
216.665	30.109	2102.685	2183.211
217.680	30.534	2103.208	2188.517
218.694	31.205	2103.254	2196.241
219.709	31.111	2101.127	2192.652
220.723	31.103	2099.208	2190.290
221.738	31.201	2097.247	2189.137
222.753	31.120	2095.150	2185.738
223.767	31.069	2092.887	2182.509
224.782	30.601	2089.660	2173.385
225.796	30.251	2089.022	2168.355
226.811	30.412	2087.656	2168.563
227.826	30.904	2086.673	2173.054
228.840	31.312	2087.068	2177.988
229.855	31.056	2083.990	2171.522
230.869	30.880	2083.366	2168.550
231.884	31.003	2080.763	2167.023
232.899	30.796	2079.959	2163.506
233.913	30.925	2079.076	2163.829
234.928	31.335	2078.227	2167.469
235.942	31.407	2076.121	2165.858
236.957	31.110	2074.907	2160.876
237.972	31.078	2072.873	2158.128
238.986	31.308	2072.326	2159.970
240.001	31.159	2069.865	2155.413
241.015	30.719	2068.267	2148.393
242.030	30.045	2063.252	2135.113
243.045	26.640	2053.303	2085.240
244.059	25.703	2052.888	2073.719
245.074	29.422	2059.039	2122.789
246.088	30.681	2057.652	2135.650
247.103	30.539	2056.033	2132.067
248.117	30.596	2055.545	2131.971
249.132	31.131	2055.162	2137.476
250.147	31.060	2052.009	2133.127
251.161	30.539	2050.147	2124.948
252.176	30.534	2048.690	2123.132
253.190	29.361	2041.465	2101.960
254.205	27.406	2036.080	2073.803
255.220	27.386	2034.335	2071.544
256.234	27.615	2035.093	2074.689
257.249	28.034	2034.354	2078.479
258.263	27.662	2032.466	2072.050
259.278	27.061	2029.901	2062.333
260.293	27.132	2028.158	2061.125
261.307	28.802	2032.221	2084.063
262.322	30.362	2033.228	2102.619
263.336	30.107	2030.628	2096.782
264.351	29.959	2029.271	2093.445
265.366	30.202	2028.479	2095.147
266.380	30.608	2027.972	2098.972
267.395	30.098	2025.241	2090.114
268.409	30.265	2023.229	2089.683
269.424	30.659	2024.501	2095.208
270.439	30.953	2023.646	2097.395
271.453	29.758	2015.982	2075.733
272.468	25.643	2005.157	2018.050
273.482	24.911	2004.991	2009.387
274.497	28.378	2011.037	2054.349
275.512	30.390	2011.955	2077.707
276.526	30.690	2010.521	2079.343
277.541	30.870	2008.896	2079.428
278.555	30.992	2007.204	2078.800
279.570	30.080	2003.343	2064.351
280.585	29.839	2001.377	2059.377
281.599	30.410	2002.231	2066.397
282.614	30.411	1999.450	2063.289
283.628	28.541	1993.902	2036.478
284.643	27.795	1992.115	2026.081
285.657	28.122	1990.841	2028.194
286.672	27.806	1988.404	2021.944
287.687	27.269	1985.282	2012.563
288.701	26.950	1983.239	2006.702
289.716	26.886	1980.639	2003.121
290.730	26.913	1980.104	2002.647
291.745	27.638	1979.939	2010.277
292.760	27.629	1978.603	2008.581
293.774	27.803	1980.180	2011.868
294.789	29.646	1984.050	2035.989
295.803	30.686	1982.847	2046.015
296.818	30.464	1982.050	2042.498
297.833	30.612	1981.368	2043.179
298.847	31.037	1980.692	2046.931
299.862	31.134	1978.988	2045.995
300.876	30.033	1972.195	2026.627
301.891	26.220	1961.423	1973.530
302.906	25.383	1962.255	1964.931
303.920	29.607	1969.894	2018.855
304.935	31.115	1971.123	2036.432
305.949	30.851	1968.655	2030.743
306.964	31.153	1967.126	2032.237
307.979	31.070	1964.614	2028.489
308.993	29.661	1959.726	2007.819
310.008	28.083	1953.943	1984.463
311.022	27.803	1953.153	1980.364
312.037	28.157	1951.923	1982.743
313.052	27.474	1948.328	1971.425
314.066	26.579	1944.459	1957.550
315.081	26.145	1943.664	1951.803
316.095	26.060	1941.020	1947.986
317.110	26.032	1939.247	1945.669
318.125	26.208	1938.817	1946.919
319.139	26.580	1938.343	1950.233
320.154	27.433	1939.394	1960.298
321.168	27.592	1937.110	1959.471
322.183	28.717	1939.796	1974.112
323.197	29.908	1941.405	1988.392
324.212	30.167	1940.843	1990.373
325.227	30.375	1939.059	1990.544
326.241	30.835	1938.337	1994.522
327.256	31.187	1937.057	1996.746
328.270	30.782	1935.336	1990.382
329.285	30.629	1935.451	1988.614
330.300	29.688	1930.062	1972.749
331.314	25.664	1918.717	1917.909
332.329	25.173	1919.481	1913.177
333.343	29.050	1926.140	1961.204
334.358	31.284	1928.224	1987.013
335.373	31.611	1927.864	1989.902
336.387	31.474	1925.471	1985.727
337.402	31.424	1924.619	1984.077
338.416	30.911	1922.062	1975.735
339.431	30.929	1920.867	1974.464
340.446	31.599	1918.482	1978.904
341.460	30.187	1913.424	1958.466
342.475	28.404	1907.471	1933.257
343.489	27.514	1903.984	1920.068
344.504	26.946	1902.201	1912.028
345.519	26.797	1900.500	1908.506
346.533	26.780	1898.007	1905.601
347.548	27.064	1897.565	1907.924
348.562	27.576	1896.513	1912.044
349.577	27.591	1895.320	1910.767
350.592	27.067	1893.678	1903.363
351.606	26.916	1892.588	1900.454
352.621	26.744	1890.078	1895.896
353.635	27.919	1892.951	1910.910
354.650	29.246	1893.723	1925.412
355.665	29.433	1893.076	1926.490
356.679	30.051	1892.946	1932.608
357.694	30.640	1893.223	1938.827
358.708	31.192	1893.219	1944.380
359.723	29.861	1886.666	1923.518
360.738	25.849	1876.468	1871.101
361.752	25.918	1879.097	1874.224
362.767	29.624	1885.189	1918.843
363.781	30.983	1885.853	1933.471
364.796	31.182	1884.734	1934.169
365.810	30.965	1882.845	1929.736
366.825	31.165	1882.397	1931.125
367.840	31.546	1881.181	1933.608
368.854	31.198	1878.699	1927.221
369.869	29.351	1873.152	1902.170
370.883	27.995	1868.898	1883.584
371.898	27.282	1866.241	1873.299
372.913	27.263	1864.805	1871.443
373.927	27.477	1863.677	1872.298
374.942	27.235	1861.874	1867.757
375.956	27.057	1859.657	1863.482
376.971	26.635	1855.869	1855.114
377.986	26.078	1853.750	1847.047
379.000	26.994	1855.301	1857.799
380.015	29.274	1859.444	1885.193
381.029	30.863	1860.716	1902.592
382.044	31.120	1860.068	1904.331
383.059	31.181	1858.828	1903.466
384.073	30.984	1856.647	1898.986
385.088	30.508	1855.026	1892.229
386.102	30.103	1852.491	1885.276
387.117	29.931	1849.881	1880.639
388.132	29.905	1849.321	1879.580
389.146	29.212	1845.736	1868.651
390.161	25.479	1836.736	1821.369
391.175	25.157	1835.670	1816.812
392.190	28.461	1839.343	1853.871
393.205	29.575	1838.757	1864.371
394.219	30.051	1839.182	1869.414
395.234	30.563	1839.720	1874.923
396.248	30.894	1837.629	1875.927
397.263	30.397	1834.672	1867.653
398.278	30.132	1832.013	1862.047
399.292	30.073	1831.464	1860.671
400.307	30.379	1831.663	1863.742
401.321	30.336	1828.757	1860.133
402.336	28.097	1822.164	1830.697
403.350	26.494	1817.135	1809.336
404.365	27.016	1818.004	1815.225
405.380	27.614	1817.107	1820.121
406.394	27.133	1815.302	1813.265
407.409	26.742	1811.971	1805.811
408.423	26.463	1809.824	1800.665
409.438	26.417	1809.057	1799.225
410.453	27.367	1811.067	1810.509
411.467	28.790	1813.520	1826.977
412.482	29.852	1813.926	1837.786
413.496	30.249	1813.769	1841.368
414.511	30.098	1811.906	1837.748
415.526	30.408	1809.325	1837.996
416.540	31.145	1809.409	1845.190
417.555	30.766	1808.190	1839.959
418.569	30.199	1807.112	1833.014
419.584	30.449	1807.541	1835.710
420.599	30.660	1807.118	1837.154
421.613	30.377	1805.245	1832.228
422.628	30.693	1805.202	1835.100
423.642	31.431	1804.419	1841.393
424.657	31.311	1802.507	1838.035
425.672	30.644	1800.120	1828.790
426.686	31.160	1800.173	1833.723
427.701	31.528	1798.468	1835.395
428.715	31.491	1797.503	1833.826
429.730	31.992	1796.947	1837.973
430.745	32.063	1795.475	1836.949
431.759	30.917	1791.963	1821.877
432.774	29.134	1785.961	1798.075
433.788	26.845	1779.831	1769.274
434.803	25.865	1777.697	1757.336
435.818	25.899	1777.618	1757.384
436.832	26.137	1777.089	1758.978
437.847	25.303	1768.751	1742.386
438.861	14.786	1739.461	1611.872
439.876	2.674	1717.637	1474.888
440.890	0.440	1711.984	1448.316
441.905	0.170	1711.220	1444.883
442.920	0.188	1709.032	1443.036
443.934	0.201	1707.711	1441.875
444.949	0.113	1706.823	1440.105
445.963	0.068	1706.833	1439.514
446.978	0.007	1706.428	1438.414
447.993	0.121	1704.541	1437.745
449.007	0.103	1702.017	1435.268
450.022	0.129	1699.595	1433.308
451.036	0.186	1698.955	1433.143
452.051	0.738	1702.075	1440.888
453.066	9.649	1725.238	1546.576
454.080	21.546	1745.394	1679.908
455.095	24.342	1749.066	1710.233
456.109	24.604	1749.600	1713.077
457.124	24.570	1747.411	1710.398
458.139	24.526	1746.958	1709.327
459.153	24.627	1746.154	1709.308
460.168	24.505	1744.805	1706.605
461.182	24.700	1743.642	1707.135
462.197	24.956	1741.801	1707.588
463.212	25.161	1741.263	1708.813
464.226	25.375	1739.985	1709.409
465.241	25.148	1738.309	1705.386
466.255	24.872	1736.356	1700.626
467.270	24.953	1735.508	1700.368
468.285	25.348	1734.743	1703.185
469.299	25.386	1734.339	1702.946
470.314	25.419	1732.090	1700.850
471.328	25.363	1730.444	1698.496
472.343	25.368	1730.622	1698.508
473.358	25.261	1729.134	1695.828
474.372	25.185	1727.235	1693.045
475.387	25.454	1725.968	1694.155
476.401	25.355	1723.103	1690.195
477.416	24.959	1722.019	1685.193
478.430	24.653	1721.074	1681.169
479.445	25.194	1719.892	1684.922
480.460	25.559	1719.660	1687.941
481.474	25.577	1718.387	1686.661
482.489	25.267	1716.395	1681.582
483.503	24.875	1713.757	1675.106
484.518	24.791	1712.476	1672.871
485.533	24.781	1710.956	1671.090
486.547	24.426	1708.574	1665.230
487.562	23.895	1706.316	1657.859
488.576	24.154	1706.090	1659.863
489.591	24.269	1705.734	1660.395
490.606	24.675	1705.171	1663.452
491.620	24.905	1703.213	1663.491
492.635	24.462	1699.227	1655.264
493.649	24.122	1698.307	1651.006
494.664	24.747	1699.015	1657.318
495.679	25.552	1699.240	1664.837
496.693	25.253	1697.075	1659.739
497.708	25.125	1695.049	1656.371
498.722	24.627	1693.269	1649.808
499.737	24.582	1692.088	1648.042
500.752	24.924	1691.042	1649.995
501.766	25.053	1690.143	1650.116
502.781	25.026	1688.502	1648.067
503.795	25.087	1687.416	1647.375
504.810	24.930	1686.158	1644.502
505.825	24.745	1683.921	1640.413
506.839	24.580	1682.867	1637.667
507.854	24.482	1681.918	1635.651
508.868	24.425	1679.740	1632.811
509.883	24.291	1678.312	1629.996
510.898	24.002	1677.667	1626.523
511.912	24.183	1675.876	1626.247
512.927	24.216	1674.204	1624.733
513.941	24.163	1673.368	1623.248
514.956	24.386	1671.275	1623.060
515.971	24.099	1669.511	1618.535
516.985	24.040	1668.782	1617.088
518.000	24.173	1667.099	1616.480
519.014	23.872	1665.726	1612.210
520.029	23.709	1664.616	1609.456
521.043	23.944	1662.955	1609.802
522.058	24.163	1662.288	1610.951
523.073	24.189	1661.281	1610.018
524.087	23.790	1659.119	1604.115
525.102	23.765	1658.754	1603.342
526.116	24.445	1659.612	1610.144
527.131	24.771	1658.336	1611.667
528.146	24.400	1655.783	1605.635
529.160	24.017	1654.455	1600.693
530.175	24.149	1652.903	1600.200
531.189	24.118	1651.523	1598.392
532.204	23.879	1650.365	1594.922
533.219	24.267	1650.631	1598.488
534.233	24.856	1649.992	1602.981
535.248	24.574	1647.354	1597.687
536.262	23.645	1645.792	1587.635
537.277	23.581	1645.276	1586.378
538.292	23.966	1643.503	1587.925
539.306	23.950	1641.577	1585.739
540.321	23.709	1639.603	1581.479
541.335	23.570	1638.130	1578.628
542.350	23.655	1636.673	1577.798
543.365	23.646	1635.443	1576.341
544.379	23.703	1633.999	1575.264
545.394	23.691	1632.318	1573.349
546.408	24.002	1632.880	1576.479
547.423	24.746	1632.675	1582.707
548.438	24.963	1632.148	1583.940
549.452	24.481	1630.439	1577.811
550.467	24.327	1628.295	1574.180
551.481	24.287	1626.398	1571.801
552.496	23.971	1625.140	1567.600
553.511	23.589	1623.444	1562.395
554.525	23.536	1623.172	1561.479
555.540	23.510	1621.905	1559.846
556.554	23.575	1620.456	1558.835
557.569	23.696	1618.821	1558.146
558.583	23.806	1617.763	1557.909
559.598	23.740	1616.432	1555.859
560.613	23.745	1615.620	1554.933
561.627	23.520	1613.948	1551.166
562.642	23.362	1611.745	1547.475
563.656	22.929	1609.870	1541.694
564.671	22.930	1608.233	1539.948
565.686	23.001	1607.310	1539.503
566.700	23.179	1606.751	1540.337
567.715	23.248	1605.509	1539.568
568.729	23.265	1604.100	1538.181
569.744	23.519	1602.768	1538.935
570.759	23.406	1601.516	1536.563
571.773	23.502	1599.946	1535.708
572.788	23.142	1599.177	1531.657
573.802	23.230	1597.420	1530.550
574.817	23.053	1595.768	1527.253
575.832	22.750	1594.321	1523.054
576.846	22.924	1593.398	1523.496
577.861	23.362	1592.742	1526.484
578.875	23.342	1591.730	1525.159
579.890	23.244	1590.504	1522.949
580.905	23.120	1589.884	1521.101
581.919	23.085	1589.276	1520.035
582.934	22.972	1587.389	1517.077
583.948	22.956	1585.727	1515.166
584.963	22.996	1584.840	1514.481
585.978	23.454	1584.233	1517.667
586.992	23.328	1583.488	1515.687
588.007	22.959	1581.553	1510.486
589.021	23.098	1581.552	1511.490
590.036	23.202	1579.121	1509.886
591.051	22.977	1578.155	1506.846
592.065	23.057	1575.594	1504.911
593.080	22.904	1574.655	1502.522
594.094	22.978	1573.520	1501.896
595.109	23.396	1573.180	1504.959
596.123	24.137	1571.777	1509.751
597.138	23.820	1570.140	1505.301
598.153	23.410	1567.911	1499.500
599.167	23.391	1566.825	1498.120
600.182	23.262	1566.388	1496.423
601.196	23.209	1565.313	1494.766
602.211	23.305	1563.374	1493.553
603.226	22.870	1562.214	1488.576
604.240	22.911	1560.444	1487.064
605.255	22.896	1558.694	1485.093
606.269	22.836	1558.601	1484.321
607.284	23.046	1557.262	1484.640
608.299	22.718	1556.716	1481.173
609.313	23.086	1555.045	1482.505
610.328	22.894	1553.552	1479.285
611.342	22.871	1552.261	1477.686
612.357	22.830	1550.743	1475.725
613.372	22.822	1549.721	1474.501
614.386	22.802	1548.551	1473.043
615.401	22.530	1548.163	1470.219
616.415	22.390	1547.730	1468.458
617.430	22.253	1546.909	1466.359
618.445	22.416	1544.210	1464.990
619.459	22.391	1543.501	1463.930
620.474	22.807	1543.473	1467.204
621.488	22.995	1543.272	1468.409
622.503	23.147	1541.620	1467.927
623.518	22.757	1540.031	1462.994
624.532	22.545	1537.182	1458.345
625.547	22.422	1535.963	1455.993
626.561	22.240	1535.069	1453.454
627.576	22.095	1534.305	1451.353
628.591	22.505	1533.215	1453.553
629.605	22.778	1532.495	1454.960
630.620	22.702	1531.829	1453.525
631.634	22.997	1531.043	1455.046
632.649	22.915	1529.609	1452.829
633.663	22.717	1527.570	1449.084
634.678	22.422	1525.905	1444.900
635.693	22.308	1523.939	1441.926
636.707	22.193	1521.927	1438.900
637.722	22.009	1520.453	1435.824
638.736	22.136	1520.449	1436.688
639.751	22.411	1519.924	1438.286
640.766	22.529	1517.769	1437.036
641.780	22.542	1516.183	1435.468
642.795	22.458	1516.333	1434.752
643.809	22.444	1516.056	1434.202
644.824	22.527	1514.815	1433.541
645.839	22.750	1514.023	1434.436
646.853	22.606	1512.792	1431.929
647.868	22.655	1511.162	1430.614
648.882	22.630	1510.185	1429.308
649.897	22.809	1508.048	1428.576
650.912	22.587	1506.588	1425.217
651.926	22.492	1506.033	1423.750
652.941	22.480	1505.390	1422.877
653.955	22.677	1503.539	1422.550
654.970	22.724	1501.271	1420.612
655.985	22.673	1500.224	1419.038
656.999	22.613	1499.304	1417.518
658.014	22.375	1497.814	1414.014
659.028	22.400	1496.416	1412.727
660.043	22.473	1495.974	1412.735
661.058	22.410	1494.559	1410.715
662.072	22.390	1493.391	1409.288
663.087	22.505	1492.567	1409.261
664.101	22.582	1491.764	1408.955
665.116	22.653	1489.398	1407.126
666.131	22.441	1488.960	1404.844
667.145	22.423	1488.219	1403.828
668.160	22.355	1486.992	1401.963
669.174	22.342	1484.683	1399.513
670.189	22.215	1484.722	1398.366
671.204	22.453	1483.593	1399.037
672.218	22.300	1483.010	1397.099
673.233	22.279	1481.452	1395.294
674.247	22.226	1479.863	1393.208
675.262	22.038	1479.028	1390.755
676.276	22.174	1477.223	1389.975
677.291	22.331	1477.027	1390.872
678.306	22.511	1476.431	1391.572
679.320	22.297	1475.047	1388.406
680.335	22.305	1473.399	1386.752
681.349	22.220	1472.704	1385.260
682.364	22.217	1471.956	1384.363
683.379	22.216	1470.051	1382.397
684.393	22.163	1469.144	1380.960
685.408	22.031	1467.926	1378.608
686.422	22.131	1466.848	1378.225
687.437	22.001	1466.010	1376.247
688.452	21.749	1465.391	1373.512
689.466	21.963	1463.315	1373.090
690.481	21.988	1462.374	1372.234
691.495	22.142	1462.213	1373.132
692.510	22.392	1462.524	1375.220
693.525	22.869	1460.673	1377.060
694.539	22.587	1458.506	1372.643
695.554	22.047	1457.526	1367.330
696.568	21.777	1456.493	1364.082
697.583	21.815	1454.931	1362.761
698.598	21.847	1454.545	1362.481
699.612	21.704	1453.058	1359.808
700.627	21.849	1451.668	1359.475
701.641	22.030	1450.481	1359.610
702.656	22.062	1449.338	1358.628
703.671	21.888	1449.377	1357.147
704.685	21.982	1448.013	1356.438
705.700	21.909	1447.141	1354.895
706.714	22.079	1445.885	1354.875
707.729	22.176	1444.419	1354.083
708.744	22.198	1443.224	1352.976
709.758	22.194	1442.032	1351.663
710.773	22.287	1440.976	1351.228
711.787	22.154	1439.913	1349.047
712.802	22.398	1437.827	1348.810
713.816	22.225	1437.248	1346.771
714.831	22.295	1436.514	1346.463
715.846	22.109	1435.039	1343.491
716.860	21.832	1433.979	1340.207
717.875	21.982	1432.759	1340.061
718.889	22.031	1431.792	1339.370
719.904	21.974	1431.394	1338.400
720.919	21.964	1429.267	1336.174
721.933	21.792	1428.360	1333.856
722.948	21.822	1427.968	1333.553
723.962	21.710	1426.999	1331.637
724.977	21.667	1425.715	1329.948
725.992	21.822	1424.238	1329.595
727.006	22.059	1422.260	1329.394
728.021	21.933	1420.906	1327.011
729.035	21.775	1420.543	1325.311
730.050	21.769	1419.733	1324.352
731.065	21.831	1418.858	1323.846
732.079	21.805	1417.608	1322.327
733.094	21.993	1416.030	1322.118
734.108	22.026	1414.916	1321.173
735.123	21.865	1413.328	1318.313
736.138	21.890	1412.273	1317.362
737.152	21.921	1411.470	1316.690
738.167	21.989	1409.920	1315.596
739.181	21.892	1409.651	1314.458
740.196	21.797	1409.272	1313.231
741.211	21.741	1408.184	1311.641
742.225	21.802	1407.082	1310.910
743.240	21.628	1405.104	1307.606
744.254	21.656	1403.658	1306.313
745.269	21.554	1403.361	1305.117
746.284	21.423	1402.765	1303.423
747.298	21.797	1400.789	1304.227
748.313	21.890	1400.614	1304.610
749.327	21.985	1400.688	1305.227
750.342	22.452	1400.083	1307.999
751.356	22.767	1398.737	1308.936
752.371	22.532	1397.232	1305.614
753.386	21.890	1395.896	1299.432
754.400	21.738	1394.201	1296.571
755.415	21.820	1393.071	1295.974
756.429	21.892	1391.264	1294.669
757.444	21.882	1390.074	1293.334
758.459	21.838	1389.023	1291.879
759.473	21.811	1387.910	1290.490
760.488	21.755	1386.398	1288.510
761.502	21.624	1385.780	1286.814
762.517	21.909	1384.793	1287.851
763.532	21.819	1384.000	1286.295
764.546	21.793	1383.652	1285.627
765.561	21.843	1383.275	1285.486
766.575	22.064	1382.195	1285.957
767.590	22.364	1380.650	1286.572
768.605	22.054	1379.184	1282.777
769.619	21.844	1377.764	1279.762
770.634	21.826	1376.509	1278.311
771.648	21.618	1374.885	1275.126
772.663	21.404	1374.573	1273.117
773.678	21.594	1373.954	1273.782
774.692	21.539	1373.297	1272.617
775.707	21.457	1372.479	1271.113
776.721	21.482	1371.305	1270.055
777.736	21.731	1369.687	1270.215
778.751	21.694	1368.333	1268.542
779.765	21.743	1368.062	1268.495
780.780	21.641	1367.456	1267.038
781.794	21.797	1365.672	1266.366
782.809	21.638	1364.740	1264.197
783.824	21.434	1364.432	1262.279
784.838	21.772	1363.185	1263.424
785.853	22.151	1362.888	1265.742
786.867	22.000	1362.187	1263.845
787.882	21.791	1361.353	1261.409
788.897	21.627	1360.070	1258.886
789.911	21.605	1358.375	1257.008
790.926	21.459	1357.246	1254.759
791.940	21.497	1355.822	1253.568
792.955	21.429	1354.156	1251.387
793.969	21.319	1353.555	1249.894
794.984	21.421	1352.459	1249.464
795.999	21.442	1351.658	1248.727
797.013	21.514	1350.009	1247.566
798.028	21.616	1347.785	1246.091
799.042	21.563	1347.843	1245.616
800.057	21.508	1346.166	1243.522
801.072	21.528	1344.884	1242.335
802.086	21.502	1343.929	1241.116
803.101	21.508	1342.884	1240.051
804.115	21.429	1342.281	1238.777
805.130	21.415	1341.269	1237.602
806.145	21.564	1339.854	1237.201
807.159	21.472	1338.387	1235.045
808.174	21.532	1337.896	1234.877
809.188	21.696	1336.132	1234.257
810.203	21.624	1335.304	1232.833
811.218	21.894	1333.746	1233.159
812.232	21.837	1333.190	1232.093
813.247	21.974	1331.698	1231.535
814.261	21.724	1331.110	1229.079
815.276	21.757	1329.967	1228.114
816.291	21.420	1328.978	1224.681
817.305	21.402	1328.010	1223.515
818.320	21.481	1326.034	1222.100
819.334	21.482	1324.503	1220.554
820.349	21.526	1323.445	1219.737
821.364	21.430	1322.235	1217.808
822.378	21.384	1320.982	1216.185
823.393	21.365	1319.529	1214.565
824.407	21.419	1318.457	1213.815
825.422	21.240	1318.450	1212.408
826.437	21.320	1317.036	1211.521
827.451	21.382	1315.560	1210.453
828.466	21.712	1314.975	1212.064
829.480	21.979	1313.301	1212.231
830.495	21.687	1311.339	1208.246
831.509	21.406	1310.222	1205.126
832.524	21.440	1308.793	1203.908
833.539	21.263	1307.992	1201.801
834.553	21.347	1306.582	1200.941
835.568	21.382	1305.323	1199.886
836.582	21.324	1304.724	1198.789
837.597	21.382	1303.480	1197.903
838.612	21.496	1301.806	1197.006
839.626	21.453	1300.698	1195.549
840.641	21.620	1300.194	1196.086
841.655	21.844	1299.286	1196.646
842.670	21.938	1298.657	1196.563
843.685	22.051	1297.731	1196.343
844.699	21.843	1296.115	1193.286
845.714	21.520	1295.017	1189.925
846.728	21.534	1293.638	1188.616
847.743	21.481	1292.329	1186.910
848.758	21.207	1291.589	1184.217
849.772	21.355	1289.945	1183.577
850.787	21.323	1288.120	1181.543
851.801	21.364	1287.091	1180.736
852.816	21.341	1286.372	1179.776
853.831	21.270	1284.595	1177.528
854.845	21.412	1282.479	1176.406
855.860	21.222	1281.278	1173.880
856.874	21.344	1280.572	1173.917
857.889	21.559	1279.668	1174.402
858.904	21.890	1278.747	1175.645
859.918	21.893	1277.550	1174.421
860.933	22.049	1275.805	1173.727
861.947	21.911	1274.737	1171.678
862.962	21.677	1273.324	1168.667
863.977	21.684	1271.964	1167.324
864.991	21.276	1271.535	1164.059
866.006	21.324	1271.063	1163.811
867.020	21.319	1269.437	1162.147
868.035	21.168	1268.534	1160.176
869.049	21.265	1267.757	1159.970
870.064	21.430	1266.448	1159.735
871.079	21.363	1265.710	1158.476
872.093	21.439	1265.067	1158.256
873.108	21.333	1264.229	1156.644
874.122	21.645	1262.845	1157.309
875.137	21.654	1262.848	1157.237
876.152	21.829	1262.293	1157.748
877.166	21.738	1259.998	1154.904
878.181	21.638	1258.471	1152.705
879.195	21.440	1258.336	1151.134
880.210	21.427	1257.036	1149.719
881.225	21.452	1255.827	1148.644
882.239	21.447	1254.515	1147.273
883.254	21.424	1254.290	1146.778
884.268	21.414	1253.245	1145.619
885.283	21.392	1251.566	1143.801
886.298	21.432	1249.942	1142.439
887.312	21.370	1249.034	1141.069
888.327	21.539	1247.584	1140.718
889.341	21.472	1246.436	1139.088
890.356	21.316	1245.957	1137.499
891.371	21.366	1245.387	1137.164
892.385	21.405	1245.233	1137.143
893.400	21.350	1244.594	1136.066
894.414	21.481	1242.990	1135.322
895.429	21.670	1241.960	1135.472
896.444	22.200	1240.620	1137.561
897.458	22.426	1239.860	1138.195
898.473	22.170	1238.441	1135.095
899.487	21.889	1237.249	1132.046
900.502	21.719	1235.900	1129.574
901.517	21.486	1234.581	1126.726
902.531	21.393	1233.843	1125.314
903.546	21.472	1233.200	1125.106
904.560	21.356	1232.290	1123.394
905.575	21.480	1231.721	1123.535
906.589	21.406	1230.867	1122.147
907.604	21.645	1230.222	1122.964
