DTS Sentinel unit serial number:	SN409020Multiplexer serial number:	ORYXHardware model number:	OX4-SRSoftware version number:	ORYX F/W v3.00 Oryx Data Collector v3.7.2.0data status	okinstallation	HaddamTimeLapsedifferential loss correction	single-endedforward channel	channel 3reverse channel	N/Adate	2011/06/21time	13:51:17forward acquisition time	30.00reverse acquisition time	0.00gamma	498.7831k internal	0.1812k external	0.1812temperature offset calibration	1.0074default loss term (dB/km)	0.3790temperature slope calibration	1.3530multiplexer offset coefficient	1.0000multiplexer slope coefficient	1.0000fibre end	0.00T internal ref (°C)	36.09T ext. ref 1 (°C)	31.82T ext. ref 2 (°C)	0.24length (m)	temperature (°C)	Stokes	anti-Stokes-747.200	13.652	-0.316	0.315
-746.185	34.580	0.426	0.478
-745.171	-37.100	-0.260	-0.178
-744.156	188.036	-0.222	0.426
-743.142	-138.131	0.027	0.004
-742.127	207.058	-0.108	0.216
-741.112	179.987	-0.325	-0.614
-740.098	72.830	-0.383	0.514
-739.083	-200.000	0.019	-0.334
-738.069	-200.000	0.025	-0.357
-737.054	47.030	0.116	0.139
-736.039	-126.501	-0.365	-0.069
-735.025	348.838	0.043	-0.110
-734.010	566.269	0.110	0.345
-732.996	800.000	-0.108	-0.557
-731.981	-197.112	-0.107	-0.001
-730.966	-29.023	0.442	-0.325
-729.952	-200.000	-0.024	-0.542
-728.937	21.283	0.299	-0.311
-727.923	-97.151	0.517	0.172
-726.908	800.000	-0.045	-0.206
-725.894	0.298	-0.093	0.085
-724.879	4.643	0.104	0.098
-723.864	-110.727	-0.461	-0.121
-722.850	-102.773	0.391	-0.119
-721.835	-200.000	-0.005	-0.209
-720.821	5.909	-0.419	-0.397
-719.806	46.309	-0.237	-0.282
-718.791	800.000	-0.030	-0.153
-717.777	-74.256	0.161	0.074
-716.762	-4.694	-0.221	0.195
-715.748	-200.000	-0.071	-0.431
-714.733	-49.984	-0.144	-0.087
-713.718	-154.458	0.227	0.019
-712.704	151.248	0.049	-0.086
-711.689	-77.374	0.519	-0.230
-710.675	-39.363	0.060	0.040
-709.660	462.847	-0.011	0.032
-708.645	-39.463	0.340	0.228
-707.631	203.451	0.224	0.445
-706.616	800.000	-0.090	0.360
-705.602	158.363	-0.185	0.330
-704.587	-144.988	-0.607	-0.070
-703.572	-189.426	0.272	-0.004
-702.558	-200.000	0.029	-0.283
-701.543	-22.756	-0.247	-0.191
-700.529	462.885	0.058	-0.167
-699.514	39.585	-0.212	-0.244
-698.499	-53.408	-0.047	-0.027
-697.485	800.000	0.141	-0.509
-696.470	-44.249	0.208	-0.133
-695.456	362.508	0.102	-0.263
-694.441	-6.857	-0.127	-0.111
-693.426	800.000	0.057	-0.304
-692.412	43.626	0.319	0.374
-691.397	-200.000	0.010	-0.358
-690.383	-124.688	-0.272	0.054
-689.368	-42.266	0.288	-0.188
-688.354	-27.845	-0.387	-0.287
-687.339	800.000	-0.076	0.288
-686.324	457.966	-0.083	0.237
-685.310	-19.234	-0.218	0.173
-684.295	57.445	-0.322	0.403
-683.281	612.542	0.071	0.229
-682.266	123.268	-0.293	0.472
-681.251	769.701	0.044	0.155
-680.237	275.831	-0.172	0.392
-679.222	-65.547	0.142	0.073
-678.208	39.181	-0.561	0.643
-677.193	625.411	-0.289	0.938
-676.178	-200.000	0.004	0.464
-675.164	-23.885	0.313	0.239
-674.149	44.172	-0.107	-0.125
-673.135	-93.550	0.168	-0.059
-672.120	20.088	-0.384	-0.397
-671.105	-17.350	0.043	-0.034
-670.091	299.129	-0.262	0.620
-669.076	71.948	-0.071	0.095
-668.062	-106.553	0.368	0.104
-667.047	-200.000	0.019	0.413
-666.032	-168.364	0.119	0.006
-665.018	-181.664	-0.488	0.012
-664.003	-89.291	-0.247	-0.093
-662.989	5.752	0.161	0.152
-661.974	-200.000	0.007	-0.164
-660.959	-37.245	0.357	-0.244
-659.945	-48.302	-0.214	-0.132
-658.930	-113.773	0.301	-0.074
-657.916	269.144	-0.136	0.307
-656.901	-38.399	0.149	0.101
-655.886	-120.128	-0.212	-0.046
-654.872	413.728	-0.042	0.116
-653.857	166.250	0.111	-0.201
-652.843	250.531	-0.138	-0.301
-651.828	-14.784	0.211	0.173
-650.814	-162.536	0.116	0.007
-649.799	-164.563	-0.349	0.020
-648.784	-55.297	0.255	-0.146
-647.770	93.018	-0.315	0.455
-646.755	-16.731	-0.241	0.195
-645.741	48.671	-0.209	0.251
-644.726	-27.968	-0.196	-0.145
-643.711	-32.973	-0.087	-0.061
-642.697	138.519	0.232	0.390
-641.682	27.975	-0.311	0.335
-640.668	-92.895	-0.232	-0.082
-639.653	13.321	-0.064	-0.063
-638.638	-200.000	-0.087	-0.502
-637.624	-200.000	-0.045	-0.308
-636.609	72.533	-0.251	-0.335
-635.595	800.000	-0.127	-0.597
-634.580	313.714	0.036	0.086
-633.565	-36.643	-0.319	0.218
-632.551	11.457	0.146	-0.143
-631.536	-147.986	0.126	0.013
-630.522	800.000	0.057	-0.256
-629.507	-200.000	0.078	0.536
-628.492	800.000	0.080	-0.396
-627.478	99.890	0.133	-0.198
-626.463	-12.503	0.132	-0.110
-625.449	-159.954	0.225	0.015
-624.434	7.523	-0.023	0.022
-623.419	90.576	-0.119	0.170
-622.405	-117.964	0.331	0.075
-621.390	-42.716	0.440	0.285
-620.376	100.636	-0.195	0.290
-619.361	-200.000	-0.006	0.070
-618.346	-200.000	-0.471	-0.003
-617.332	308.774	-0.240	-0.575
-616.317	-5.830	-0.123	-0.108
-615.303	-59.801	-0.128	0.070
-614.288	-200.000	-0.008	0.338
-613.273	4.542	0.045	-0.042
-612.259	-140.378	0.493	0.065
-611.244	800.000	-0.126	-0.617
-610.230	-100.527	-0.511	-0.160
-609.215	-200.000	0.014	0.078
-608.201	271.850	0.126	-0.285
-607.186	96.727	0.235	0.345
-606.171	-47.970	0.069	-0.043
-605.157	123.899	-0.124	-0.199
-604.142	-132.913	0.256	0.041
-603.128	-9.860	0.375	0.318
-602.113	-64.498	-0.286	0.148
-601.098	792.757	0.137	0.484
-600.084	-86.566	-0.127	0.049
-599.069	102.193	-0.320	-0.478
-598.055	-167.316	-0.087	0.004
-597.040	-139.712	0.340	-0.046
-596.025	291.030	-0.236	-0.549
-595.011	-17.673	-0.208	0.166
-593.996	192.589	-0.093	0.180
-592.982	-19.852	-0.174	0.137
-591.967	362.575	-0.036	0.092
-590.952	112.635	0.241	-0.373
-589.938	317.111	0.086	-0.207
-588.923	13.398	-0.497	0.492
-587.909	-90.477	-0.169	0.062
-586.894	-72.494	-0.276	-0.130
-585.879	1.390	0.104	-0.095
-584.865	-158.916	0.341	0.024
-583.850	-162.137	-0.322	-0.020
-582.836	-79.069	-0.378	0.163
-581.821	737.001	0.087	-0.298
-580.806	-140.696	-0.387	-0.051
-579.792	-200.000	0.020	-0.436
-578.777	222.904	-0.156	-0.322
-577.763	-146.939	0.181	0.020
-576.748	-200.000	-0.012	-0.305
-575.733	-7.737	0.163	0.140
-574.719	800.000	0.022	-0.116
-573.704	-200.000	-0.023	-0.217
-572.690	-50.723	-0.057	0.034
-571.675	-47.829	0.115	0.071
-570.661	182.391	0.124	0.233
-569.646	-200.000	0.076	-0.539
-568.631	286.047	0.143	-0.331
-567.617	18.499	-0.255	0.260
-566.602	65.484	0.141	0.182
-565.588	-171.002	-0.096	0.004
-564.573	464.689	-0.113	-0.325
-563.558	-126.863	0.676	0.126
-562.544	559.825	0.009	0.028
-561.529	-23.371	0.099	-0.076
-560.515	-61.280	-0.313	-0.167
-559.500	461.792	-0.130	-0.370
-558.485	718.976	0.060	-0.203
-557.471	-107.722	0.320	0.088
-556.456	-172.855	0.423	-0.016
-555.442	-200.000	0.040	0.581
-554.427	-17.193	-0.571	0.458
-553.412	-200.000	-0.095	-0.560
-552.398	-200.000	-0.003	0.148
-551.383	20.060	0.180	0.185
-550.369	-113.795	-0.167	-0.041
-549.354	127.125	-0.187	-0.303
-548.339	-140.049	-0.336	-0.045
-547.325	63.763	0.103	-0.132
-546.310	-139.370	-0.138	0.019
-545.296	-81.313	-0.346	-0.145
-544.281	-173.311	-0.195	0.007
-543.266	-200.000	-0.052	0.402
-542.252	-69.281	-0.334	0.163
-541.237	-200.000	-0.001	-0.039
-540.223	800.000	0.002	0.009
-539.208	-69.495	-0.402	-0.195
-538.193	322.193	-0.172	-0.420
-537.179	-127.028	0.139	0.026
-536.164	-200.000	0.048	0.329
-535.150	138.211	0.089	-0.148
-534.135	297.900	0.217	-0.511
-533.121	-200.000	-0.030	-0.438
-532.106	5.147	0.022	0.020
-531.091	-115.595	-0.572	0.136
-530.077	76.606	-0.279	-0.377
-529.062	139.983	-0.020	-0.034
-528.048	162.852	-0.277	0.496
-527.033	-99.808	-0.120	0.038
-526.018	47.183	0.144	0.170
-525.004	-71.978	0.090	-0.043
-523.989	-50.183	0.098	0.059
-522.975	-64.250	0.102	-0.053
-521.960	-165.835	-0.345	-0.019
-520.945	61.583	-0.132	-0.167
-519.931	-122.312	0.301	-0.062
-518.916	800.000	-0.091	0.333
-517.902	-101.151	-0.249	-0.077
-516.887	-200.000	-0.001	0.301
-515.872	21.845	-0.214	0.222
-514.858	-29.161	-0.318	-0.231
-513.843	226.992	0.028	-0.057
-512.829	0.657	-0.053	0.048
-511.814	-200.000	0.048	0.397
-510.799	-49.007	0.559	-0.339
-509.785	-24.366	0.186	0.141
-508.770	-70.962	-0.165	0.079
-507.756	-114.209	-0.097	-0.024
-506.741	190.475	-0.118	-0.226
-505.726	242.523	0.118	0.252
-504.712	186.702	0.152	-0.288
-503.697	-200.000	-0.023	-0.207
-502.683	-103.036	-0.027	-0.008
-501.668	133.439	0.142	-0.235
-500.653	37.409	0.223	-0.251
-499.639	53.369	-0.483	-0.589
-498.624	4.347	0.510	-0.475
-497.610	-120.723	0.660	0.141
-496.595	-67.850	-0.619	0.306
-495.581	101.650	-0.290	0.431
-494.566	-7.712	-0.012	0.010
-493.551	-110.293	0.217	-0.057
-492.537	-53.154	0.250	-0.145
-491.522	60.530	0.044	-0.056
-490.508	123.585	0.072	-0.115
-489.493	285.826	-0.099	-0.229
-488.478	655.892	-0.016	0.053
-487.464	800.000	0.041	0.226
-486.449	-200.000	0.002	-0.096
-485.435	106.617	0.109	-0.165
-484.420	-4.300	-0.209	-0.184
-483.405	-145.476	-0.330	-0.037
-482.391	-61.828	0.640	-0.339
-481.376	800.000	-0.084	-0.355
-480.362	-132.902	-0.344	-0.055
-479.347	-0.799	0.105	-0.095
-478.332	214.463	0.084	-0.169
-477.318	-90.144	0.346	-0.127
-476.303	570.555	0.054	-0.168
-475.289	-52.410	-0.227	0.133
-474.274	175.543	0.154	0.284
-473.259	320.128	0.131	0.317
-472.245	800.000	-0.036	0.161
-471.230	23.524	-0.090	-0.094
-470.216	299.955	0.158	0.372
-469.201	800.000	-0.039	0.153
-468.186	-13.455	0.181	0.149
-467.172	400.889	-0.135	-0.361
-466.157	-182.767	0.250	-0.006
-465.143	800.000	-0.158	0.612
-464.128	-72.567	0.258	-0.121
-463.113	-122.543	0.124	0.025
-462.099	-60.821	0.110	-0.059
-461.084	342.416	-0.117	-0.292
-460.070	-135.564	0.195	0.029
-459.055	-36.823	0.095	0.065
-458.040	-14.477	-0.316	-0.258
-457.026	800.000	-0.049	-0.248
-456.011	-48.945	0.279	0.169
-454.997	-66.747	0.571	0.286
-453.982	-142.161	-0.170	-0.021
-452.968	-200.000	0.017	-0.392
-451.953	-4.422	-0.453	-0.397
-450.938	-76.111	0.173	0.077
-449.924	248.222	0.310	0.668
-448.909	-109.939	0.371	-0.098
-447.895	-66.808	0.480	-0.240
-446.880	-132.679	0.289	-0.046
-445.865	-47.430	0.427	-0.262
-444.851	-200.000	0.019	-0.219
-443.836	13.239	-0.067	0.066
-442.822	131.523	-0.042	-0.068
-441.807	-112.778	-0.173	-0.043
-440.792	-78.795	0.278	0.120
-439.778	-90.595	0.342	0.125
-438.763	244.291	0.084	0.180
-437.749	-131.187	0.248	0.041
-436.734	128.061	0.197	0.318
-435.719	274.557	-0.115	-0.259
-434.705	-92.041	0.163	0.058
-433.690	193.378	-0.098	0.188
-432.676	-200.000	0.017	-0.457
-431.661	-60.025	0.105	-0.057
-430.646	-53.342	-0.209	-0.121
-429.632	71.506	-0.275	-0.363
-428.617	-9.978	-0.268	0.226
-427.603	447.420	0.139	-0.390
-426.588	-73.298	-0.169	0.078
-425.573	-27.471	-0.313	0.230
-424.559	369.311	-0.178	0.459
-423.544	31.809	0.199	-0.217
-422.530	482.096	-0.172	-0.498
-421.515	130.192	-0.282	0.459
-420.500	-200.000	-0.055	0.343
-419.486	-129.265	-0.210	0.037
-418.471	-99.562	-0.308	0.097
-417.457	-6.407	0.281	0.242
-416.442	-6.889	0.157	0.135
-415.428	203.357	0.275	0.541
-414.413	-0.195	0.115	-0.103
-413.398	-0.953	-0.173	0.155
-412.384	244.932	0.293	-0.627
-411.369	81.408	0.161	0.221
-410.355	-200.000	-0.010	0.171
-409.340	-155.418	-0.037	-0.003
-408.325	55.338	-0.344	0.422
-407.311	-131.487	-0.250	0.041
-406.296	-62.514	0.406	0.213
-405.282	11.733	-0.112	0.109
-404.267	14.745	-0.188	0.186
-403.252	-53.242	-0.429	-0.249
-402.238	-68.830	-0.050	-0.024
-401.223	-24.871	0.150	0.113
-400.209	-84.612	0.420	0.167
-399.194	-104.376	-0.614	0.179
-398.179	-2.672	-0.387	-0.342
-397.165	21.192	-0.072	-0.074
-396.150	96.147	-0.077	-0.112
-395.136	325.806	-0.124	0.301
-394.121	-164.218	-0.456	0.026
-393.106	-10.339	0.179	0.150
-392.092	-130.768	0.198	-0.033
-391.077	-5.036	-0.353	-0.308
-390.063	-72.684	-0.265	0.123
-389.048	-57.341	0.250	0.139
-388.033	206.883	0.184	-0.364
-387.019	800.000	-0.097	0.409
-386.004	22.941	0.025	0.026
-384.990	197.970	-0.250	-0.485
-383.975	-64.362	0.087	0.045
-382.960	-86.889	0.495	0.190
-381.946	-88.946	0.163	0.061
-380.931	-51.978	0.159	0.093
-379.917	560.917	-0.070	0.216
-378.902	-168.730	-0.371	-0.017
-377.888	523.553	0.046	-0.139
-376.873	-26.194	-0.361	-0.268
-375.858	13.770	0.147	0.144
-374.844	-167.805	0.187	0.009
-373.829	-21.836	0.194	-0.149
-372.815	-159.724	-0.319	-0.022
-371.800	-150.665	0.467	-0.044
-370.785	-24.258	-0.120	0.091
-369.771	-73.661	0.019	-0.009
-368.756	-35.895	-0.117	-0.080
-367.742	351.461	-0.042	0.105
-366.727	-122.969	0.331	-0.067
-365.712	-137.495	-0.144	-0.020
-364.698	-31.754	-0.192	-0.136
-363.683	-80.627	-0.161	-0.068
-362.669	-104.828	-0.377	-0.109
-361.654	22.190	0.208	-0.215
-360.639	800.000	0.060	0.261
-359.625	201.531	0.130	-0.254
-358.610	-12.797	0.392	0.322
-357.596	-71.179	0.382	0.180
-356.581	-114.709	-0.296	0.071
-355.566	-171.541	0.144	-0.006
-354.552	154.475	0.146	0.255
-353.537	-89.765	-0.241	0.089
-352.523	-200.000	0.016	-0.315
-351.508	501.178	0.159	-0.468
-350.493	132.096	-0.104	-0.170
-349.479	-121.985	0.171	-0.035
-348.464	-153.823	-0.146	0.012
-347.450	164.465	-0.067	-0.119
-346.435	-174.325	0.327	-0.012
-345.420	605.351	-0.008	-0.025
-344.406	-159.439	-0.486	-0.034
-343.391	-150.356	0.187	0.018
-342.377	-38.647	0.159	-0.106
-341.362	33.956	-0.322	0.355
-340.348	92.393	-0.190	0.271
-339.333	-90.949	0.526	0.190
-338.318	-118.977	0.085	0.019
-337.304	800.000	0.047	0.251
-336.289	-52.182	0.232	-0.135
-335.275	-83.332	-0.442	0.178
-334.260	174.620	0.050	0.092
-333.245	-200.000	-0.008	-0.145
-332.231	294.475	-0.160	0.371
-331.216	-91.784	-0.195	-0.070
-330.202	130.239	-0.129	0.208
-329.187	-200.000	0.056	0.361
-328.172	-200.000	0.056	-0.386
-327.158	-15.473	-0.175	0.141
-326.143	-140.826	0.360	-0.046
-325.129	-40.461	-0.282	0.184
-324.114	78.109	0.024	-0.033
-323.099	-73.332	-0.437	0.201
-322.085	-181.764	-0.359	0.009
-321.070	627.707	-0.104	-0.334
-320.056	-38.673	0.272	-0.181
-319.041	-18.455	0.160	0.126
-318.026	800.000	-0.075	0.358
-317.012	-101.625	0.315	-0.096
-315.997	-66.303	-0.163	0.081
-314.983	-157.821	0.178	-0.013
-313.968	40.956	0.231	0.263
-312.953	-12.492	-0.099	-0.082
-311.939	175.776	0.112	-0.206
-310.924	64.409	0.309	-0.393
-309.910	37.507	-0.241	-0.270
-308.895	-135.761	-0.420	-0.062
-307.880	201.841	0.239	0.467
-306.866	73.120	0.201	-0.266
-305.851	-32.047	-0.204	0.144
-304.837	-115.744	0.159	0.037
-303.822	18.343	-0.201	0.202
-302.807	-95.372	0.199	-0.067
-301.793	-65.810	0.099	-0.050
-300.778	-190.253	-0.242	-0.003
-299.764	800.000	0.139	-0.540
-298.749	86.242	-0.136	-0.190
-297.735	-81.941	-0.167	0.068
-296.720	-23.417	0.136	-0.103
-295.705	80.118	0.392	0.532
-294.691	86.800	-0.178	-0.248
-293.676	-55.095	0.686	-0.388
-292.662	587.782	0.069	-0.215
-291.647	-129.048	-0.164	-0.029
-290.632	60.755	0.210	-0.262
-289.618	362.319	-0.076	0.193
-288.603	196.007	0.297	0.572
-287.589	56.915	0.342	0.421
-286.574	-6.167	0.406	0.349
-285.559	51.441	-0.162	0.194
-284.545	800.000	-0.046	0.184
-283.530	-69.237	-0.329	-0.159
-282.516	657.654	0.070	0.228
-281.501	54.255	0.237	-0.288
-280.486	-102.670	0.153	-0.046
-279.472	-38.143	-0.341	-0.227
-278.457	-43.888	-0.226	0.143
-277.443	-200.000	-0.053	0.357
-276.428	42.761	0.185	-0.212
-275.413	-5.121	0.553	-0.479
-274.399	-170.320	0.272	0.012
-273.384	-88.725	0.522	0.194
-272.370	-200.000	0.007	0.064
-271.355	-52.101	-0.316	0.184
-270.340	800.000	0.076	0.407
-269.326	-70.996	-0.783	0.370
-268.311	65.028	-0.269	-0.343
-267.297	-54.110	-0.162	0.092
-266.282	40.632	-0.227	0.258
-265.267	-112.878	0.277	-0.069
-264.253	-200.000	-0.037	-0.222
-263.238	-130.359	0.173	-0.029
-262.224	-75.716	0.330	0.147
-261.209	-200.000	-0.033	-0.339
-260.195	-42.559	-0.122	0.078
-259.180	-109.241	0.128	-0.034
-258.165	-85.689	-0.348	-0.136
-257.151	125.590	0.125	0.199
-256.136	-7.640	0.224	-0.190
-255.122	-200.000	-0.063	0.644
-254.107	-200.000	-0.025	-0.421
-253.092	800.000	-0.078	-0.376
-252.078	12.233	-0.312	0.302
-251.063	49.846	0.205	0.244
-250.049	-62.839	0.256	0.133
-249.034	3.729	0.157	-0.144
-248.019	230.651	-0.159	0.329
-247.005	7.814	-0.488	0.460
-245.990	95.590	-0.087	0.125
-244.976	-117.791	-0.342	-0.077
-243.961	-18.771	0.240	0.188
-242.946	228.588	0.147	0.302
-241.932	-84.903	0.150	0.059
-240.917	-85.832	0.371	-0.144
-239.903	-59.238	0.305	0.165
-238.888	-118.579	-0.222	0.049
-237.873	-103.373	0.145	0.043
-236.859	31.142	0.517	0.559
-235.844	-93.529	0.548	0.190
-234.830	690.775	0.259	0.857
-233.815	-52.298	-0.069	0.040
-232.800	0.461	-0.029	0.026
-231.786	-34.068	-0.270	0.186
-230.771	-28.708	-0.449	-0.325
-229.757	-135.934	0.312	-0.046
-228.742	-87.481	0.439	0.166
-227.727	-9.220	0.116	0.098
-226.713	-200.000	-0.081	0.511
-225.698	490.291	-0.096	-0.278
-224.684	-34.610	-0.064	0.044
-223.669	-160.754	-0.253	-0.017
-222.655	-200.000	0.018	-0.170
-221.640	-25.636	0.134	-0.099
-220.625	-96.873	-0.654	0.215
-219.611	63.808	-0.377	0.477
-218.596	-57.118	0.146	-0.081
-217.582	-200.000	-0.372	0.001
-216.567	-200.000	-0.054	-0.337
-215.552	445.211	-0.110	0.304
-214.538	800.000	-0.019	0.095
-213.523	-45.557	0.563	-0.349
-212.509	72.093	-0.311	-0.407
-211.494	-39.065	-0.541	-0.357
-210.479	-183.995	-0.225	-0.005
-209.465	190.836	0.058	-0.110
-208.450	-90.421	0.529	-0.192
-207.436	-161.224	-0.115	-0.007
-206.421	486.233	-0.206	-0.594
-205.406	-181.455	0.266	-0.006
-204.392	-200.000	-0.047	0.265
-203.377	-123.268	-0.117	-0.023
-202.363	52.907	0.149	-0.179
-201.348	314.325	0.278	-0.660
-200.333	-28.970	-0.198	0.142
-199.319	-164.273	-0.507	0.029
-198.304	350.987	0.084	0.209
-197.290	25.845	0.521	0.546
-196.275	293.212	0.081	0.186
-195.260	-148.787	-0.249	-0.025
-194.246	-73.052	0.423	0.194
-193.231	73.956	0.090	-0.119
-192.217	-107.677	-0.276	0.075
-191.202	363.885	0.064	-0.161
-190.187	427.898	0.075	-0.203
-189.173	-26.223	-0.082	-0.060
-188.158	-39.345	-0.222	0.146
-187.144	-91.576	-0.252	-0.090
-186.129	-73.349	0.016	0.007
-185.114	-21.983	-0.246	-0.187
-184.100	-25.316	-0.274	0.203
-183.085	-1.387	-0.140	0.124
-182.071	-55.452	0.356	-0.200
-181.056	-51.535	0.329	0.192
-180.042	800.000	0.049	0.196
-179.027	-168.683	0.369	-0.017
-178.012	638.221	-0.170	0.547
-176.998	800.000	0.056	0.253
-175.983	25.470	0.348	0.363
-174.969	-200.000	-0.048	0.296
-173.954	-200.000	0.119	-0.001
-172.939	-119.131	-0.307	0.067
-171.925	-200.000	-0.026	-0.207
-170.910	114.798	-0.203	-0.311
-169.896	425.565	-0.065	-0.176
-168.881	209.627	0.079	-0.155
-167.866	-28.671	0.194	0.140
-166.852	39.721	0.040	-0.045
-165.837	-195.297	-0.130	-0.001
-164.823	15.206	0.465	-0.457
-163.808	-200.000	-0.018	-0.172
-162.793	252.453	-0.009	-0.018
-161.779	214.749	-0.159	0.318
-160.764	800.000	0.140	-0.496
-159.750	-56.862	0.127	0.070
-158.735	21.973	0.222	-0.227
-157.720	-65.673	0.437	-0.219
-156.706	44.031	0.187	0.215
-155.691	-200.000	0.034	-0.303
-154.677	-102.750	0.382	-0.113
-153.662	-127.614	0.211	-0.038
-152.647	597.248	-0.127	0.396
-151.633	-76.829	-0.442	-0.193
-150.618	-100.758	-0.143	-0.044
-149.604	-94.879	0.286	-0.097
-148.589	-83.712	-0.208	0.083
-147.574	-200.000	0.013	-0.104
-146.560	-40.701	-0.159	-0.103
-145.545	-110.096	0.328	-0.085
-144.531	109.179	-0.051	-0.076
-143.516	35.237	0.208	-0.228
-142.502	-18.578	-0.064	-0.050
-141.487	800.000	-0.086	-0.454
-140.472	800.000	-0.097	-0.483
-139.458	-135.584	-0.088	-0.013
-138.443	-55.316	0.445	0.250
-137.429	-200.000	0.003	-0.168
-136.414	-133.616	0.083	-0.013
-135.399	261.475	-0.089	-0.193
-134.385	112.748	-0.239	0.364
-133.370	-200.000	-0.008	0.302
-132.356	-76.539	0.478	0.209
-131.341	-67.744	0.039	-0.019
-130.326	-126.398	-0.239	0.044
-129.312	-104.011	0.378	-0.110
-128.297	-94.565	-0.069	-0.023
-127.283	74.338	0.122	0.161
-126.268	28.835	-0.775	-0.823
-125.253	800.000	0.020	0.081
-124.239	-73.652	0.491	0.223
-123.224	47.645	0.263	0.307
-122.210	46.112	-0.036	-0.042
-121.195	73.023	0.128	0.167
-120.180	-74.152	-0.445	0.201
-119.166	-121.596	-0.403	0.083
-118.151	640.383	0.090	0.287
-117.137	142.764	0.091	0.152
-116.122	-122.783	0.228	-0.046
-115.107	-34.914	-0.177	0.121
-114.093	-200.000	0.040	-0.375
-113.078	-14.189	0.282	-0.227
-112.064	-30.089	-0.442	-0.314
-111.049	-200.000	0.011	0.158
-110.034	13.138	0.325	0.315
-109.020	800.000	0.050	-0.270
-108.005	-13.839	-0.427	-0.345
-106.991	349.427	0.050	-0.125
-105.976	-32.993	0.331	0.230
-104.962	91.145	0.358	0.504
-103.947	2.860	-0.241	0.219
-102.932	-133.465	-0.366	0.057
-101.918	-52.579	-0.359	-0.207
-100.903	728.711	0.113	-0.381
-99.889	282.602	-0.200	-0.451
-98.874	-200.000	-0.052	-0.336
-97.859	-134.194	0.201	0.031
-96.845	286.813	0.257	-0.583
-95.830	22.333	-0.186	-0.190
-94.816	800.000	0.119	-0.413
-93.801	19.039	-0.124	-0.124
-92.786	22.060	-0.193	-0.197
-91.772	-200.000	0.010	0.133
-90.757	-200.000	-0.002	0.069
-89.743	-143.154	0.137	-0.016
-88.728	-21.350	-0.430	-0.328
-87.713	-157.042	-0.326	0.025
-86.699	644.810	0.105	-0.337
-85.684	-200.000	-0.015	-0.116
-84.670	800.000	-0.063	-0.298
-83.655	-98.808	-0.320	0.101
-82.640	-142.056	-0.352	-0.043
-81.626	-27.277	0.217	0.157
-80.611	505.576	0.045	0.132
-79.597	-200.000	-0.028	0.177
-78.582	772.775	-0.152	0.520
-77.567	-46.214	0.236	0.145
-76.553	738.196	0.017	-0.058
-75.538	142.984	-0.156	0.260
-74.524	-128.840	-0.283	0.049
-73.509	-94.085	-0.316	0.108
-72.494	-65.900	-0.286	0.143
-71.480	607.635	-0.182	0.570
-70.465	-106.910	0.453	0.124
-69.451	1.785	-0.128	0.115
-68.436	-59.861	0.337	0.180
-67.422	800.000	-0.034	0.121
-66.407	-89.004	0.441	0.162
-65.392	-147.800	-0.228	0.024
-64.378	-200.000	0.001	-0.325
-63.363	361.593	0.124	0.311
-62.349	-76.820	0.246	-0.107
-61.334	41.647	-1.048	-1.187
-60.319	-119.903	0.503	0.107
-59.305	394.360	-2.223	-5.815
-58.290	-20.491	2.871	2.202
-57.276	552.884	3.446	10.402
-56.261	-200.000	12.032	200.728
-55.246	496.515	1125.007	3248.829
-54.232	67.145	2771.455	3533.016
-53.217	73.422	2698.021	3531.790
-52.203	58.276	2430.638	2979.126
-51.188	45.020	2080.998	2395.479
-50.173	39.219	1946.613	2176.407
-49.159	37.166	1936.453	2142.208
-48.144	36.704	1931.872	2131.941
-47.130	36.504	1929.622	2127.161
-46.115	36.486	1927.531	2124.570
-45.100	36.541	1925.617	2122.988
-44.086	36.376	1924.950	2120.342
-43.071	36.337	1924.338	2119.162
-42.057	36.206	1922.699	2115.824
-41.042	36.282	1920.669	2114.343
-40.027	36.174	1920.003	2112.334
-39.013	36.331	1918.056	2111.839
-37.998	36.233	1916.246	2108.689
-36.984	36.386	1914.827	2108.715
-35.969	36.323	1913.771	2106.785
-34.954	36.320	1912.398	2105.157
-33.940	36.135	1912.470	2103.117
-32.925	36.172	1911.081	2101.916
-31.911	36.141	1909.892	2100.182
-30.896	36.217	1908.227	2099.106
-29.881	36.230	1906.329	2097.073
-28.867	36.145	1905.200	2094.816
-27.852	36.036	1904.367	2092.629
-26.838	36.087	1902.898	2091.483
-25.823	36.093	1900.952	2089.333
-24.809	35.951	1900.491	2087.197
-23.794	35.948	1899.126	2085.582
-22.779	36.002	1897.765	2084.588
-21.765	36.099	1895.973	2083.599
-20.750	36.232	1894.230	2083.044
-19.736	36.116	1893.460	2080.857
-18.721	36.015	1892.583	2078.707
-17.706	36.007	1890.672	2076.439
-16.692	36.170	1889.155	2076.453
-15.677	36.018	1888.658	2074.186
-14.663	36.063	1887.518	2073.334
-13.648	36.024	1885.887	2071.044
-12.633	35.993	1885.247	2069.918
-11.619	36.113	1883.792	2069.540
-10.604	35.993	1881.688	2065.849
-9.590	35.975	1881.248	2065.096
-8.575	35.939	1880.126	2063.386
-7.560	36.022	1878.494	2062.412
-6.546	35.926	1877.527	2060.228
-5.531	35.963	1876.564	2059.490
-4.517	35.986	1875.113	2058.068
-3.502	36.103	1873.915	2057.928
-2.487	36.005	1873.799	2056.662
-1.473	36.113	1870.866	2054.522
-0.458	36.899	1852.166	2042.233
0.556	34.263	1986.049	2147.234
1.571	34.144	2207.408	2384.768
2.586	36.282	2256.237	2464.722
3.600	36.453	2259.626	2470.330
4.615	36.493	2261.095	2472.147
5.629	36.571	2259.039	2470.604
6.644	36.654	2256.936	2469.081
7.659	36.739	2255.004	2467.759
8.673	37.089	2253.393	2470.179
9.688	36.363	2256.406	2463.878
10.702	31.876	2321.192	2474.947
11.717	27.185	2380.090	2473.454
12.731	13.756	2344.707	2254.167
13.746	2.242	2314.921	2069.261
14.761	0.509	2310.084	2041.153
15.775	0.340	2307.014	2035.895
16.790	0.395	2305.314	2034.905
17.804	0.308	2304.015	2032.335
18.819	0.297	2303.296	2031.305
19.834	0.274	2301.322	2029.003
20.848	0.321	2300.782	2028.918
21.863	0.234	2299.196	2026.104
22.877	0.254	2296.907	2024.114
23.892	0.310	2294.601	2022.598
24.907	0.298	2292.075	2019.961
25.921	0.194	2291.553	2017.863
26.936	0.214	2289.135	2015.758
27.950	0.256	2286.348	2013.627
28.965	0.296	2283.765	2011.651
29.980	0.300	2282.828	2010.643
30.994	0.447	2280.388	2010.217
32.009	7.148	2303.415	2120.716
33.023	25.897	2365.108	2434.227
34.038	41.194	2404.547	2683.757
35.053	46.077	2413.488	2759.583
36.067	45.652	2407.041	2746.158
37.082	44.055	2400.709	2717.115
38.096	44.028	2401.675	2717.516
39.111	45.714	2404.018	2742.554
40.126	46.862	2406.491	2760.492
41.140	48.623	2408.986	2786.693
42.155	48.122	2404.838	2774.852
43.169	47.851	2404.231	2770.176
44.184	48.684	2404.244	2781.023
45.199	48.414	2399.491	2771.585
46.213	46.816	2393.228	2742.697
47.228	45.603	2389.758	2722.185
48.242	45.898	2388.477	2724.346
49.257	45.703	2385.808	2718.371
50.271	46.398	2386.122	2727.674
51.286	46.574	2383.159	2726.296
52.301	45.855	2380.136	2712.953
53.315	45.426	2376.838	2703.179
54.330	39.844	2355.387	2604.703
55.344	33.858	2336.305	2504.257
56.359	33.092	2331.270	2488.432
57.374	32.581	2326.782	2476.591
58.388	32.035	2322.749	2464.795
59.403	32.779	2322.498	2474.053
60.417	34.542	2326.757	2501.557
61.432	35.061	2324.066	2505.185
62.447	33.768	2319.635	2483.127
63.461	33.323	2315.546	2472.603
64.476	32.722	2313.109	2461.821
65.490	34.314	2317.499	2487.109
66.505	38.934	2331.318	2562.451
67.520	44.224	2345.209	2646.987
68.534	44.569	2342.328	2647.940
69.549	44.866	2342.213	2651.372
70.563	45.711	2340.964	2660.680
71.578	46.171	2340.283	2665.590
72.593	46.718	2340.520	2672.663
73.607	47.340	2341.258	2681.299
74.622	46.914	2337.374	2670.987
75.636	45.547	2330.589	2645.168
76.651	45.886	2330.126	2648.734
77.666	46.123	2327.858	2648.916
78.680	46.097	2327.020	2647.305
79.695	47.229	2328.451	2663.274
80.709	48.283	2330.300	2678.711
81.724	48.541	2329.197	2680.449
82.739	48.621	2326.042	2677.535
83.753	47.595	2321.146	2658.362
84.768	46.883	2317.539	2644.754
85.782	45.834	2313.279	2626.081
86.797	45.317	2310.461	2615.911
87.812	45.143	2306.955	2609.400
88.826	44.779	2304.370	2601.491
89.841	45.427	2303.627	2608.658
90.855	46.163	2303.621	2617.760
91.870	45.262	2299.088	2600.777
92.884	44.823	2297.071	2592.566
93.899	45.858	2299.480	2608.223
94.914	44.734	2293.525	2586.813
95.928	39.911	2277.848	2507.472
96.943	37.019	2270.037	2461.726
97.957	40.830	2280.800	2521.855
98.972	44.387	2286.782	2573.556
99.987	44.162	2282.102	2565.126
101.001	44.146	2281.781	2564.251
102.016	44.623	2280.781	2568.874
103.030	45.257	2279.781	2575.476
104.045	46.426	2280.486	2590.765
105.060	47.168	2281.309	2600.782
106.074	46.803	2276.947	2590.895
107.089	45.867	2273.245	2574.568
108.103	46.224	2273.463	2579.002
109.118	46.795	2273.004	2585.367
110.133	46.879	2271.978	2584.957
111.147	46.524	2267.642	2575.250
112.162	46.182	2266.150	2568.947
113.176	46.194	2263.447	2565.727
114.191	46.126	2262.670	2563.688
115.206	46.149	2260.222	2560.896
116.220	45.899	2257.144	2553.977
117.235	45.368	2253.643	2543.069
118.249	45.286	2252.076	2539.978
119.264	46.206	2252.872	2552.057
120.279	46.940	2252.958	2561.000
121.293	46.678	2249.833	2553.882
122.308	45.974	2246.603	2541.153
123.322	45.688	2244.395	2534.798
124.337	45.246	2240.668	2524.799
125.352	41.780	2230.146	2469.689
126.366	41.327	2231.087	2464.802
127.381	43.953	2234.426	2500.835
128.395	44.894	2233.748	2511.430
129.410	45.891	2234.441	2524.248
130.424	46.074	2233.419	2525.063
131.439	45.808	2231.379	2519.165
132.454	45.390	2227.804	2509.677
133.468	45.558	2225.508	2508.853
134.483	45.083	2222.163	2498.936
135.497	44.555	2220.345	2490.106
136.512	45.381	2219.924	2499.490
137.527	45.403	2217.020	2496.194
138.541	44.819	2214.686	2486.105
139.556	44.383	2213.479	2479.099
140.570	44.586	2212.510	2480.204
141.585	45.373	2212.518	2489.556
142.600	45.817	2212.602	2494.783
143.614	45.737	2210.121	2490.713
144.629	46.067	2210.344	2494.697
145.643	45.696	2207.191	2486.311
146.658	45.248	2203.138	2475.998
147.673	45.245	2202.720	2475.188
148.687	46.555	2203.838	2492.105
149.702	46.443	2202.842	2489.309
150.716	46.079	2201.050	2482.568
151.731	45.971	2199.808	2479.559
152.746	46.330	2197.642	2481.176
153.760	44.065	2188.811	2443.512
154.775	38.236	2171.208	2353.281
155.789	35.125	2163.997	2307.571
156.804	39.220	2175.140	2368.899
157.819	43.972	2182.502	2434.179
158.833	45.441	2184.603	2453.970
159.848	46.462	2185.301	2466.761
160.862	47.107	2184.934	2473.821
161.877	47.254	2184.278	2474.543
162.892	47.414	2183.617	2475.421
163.906	47.639	2183.586	2477.787
164.921	48.003	2182.385	2480.499
165.935	48.089	2179.314	2477.744
166.950	47.579	2176.594	2468.253
167.964	46.468	2171.241	2448.621
168.979	45.940	2168.891	2439.367
169.994	46.044	2168.165	2439.501
171.008	46.418	2165.591	2440.775
172.023	46.158	2164.900	2436.597
173.037	46.756	2165.382	2443.974
174.052	46.914	2163.530	2443.475
175.067	46.669	2161.673	2438.170
176.081	46.629	2159.694	2435.174
177.096	46.069	2157.261	2425.490
178.110	45.436	2153.840	2413.846
179.125	45.525	2153.736	2414.497
180.140	46.732	2154.639	2429.533
181.154	46.770	2152.383	2427.149
182.169	45.772	2149.590	2411.905
183.183	44.333	2142.909	2387.147
184.198	39.624	2125.055	2311.638
185.213	37.095	2121.949	2278.176
186.227	42.718	2136.498	2360.112
187.242	45.458	2140.028	2396.046
188.256	45.445	2137.877	2393.198
189.271	46.224	2138.223	2402.460
190.286	46.963	2138.694	2411.374
191.300	46.151	2133.235	2395.421
192.315	45.231	2129.518	2380.187
193.329	45.790	2130.672	2387.744
194.344	46.767	2130.990	2399.249
195.359	47.230	2130.476	2403.795
196.373	47.314	2130.247	2404.226
197.388	47.257	2126.103	2398.594
198.402	46.479	2123.030	2385.784
199.417	46.016	2120.145	2376.872
200.432	46.848	2120.192	2386.311
201.446	47.408	2120.798	2393.219
202.461	46.935	2117.056	2383.221
203.475	45.940	2112.825	2366.650
204.490	45.705	2110.587	2361.132
205.504	46.056	2109.078	2363.233
206.519	45.404	2105.325	2351.207
207.534	45.670	2104.826	2353.446
208.548	46.559	2105.066	2363.685
209.563	45.382	2099.290	2343.375
210.577	44.479	2096.547	2329.638
211.592	46.102	2100.586	2352.556
212.607	43.767	2090.118	2313.763
213.621	35.455	2067.504	2193.464
214.636	35.306	2071.358	2195.577
215.650	41.611	2085.008	2282.532
216.665	44.519	2089.671	2320.791
217.680	46.028	2091.932	2340.327
218.694	46.930	2092.684	2351.224
219.709	46.700	2090.846	2346.244
220.723	46.752	2089.827	2345.418
221.738	47.413	2089.135	2351.904
222.753	47.069	2085.512	2343.621
223.767	46.481	2083.407	2334.279
224.782	46.067	2079.904	2325.367
225.796	45.910	2077.903	2321.061
226.811	46.768	2078.838	2331.590
227.826	46.990	2078.995	2334.009
228.840	47.431	2077.983	2337.597
229.855	46.805	2075.253	2327.150
230.869	45.497	2068.421	2304.418
231.884	44.242	2064.915	2286.045
232.899	44.542	2065.684	2290.014
233.913	45.369	2067.155	2300.725
234.928	46.180	2066.588	2308.991
235.942	47.013	2066.666	2318.198
236.957	47.187	2064.834	2317.829
237.972	46.832	2063.261	2311.782
238.986	46.863	2061.943	2310.382
240.001	46.404	2058.765	2301.383
241.015	45.680	2055.940	2289.826
242.030	45.347	2052.669	2282.167
243.045	42.197	2041.511	2234.262
244.059	39.849	2038.903	2204.830
245.074	43.455	2044.685	2251.315
246.088	44.933	2044.768	2267.670
247.103	45.138	2043.413	2268.189
248.117	45.225	2042.934	2268.355
249.132	45.834	2042.890	2274.825
250.147	45.738	2040.345	2270.652
251.161	45.397	2038.204	2264.201
252.176	45.584	2037.304	2265.013
253.190	45.776	2034.696	2263.977
254.205	45.774	2033.861	2262.753
255.220	46.708	2034.802	2273.889
256.234	46.847	2034.368	2274.669
257.249	46.454	2031.696	2267.067
258.263	46.291	2032.190	2265.535
259.278	46.878	2031.512	2271.005
260.293	46.964	2029.483	2269.420
261.307	46.659	2026.586	2262.540
262.322	46.626	2024.928	2260.050
263.336	45.933	2021.707	2248.557
264.351	45.177	2017.896	2235.732
265.366	45.296	2017.821	2236.699
266.380	45.703	2016.705	2239.665
267.395	45.115	2013.248	2229.103
268.409	45.000	2012.695	2226.957
269.424	46.154	2014.889	2241.789
270.439	46.780	2014.409	2247.842
271.453	44.828	2004.676	2215.412
272.468	39.320	1988.874	2137.755
273.482	36.942	1985.322	2107.717
274.497	41.186	1994.153	2163.319
275.512	44.912	1999.929	2210.028
276.526	45.577	1998.813	2215.759
277.541	45.374	1996.223	2210.417
278.555	45.399	1995.474	2209.601
279.570	44.964	1991.609	2200.344
280.585	44.320	1989.069	2190.288
281.599	44.619	1988.934	2193.120
282.614	45.500	1990.080	2203.668
283.628	46.541	1992.196	2217.016
284.643	47.366	1993.187	2226.775
285.657	47.542	1991.392	2226.409
286.672	47.208	1989.016	2219.878
287.687	47.155	1986.288	2216.001
288.701	46.856	1984.054	2210.027
289.716	46.239	1982.479	2201.371
290.730	46.245	1980.958	2199.475
291.745	46.526	1979.524	2200.643
292.760	46.142	1976.703	2193.123
293.774	45.442	1975.030	2183.492
294.789	45.896	1975.331	2188.436
295.803	46.126	1974.683	2189.924
296.818	45.945	1972.569	2185.376
297.833	46.104	1970.606	2184.647
298.847	46.580	1970.196	2189.011
299.862	46.736	1968.322	2188.337
300.876	45.534	1962.643	2168.962
301.891	40.831	1947.213	2101.793
302.906	36.686	1942.841	2052.732
303.920	42.415	1955.435	2127.059
304.935	45.536	1958.777	2163.673
305.949	45.957	1957.802	2166.812
306.964	46.987	1958.920	2178.710
307.979	47.004	1955.891	2175.268
308.993	45.318	1950.542	2151.245
310.008	45.033	1949.564	2146.885
311.022	46.036	1950.292	2158.036
312.037	46.799	1950.251	2165.790
313.052	46.479	1947.019	2158.575
314.066	45.589	1943.166	2144.679
315.081	45.433	1942.885	2142.466
316.095	45.769	1942.061	2144.834
317.110	45.864	1941.070	2144.483
318.125	45.891	1939.374	2142.641
319.139	45.715	1938.649	2139.731
320.154	46.741	1938.906	2150.518
321.168	47.136	1938.179	2153.599
322.183	47.174	1937.515	2152.999
323.197	46.801	1935.626	2146.745
324.212	46.412	1932.615	2139.084
325.227	45.878	1929.096	2129.356
326.241	45.514	1925.698	2121.564
327.256	45.700	1925.333	2122.844
328.270	45.947	1924.694	2124.457
329.285	45.875	1925.211	2124.018
330.300	44.376	1918.197	2100.470
331.314	37.999	1900.688	2015.112
332.329	36.236	1900.708	1996.573
333.343	42.327	1913.156	2072.937
334.358	46.344	1918.245	2119.935
335.373	47.093	1917.545	2126.652
336.387	47.032	1915.914	2123.958
337.402	46.869	1913.209	2119.023
338.416	46.492	1911.038	2112.478
339.431	46.479	1910.523	2111.519
340.446	47.828	1911.495	2126.245
341.460	48.194	1910.718	2128.891
342.475	48.133	1908.318	2125.335
343.489	46.768	1904.443	2106.762
344.504	46.220	1903.067	2099.361
345.519	46.400	1901.956	2099.737
346.533	46.616	1900.032	2099.567
347.548	46.460	1897.649	2095.092
348.562	46.318	1895.510	2091.029
349.577	46.318	1895.361	2090.617
350.592	46.784	1895.111	2094.845
351.606	46.983	1894.524	2095.976
352.621	47.080	1892.247	2094.192
353.635	47.231	1892.137	2095.364
354.650	46.593	1889.753	2085.983
355.665	46.051	1886.161	2076.257
356.679	45.943	1884.000	2072.533
357.694	45.821	1882.577	2069.485
358.708	46.187	1882.830	2073.225
359.723	45.074	1875.644	2053.816
360.738	38.382	1858.821	1967.768
361.752	36.802	1860.566	1953.369
362.767	42.511	1869.864	2020.872
363.781	45.051	1872.545	2049.205
364.796	46.380	1873.087	2062.960
365.810	45.710	1870.160	2052.743
366.825	45.025	1868.632	2043.926
367.840	45.347	1867.178	2045.332
368.854	44.882	1864.897	2037.919
369.869	45.011	1864.174	2038.180
370.883	45.294	1863.147	2039.655
371.898	45.260	1863.027	2038.931
372.913	46.028	1862.751	2046.088
373.927	46.211	1861.115	2045.874
374.942	46.069	1860.963	2044.040
375.956	46.269	1858.842	2043.472
376.971	45.638	1855.432	2033.182
377.986	45.616	1855.018	2032.267
379.000	46.285	1856.021	2039.788
380.015	46.838	1854.520	2043.410
381.029	46.836	1852.374	2040.777
382.044	46.666	1851.051	2037.382
383.059	46.772	1848.966	2035.904
384.073	45.477	1845.172	2018.643
385.088	44.617	1843.622	2008.178
386.102	45.381	1844.007	2015.938
387.117	46.163	1843.353	2022.718
388.132	46.068	1842.402	2020.495
389.146	44.769	1835.818	2000.230
390.161	38.244	1817.602	1916.097
391.175	36.339	1817.109	1896.566
392.190	42.108	1825.670	1962.292
393.205	44.089	1826.567	1982.513
394.219	44.384	1826.325	1984.910
395.234	44.430	1825.452	1984.174
396.248	44.935	1824.892	1988.284
397.263	45.135	1823.384	1988.361
398.278	44.847	1820.757	1982.435
399.292	44.548	1820.389	1978.880
400.307	46.324	1823.686	1999.604
401.321	47.172	1823.650	2007.606
402.336	46.356	1820.696	1996.154
403.350	46.059	1817.953	1990.016
404.365	46.989	1818.947	1999.930
405.380	48.197	1820.152	2012.768
406.394	48.026	1817.783	2008.248
407.409	47.002	1814.450	1994.390
408.423	46.092	1811.605	1982.200
409.438	45.971	1809.799	1978.813
410.453	46.136	1809.384	1979.719
411.467	46.314	1808.497	1980.234
412.482	46.508	1808.196	1981.549
413.496	46.723	1806.507	1981.542
414.511	46.610	1803.994	1977.453
415.526	46.323	1801.572	1971.795
416.540	46.936	1802.532	1978.516
417.555	47.044	1800.332	1976.912
418.569	45.892	1798.786	1963.892
419.584	46.662	1799.925	1972.315
420.599	47.041	1799.500	1975.253
421.613	45.979	1795.460	1960.392
422.628	45.311	1794.205	1952.382
423.642	46.812	1794.808	1967.207
424.657	47.587	1793.004	1972.409
425.672	45.662	1788.306	1948.615
426.686	45.567	1787.120	1946.188
427.701	45.573	1785.230	1943.953
428.715	45.996	1785.854	1948.438
429.730	47.585	1789.144	1966.962
430.745	49.245	1791.457	1985.098
431.759	49.901	1791.375	1991.012
432.774	48.403	1782.439	1966.649
433.788	39.423	1758.884	1855.854
434.803	30.874	1744.158	1759.353
435.818	29.693	1740.173	1743.933
436.832	29.506	1739.649	1741.428
437.847	28.903	1732.646	1728.511
438.861	19.590	1704.383	1613.100
439.876	4.865	1676.853	1449.927
440.890	0.863	1668.330	1405.075
441.905	0.500	1667.251	1400.619
442.920	0.392	1666.134	1398.501
443.934	0.306	1664.240	1395.940
444.949	0.226	1663.541	1394.445
445.963	0.316	1662.762	1394.466
446.978	0.224	1662.769	1393.449
447.993	0.358	1660.931	1392.981
449.007	0.298	1659.375	1390.957
450.022	0.253	1656.715	1388.143
451.036	0.323	1655.308	1387.446
452.051	1.164	1660.913	1399.784
453.066	11.789	1687.868	1522.112
454.080	26.908	1714.069	1688.065
455.095	31.866	1721.562	1741.673
456.109	32.542	1723.097	1749.335
457.124	33.174	1722.296	1754.202
458.139	32.415	1719.315	1743.887
459.153	32.041	1717.570	1738.431
460.168	32.037	1716.076	1736.677
461.182	32.165	1715.099	1736.663
462.197	32.348	1713.878	1736.919
463.212	32.524	1713.016	1737.470
464.226	32.845	1712.264	1739.479
465.241	32.786	1711.188	1737.631
466.255	32.733	1709.433	1735.145
467.270	32.617	1708.367	1732.785
468.285	32.724	1707.630	1732.817
469.299	33.248	1706.716	1736.518
470.314	33.414	1705.124	1736.223
471.328	33.418	1704.787	1735.707
472.343	33.464	1704.433	1735.562
473.358	33.570	1703.432	1735.311
474.372	33.807	1702.017	1735.843
475.387	33.956	1701.718	1736.699
476.401	34.155	1699.293	1735.837
477.416	33.697	1696.795	1728.882
478.430	33.369	1695.671	1724.532
479.445	33.813	1696.124	1728.849
480.460	34.213	1695.479	1731.642
481.474	34.165	1694.362	1729.855
482.489	34.113	1691.883	1726.646
483.503	33.550	1689.301	1718.672
484.518	33.322	1687.069	1714.126
485.533	33.453	1686.910	1714.945
486.547	33.611	1684.061	1713.278
487.562	32.583	1681.628	1701.274
488.576	32.854	1682.219	1704.132
489.591	33.420	1681.628	1708.464
490.606	33.965	1680.777	1712.325
491.620	34.045	1679.902	1711.952
492.635	33.692	1676.569	1705.171
493.649	32.945	1674.860	1696.477
494.664	33.099	1674.343	1697.147
495.679	33.719	1673.621	1701.799
496.693	33.675	1671.630	1699.172
497.708	33.407	1669.903	1694.811
498.722	33.151	1668.089	1690.462
499.737	32.779	1667.165	1685.985
500.752	33.091	1666.032	1687.433
501.766	33.159	1664.330	1686.117
502.781	32.940	1662.475	1682.078
503.795	33.043	1660.997	1681.297
504.810	33.039	1660.388	1680.448
505.825	32.775	1658.923	1676.404
506.839	32.610	1657.074	1672.861
507.854	32.718	1655.662	1672.200
508.868	32.473	1653.521	1667.654
509.883	32.184	1652.426	1663.778
510.898	31.838	1650.968	1659.035
511.912	31.823	1649.122	1656.847
512.927	31.749	1648.000	1654.868
513.941	31.812	1645.840	1653.058
514.956	32.243	1645.499	1656.335
515.971	32.547	1645.157	1658.489
516.985	32.367	1642.803	1654.325
518.000	31.693	1641.494	1646.854
519.014	31.579	1640.122	1644.271
520.029	31.515	1638.874	1642.260
521.043	31.498	1637.478	1640.513
522.058	31.758	1636.839	1641.969
523.073	31.866	1635.027	1640.901
524.087	31.627	1633.837	1637.414
525.102	31.504	1633.354	1635.650
526.116	32.280	1633.079	1641.996
527.131	32.597	1632.715	1644.216
528.146	32.292	1630.966	1639.584
529.160	32.139	1629.651	1636.727
530.175	32.205	1629.097	1636.547
531.189	32.290	1627.943	1635.942
532.204	32.452	1625.791	1634.999
533.219	32.739	1625.976	1637.490
534.233	33.365	1626.105	1642.888
535.248	33.355	1624.614	1641.101
536.262	32.715	1622.631	1633.326
537.277	32.744	1621.854	1632.604
538.292	33.118	1621.809	1635.616
539.306	33.178	1619.172	1633.281
540.321	32.631	1617.139	1626.293
541.335	32.315	1614.735	1620.943
542.350	32.452	1614.481	1621.675
543.365	33.050	1612.897	1625.061
544.379	33.072	1612.093	1624.249
545.394	32.879	1610.441	1620.727
546.408	32.786	1609.869	1619.154
547.423	33.251	1609.464	1622.559
548.438	33.433	1609.100	1623.565
549.452	33.219	1607.044	1619.458
550.467	33.180	1604.547	1616.410
551.481	32.842	1603.922	1612.686
552.496	32.580	1602.547	1608.861
553.511	32.028	1601.073	1602.456
554.525	32.139	1598.383	1600.519
555.540	31.845	1597.458	1596.882
556.554	31.942	1596.183	1596.247
557.569	31.963	1594.569	1594.622
558.583	31.889	1593.598	1592.830
559.598	31.859	1592.555	1591.341
560.613	31.767	1591.434	1589.246
561.627	31.767	1589.609	1587.231
562.642	31.357	1586.889	1580.840
563.656	30.983	1585.014	1575.606
564.671	30.819	1583.138	1572.167
565.686	31.006	1581.679	1572.112
566.700	31.017	1581.924	1572.258
567.715	31.170	1580.283	1571.736
568.729	31.193	1580.318	1571.778
569.744	32.027	1579.521	1577.852
570.759	32.155	1577.864	1577.084
571.773	31.581	1576.329	1570.516
572.788	31.094	1575.331	1565.233
573.802	30.972	1573.228	1561.928
574.817	30.842	1570.937	1558.370
575.832	30.728	1569.070	1555.377
576.846	30.938	1568.710	1556.594
577.861	31.408	1568.596	1560.238
578.875	31.564	1567.511	1560.286
579.890	31.541	1566.323	1558.726
580.905	31.578	1565.427	1557.954
581.919	31.592	1565.081	1557.537
582.934	31.559	1564.289	1556.291
583.948	31.452	1562.914	1553.845
584.963	31.559	1562.394	1554.028
585.978	32.107	1561.747	1557.776
586.992	32.303	1560.388	1557.867
588.007	32.062	1559.588	1554.872
589.021	31.901	1558.198	1551.960
590.036	31.445	1555.962	1545.756
591.051	31.595	1554.750	1545.615
592.065	31.604	1553.469	1544.232
593.080	31.889	1552.434	1545.380
594.094	32.138	1551.463	1546.293
595.109	32.312	1550.624	1546.706
596.123	32.856	1549.258	1549.646
597.138	32.732	1547.917	1547.101
598.153	32.252	1546.174	1541.223
599.167	32.139	1544.583	1538.522
600.182	32.316	1543.657	1538.867
601.196	31.988	1543.357	1535.690
602.211	32.008	1541.541	1533.858
603.226	31.613	1539.605	1528.507
604.240	31.693	1537.389	1526.781
605.255	31.613	1536.105	1524.669
606.269	31.350	1535.185	1521.417
607.284	31.281	1534.362	1519.859
608.299	31.122	1533.046	1517.077
609.313	31.241	1531.697	1516.528
610.328	31.228	1529.965	1514.526
611.342	31.227	1528.033	1512.425
612.357	30.991	1527.511	1509.802
613.372	30.777	1526.984	1507.364
614.386	30.727	1525.060	1504.873
615.401	30.669	1524.431	1503.605
616.415	30.570	1523.638	1501.842
617.430	30.260	1522.414	1497.941
618.445	30.233	1519.863	1495.030
619.459	30.271	1518.687	1493.999
620.474	30.618	1518.682	1496.625
621.488	31.036	1520.102	1501.228
622.503	32.097	1519.603	1509.130
623.518	31.422	1516.454	1500.377
624.532	30.450	1513.470	1489.422
625.547	30.297	1511.503	1486.073
626.561	30.133	1511.149	1484.224
627.576	29.748	1510.622	1480.437
628.591	30.363	1510.102	1484.691
629.605	31.086	1509.459	1489.693
630.620	31.415	1509.298	1491.996
631.634	32.176	1509.498	1498.119
632.649	32.093	1508.323	1496.107
633.663	31.489	1505.836	1488.626
634.678	30.596	1502.380	1477.902
635.693	30.161	1499.699	1471.621
636.707	30.019	1497.963	1468.607
637.722	29.911	1496.794	1466.424
638.736	30.000	1496.218	1466.393
639.751	30.246	1495.477	1467.449
640.766	30.525	1494.758	1468.784
641.780	30.461	1493.490	1466.856
642.795	30.650	1493.007	1467.703
643.809	30.614	1492.626	1466.870
644.824	30.848	1492.538	1468.463
645.839	31.274	1491.235	1470.377
646.853	31.170	1490.241	1468.400
647.868	31.258	1488.572	1467.269
648.882	31.491	1487.243	1467.627
649.897	31.457	1487.119	1467.054
650.912	31.454	1485.690	1465.449
651.926	31.271	1485.009	1463.163
652.941	31.306	1483.156	1461.435
653.955	31.186	1480.497	1457.699
654.970	30.960	1478.494	1453.778
655.985	30.667	1476.287	1449.140
656.999	30.345	1475.112	1445.299
658.014	30.350	1473.849	1443.922
659.028	30.578	1473.959	1445.639
660.043	31.056	1474.843	1450.071
661.058	31.419	1473.318	1451.229
662.072	31.379	1472.464	1449.904
663.087	31.514	1471.630	1449.961
664.101	31.519	1470.270	1448.486
665.116	31.442	1468.754	1446.225
666.131	31.039	1468.043	1442.214
667.145	31.113	1466.647	1441.246
668.160	30.887	1465.262	1437.961
669.174	30.644	1463.455	1434.133
670.189	30.658	1461.924	1432.567
671.204	30.866	1461.078	1433.181
672.218	30.872	1460.467	1432.450
673.233	30.693	1459.210	1429.665
674.247	30.750	1457.272	1428.037
675.262	30.420	1456.145	1424.217
676.276	30.338	1454.832	1422.131
677.291	30.298	1454.751	1421.577
678.306	30.780	1453.527	1423.915
679.320	30.659	1451.934	1421.252
680.335	30.289	1450.451	1416.795
681.349	30.252	1449.640	1415.550
682.364	30.291	1449.216	1415.266
683.379	30.013	1447.763	1411.544
684.393	30.055	1445.740	1409.727
685.408	29.881	1444.937	1407.444
686.422	30.184	1443.790	1408.474
687.437	29.743	1442.928	1404.094
688.452	29.505	1442.121	1401.325
689.466	29.583	1440.206	1399.893
690.481	29.597	1438.984	1398.646
691.495	29.781	1440.011	1400.873
692.510	30.931	1440.302	1409.739
693.525	31.945	1439.857	1416.841
694.539	31.537	1436.843	1410.618
695.554	30.221	1434.949	1398.619
696.568	29.605	1432.607	1391.503
697.583	29.398	1431.703	1388.893
698.598	29.555	1430.558	1388.803
699.612	29.563	1429.097	1387.284
700.627	29.690	1428.399	1387.394
701.641	29.892	1427.932	1388.299
702.656	30.332	1426.781	1390.330
703.671	30.079	1426.412	1387.900
704.685	30.042	1426.433	1387.472
705.700	30.407	1425.040	1388.695
706.714	30.644	1424.087	1389.378
707.729	30.917	1423.117	1390.320
708.744	30.960	1421.984	1389.369
709.758	30.754	1421.225	1386.912
710.773	30.272	1418.612	1380.595
711.787	29.983	1417.064	1376.764
712.802	30.422	1416.475	1379.302
713.816	30.707	1416.404	1381.193
714.831	30.819	1415.713	1381.189
715.846	30.621	1414.713	1378.578
716.860	30.424	1413.249	1375.515
717.875	30.618	1411.267	1374.869
718.889	30.717	1410.251	1374.447
719.904	30.671	1409.355	1373.068
720.919	30.589	1407.880	1370.863
721.933	30.416	1406.590	1368.160
722.948	30.122	1406.024	1365.266
723.962	30.037	1405.154	1363.628
724.977	29.914	1403.820	1361.264
725.992	29.949	1402.197	1359.787
727.006	30.135	1400.694	1359.539
728.021	30.152	1399.129	1357.980
729.035	29.861	1398.489	1355.057
730.050	29.776	1397.370	1353.182
731.065	29.873	1396.716	1353.101
732.079	29.899	1394.672	1351.152
733.094	29.910	1394.439	1350.842
734.108	29.843	1394.286	1350.043
735.123	29.931	1391.338	1347.673
736.138	29.795	1389.981	1345.196
737.152	29.672	1389.365	1343.540
738.167	29.680	1387.824	1341.954
739.181	29.690	1387.028	1341.092
740.196	29.793	1385.751	1340.448
741.211	29.548	1384.970	1337.747
742.225	29.481	1384.514	1336.662
743.240	29.459	1382.848	1334.736
744.254	29.263	1381.451	1331.803
745.269	29.292	1380.079	1330.528
746.284	29.178	1379.417	1328.909
747.298	29.211	1379.567	1329.128
748.313	29.541	1378.364	1330.201
749.327	30.109	1378.311	1334.106
750.342	30.887	1379.086	1340.324
751.356	31.667	1379.030	1345.742
752.371	31.515	1376.722	1342.239
753.386	30.195	1374.225	1330.132
754.400	29.482	1371.845	1322.532
755.415	29.607	1370.449	1321.927
756.429	29.783	1369.258	1321.886
757.444	29.746	1368.287	1320.526
758.459	29.804	1367.561	1320.084
759.473	29.570	1366.454	1317.176
760.488	29.829	1365.222	1317.686
761.502	29.685	1364.274	1315.585
762.517	29.874	1363.288	1315.832
763.532	30.078	1362.536	1316.403
764.546	30.184	1360.905	1315.426
765.561	29.900	1360.275	1312.630
766.575	29.509	1359.041	1308.501
767.590	29.449	1357.449	1306.387
768.605	30.002	1356.839	1309.574
769.619	30.235	1356.296	1310.549
770.634	30.293	1355.265	1309.805
771.648	30.003	1354.225	1306.589
772.663	29.784	1352.481	1303.194
773.678	29.486	1352.397	1300.848
774.692	29.502	1351.652	1300.092
775.707	29.510	1350.733	1299.105
776.721	29.457	1349.556	1297.448
777.736	29.389	1347.820	1295.140
778.751	29.423	1346.683	1294.130
779.765	29.361	1345.990	1292.877
780.780	29.115	1345.294	1290.320
781.794	29.158	1344.987	1290.175
782.809	29.102	1343.607	1288.304
783.824	28.889	1341.816	1284.932
784.838	29.329	1341.056	1287.141
785.853	30.248	1342.163	1294.496
786.867	30.168	1341.009	1292.673
787.882	29.522	1339.543	1286.576
788.897	29.325	1337.839	1283.413
789.911	29.129	1336.356	1280.464
790.926	28.830	1335.355	1277.266
791.940	28.784	1333.616	1275.127
792.955	28.871	1332.010	1274.041
793.969	28.909	1330.829	1273.025
794.984	28.893	1330.140	1272.102
795.999	28.994	1329.286	1271.834
797.013	29.131	1327.824	1271.236
798.028	29.070	1326.285	1269.190
799.042	29.080	1326.162	1268.984
800.057	29.021	1324.930	1267.247
801.072	29.220	1323.305	1266.919
802.086	29.251	1322.615	1266.317
803.101	29.029	1321.813	1263.865
804.115	29.103	1320.960	1263.411
805.130	29.203	1319.597	1262.648
806.145	29.387	1318.102	1262.330
807.159	29.245	1317.422	1260.548
808.174	29.479	1317.073	1261.672
809.188	29.663	1316.165	1261.914
810.203	29.605	1314.943	1260.195
811.218	29.557	1313.402	1258.241
812.232	29.384	1312.069	1255.632
813.247	29.183	1310.895	1252.982
814.261	29.395	1310.919	1254.305
815.276	29.422	1309.712	1253.181
816.291	29.388	1307.750	1250.924
817.305	29.240	1307.015	1249.062
818.320	29.194	1305.390	1247.047
819.334	28.991	1304.257	1244.435
820.349	28.922	1303.146	1242.760
821.364	29.065	1301.113	1241.637
822.378	29.093	1299.468	1240.108
823.393	29.092	1297.782	1238.347
824.407	29.135	1296.605	1237.367
825.422	28.805	1296.810	1235.186
826.437	28.641	1296.416	1233.554
827.451	28.819	1294.953	1233.212
828.466	29.289	1294.957	1236.239
829.480	30.150	1293.926	1240.900
830.495	29.734	1290.946	1235.103
831.509	29.147	1288.973	1229.132
832.524	28.621	1288.522	1225.024
833.539	28.613	1287.189	1223.557
834.553	28.821	1285.031	1222.749
835.568	28.737	1283.767	1220.845
836.582	28.828	1282.951	1220.526
837.597	28.914	1282.180	1220.221
838.612	28.942	1281.078	1219.217
839.626	29.145	1280.168	1219.550
840.641	29.384	1279.286	1220.156
841.655	29.322	1279.083	1219.402
842.670	29.069	1278.223	1216.760
843.685	28.964	1277.006	1214.758
844.699	29.049	1276.128	1214.340
845.714	29.218	1274.042	1213.329
846.728	29.082	1273.133	1211.417
847.743	28.776	1272.867	1208.999
848.758	28.781	1271.103	1207.212
849.772	28.817	1269.030	1205.330
850.787	28.708	1268.360	1203.831
851.801	28.510	1267.400	1201.473
852.816	28.683	1265.629	1200.791
853.831	28.578	1264.541	1198.924
854.845	28.483	1263.085	1196.776
855.860	28.615	1261.117	1195.632
856.874	28.687	1260.576	1195.446
857.889	28.938	1260.456	1196.835
858.904	29.407	1260.113	1199.433
859.918	29.966	1259.506	1202.357
860.933	30.421	1258.004	1203.744
861.947	30.040	1256.243	1199.440
862.962	29.199	1254.762	1192.415
863.977	29.031	1252.953	1189.462
864.991	28.813	1251.542	1186.565
866.006	28.477	1251.577	1184.274
867.020	28.554	1250.337	1183.457
868.035	28.595	1248.872	1182.193
869.049	28.607	1247.498	1180.828
870.064	28.625	1246.837	1180.178
871.079	28.691	1246.136	1179.798
872.093	28.736	1245.585	1179.429
873.108	28.807	1244.681	1178.886
874.122	28.842	1243.542	1177.894
875.137	28.829	1243.302	1177.443
876.152	29.070	1242.195	1177.805
877.166	29.026	1240.269	1175.554
878.181	28.976	1238.852	1173.752
879.195	28.617	1238.615	1171.079
880.210	28.654	1237.027	1169.675
881.225	28.653	1236.044	1168.603
882.239	28.551	1235.772	1167.550
883.254	28.618	1234.409	1166.555
884.268	28.674	1233.562	1165.971
885.283	28.672	1232.054	1164.394
886.298	28.504	1230.852	1162.048
887.312	28.354	1230.073	1160.214
888.327	28.481	1228.679	1159.570
889.341	28.500	1227.329	1158.281
890.356	28.540	1226.496	1157.605
891.371	28.705	1226.057	1158.100
892.385	28.494	1225.676	1156.263
893.400	28.668	1224.802	1156.402
894.414	28.611	1224.462	1155.584
895.429	28.852	1223.997	1156.529
896.444	30.041	1223.889	1163.803
897.458	31.088	1223.597	1169.992
898.473	30.548	1221.320	1164.275
899.487	29.450	1219.186	1155.198
900.502	28.861	1217.126	1149.408
901.517	28.635	1215.508	1146.320
902.531	28.428	1215.181	1144.579
903.546	28.430	1214.351	1143.669
904.560	28.501	1213.152	1142.850
905.575	28.571	1211.853	1141.928
906.589	28.480	1211.524	1140.910
907.604	28.615	1210.590	1140.743
