DTS Sentinel unit serial number:	SN409020Multiplexer serial number:	ORYXHardware model number:	OX4-SRSoftware version number:	ORYX F/W v3.00 Oryx Data Collector v3.7.2.0data status	okinstallation	HaddamTimeLapsedifferential loss correction	single-endedforward channel	channel 3reverse channel	N/Adate	2011/06/21time	23:36:17forward acquisition time	30.00reverse acquisition time	0.00gamma	498.7831k internal	0.1753k external	0.1753temperature offset calibration	1.0074default loss term (dB/km)	0.3790temperature slope calibration	1.3530multiplexer offset coefficient	1.0000multiplexer slope coefficient	1.0000fibre end	0.00T internal ref (°C)	23.19T ext. ref 1 (°C)	18.42T ext. ref 2 (°C)	0.05length (m)	temperature (°C)	Stokes	anti-Stokes-747.200	123.740	-0.097	0.163
-746.185	103.221	-0.179	0.279
-745.171	380.416	0.067	-0.184
-744.156	527.658	0.128	0.402
-743.142	-33.150	0.271	0.199
-742.127	16.471	-0.225	0.235
-741.112	-61.623	-0.353	-0.196
-740.098	348.437	-0.045	0.117
-739.083	152.313	-0.186	-0.337
-738.069	800.000	0.154	0.588
-737.054	172.654	-0.144	-0.276
-736.039	-128.467	0.420	0.078
-735.025	800.000	0.086	-0.356
-734.010	14.546	0.136	-0.141
-732.996	-35.499	-0.196	-0.141
-731.981	-42.246	-0.543	-0.367
-730.966	800.000	0.030	-0.142
-729.952	800.000	0.108	-0.493
-728.937	737.914	0.103	-0.368
-727.923	-200.000	-0.016	-0.273
-726.908	-200.000	0.014	-0.599
-725.894	-42.328	0.329	0.222
-724.879	-9.150	-0.482	-0.427
-723.864	15.366	-0.275	-0.286
-722.850	111.895	0.331	0.531
-721.835	800.000	0.013	0.050
-720.821	-127.215	-0.469	0.090
-719.806	-57.763	0.637	-0.368
-718.791	-200.000	-0.024	0.888
-717.777	800.000	0.083	-0.472
-716.762	800.000	0.017	-0.096
-715.748	449.183	0.146	-0.428
-714.733	2.850	0.100	-0.096
-713.718	18.383	0.221	0.234
-712.704	-133.727	0.545	0.089
-711.689	-200.000	0.012	0.251
-710.675	412.111	-0.043	-0.121
-709.660	-200.000	0.006	0.468
-708.645	-74.004	-0.316	0.151
-707.631	-147.616	-0.712	0.078
-706.616	-150.704	0.476	0.047
-705.602	-189.711	-0.221	-0.003
-704.587	-200.000	-0.048	-0.532
-703.572	-123.226	0.268	-0.056
-702.558	97.243	-0.110	-0.168
-701.543	214.048	-0.087	0.184
-700.529	25.277	0.240	0.264
-699.514	282.118	-0.214	-0.511
-698.499	-52.176	-0.357	0.219
-697.485	-113.881	0.242	-0.062
-696.470	-79.616	-0.520	-0.231
-695.456	-18.027	0.209	-0.173
-694.441	-73.585	-0.324	-0.156
-693.426	-21.482	-0.243	0.196
-692.412	9.602	-0.235	-0.236
-691.397	-86.919	-0.104	0.042
-690.383	161.551	0.089	-0.166
-689.368	-135.926	-0.586	-0.090
-688.354	279.626	-0.166	0.393
-687.339	-200.000	-0.055	0.429
-686.324	125.206	-0.166	-0.277
-685.310	377.708	-0.058	0.157
-684.295	-200.000	0.011	0.201
-683.281	17.697	0.166	-0.175
-682.266	87.076	-0.026	0.039
-681.251	753.653	0.035	-0.124
-680.237	-35.893	0.139	-0.099
-679.222	-20.050	0.578	0.471
-678.208	-44.778	-0.261	0.172
-677.193	-200.000	0.000	-0.279
-676.178	800.000	-0.067	-0.257
-675.164	-144.926	-0.226	0.027
-674.149	-58.724	0.325	0.186
-673.135	-103.056	0.240	0.075
-672.120	-200.000	-0.055	0.395
-671.105	28.151	-0.237	0.264
-670.091	-71.422	-0.122	-0.060
-669.076	-72.408	0.348	0.169
-668.062	-138.893	0.357	-0.051
-667.047	-65.055	-0.367	-0.195
-666.032	58.864	0.330	-0.429
-665.018	121.030	-0.047	0.077
-664.003	37.388	-0.302	-0.354
-662.989	511.552	-0.263	-0.813
-661.974	562.447	-0.077	-0.247
-660.959	-200.000	0.024	0.564
-659.945	-156.110	-0.458	-0.038
-658.930	-127.747	-0.384	0.073
-657.916	800.000	-0.012	-0.060
-656.901	-11.883	-0.263	0.228
-655.886	-103.848	-0.152	-0.047
-654.872	-200.000	0.014	-0.098
-653.857	-64.015	0.067	0.036
-652.843	-200.000	-0.026	0.208
-651.828	129.450	0.176	-0.298
-650.814	38.876	0.156	-0.185
-649.799	-68.662	0.469	-0.239
-648.784	-73.118	0.047	-0.023
-647.770	150.532	-0.265	-0.476
-646.755	163.568	0.058	0.107
-645.741	-122.449	0.356	-0.076
-644.726	-81.131	-0.276	-0.120
-643.711	-200.000	-0.057	-0.425
-642.697	-200.000	0.002	0.303
-641.682	102.484	-0.224	-0.347
-640.668	-173.216	0.274	-0.011
-639.653	-92.930	0.543	-0.199
-638.638	-18.906	0.162	0.133
-637.624	-91.763	0.142	0.053
-636.609	290.956	0.116	-0.279
-635.595	-123.146	0.172	-0.036
-634.580	800.000	-0.032	-0.150
-633.565	-118.397	-0.216	-0.050
-632.551	186.883	-0.334	0.659
-631.536	-170.957	0.183	-0.008
-630.522	-36.115	0.099	-0.070
-629.507	209.205	-0.226	-0.469
-628.492	800.000	-0.011	0.044
-627.478	388.938	0.043	0.119
-626.463	25.991	-0.189	0.209
-625.449	746.926	-0.061	-0.220
-624.434	-95.047	-0.614	0.218
-623.419	-112.392	0.097	0.025
-622.405	87.202	0.155	-0.227
-621.390	-187.696	0.250	0.004
-620.376	-36.650	0.362	-0.256
-619.361	72.676	-0.236	0.325
-618.346	-173.333	-0.476	-0.019
-617.332	-173.410	0.440	0.017
-616.317	-158.417	0.668	0.050
-615.303	26.307	-0.263	0.290
-614.288	-123.996	-0.131	-0.027
-613.273	-68.364	-0.411	0.210
-612.259	153.508	0.198	0.358
-611.244	43.331	-0.258	-0.311
-610.230	-162.102	0.023	0.001
-609.215	-200.000	0.038	-0.336
-608.201	-104.942	0.112	0.034
-607.186	326.310	0.095	-0.242
-606.171	-94.218	-0.419	-0.151
-605.157	800.000	0.085	0.457
-604.142	-200.000	0.053	0.312
-603.128	-113.346	0.503	0.129
-602.113	-101.744	-0.130	0.041
-601.098	-43.013	-0.057	-0.038
-600.084	-159.837	-0.362	0.026
-599.069	333.512	-0.221	0.566
-598.055	-21.073	0.381	-0.307
-597.040	58.305	-0.403	-0.522
-596.025	-176.986	-0.237	-0.008
-595.011	-200.000	0.025	-0.306
-593.996	190.501	0.241	-0.479
-592.982	-32.520	-0.187	-0.137
-591.967	-58.554	-0.401	-0.229
-590.952	-139.205	0.372	0.052
-589.938	790.524	-0.080	0.290
-588.923	67.268	-0.252	-0.340
-587.909	-86.095	0.277	-0.112
-586.894	99.861	-0.332	0.507
-585.879	25.358	-0.374	0.410
-584.865	-152.697	0.228	-0.021
-583.850	232.044	0.084	0.183
-582.836	31.399	-0.208	-0.236
-581.821	-173.723	-0.235	0.009
-580.806	159.636	0.147	-0.270
-579.792	-108.105	0.048	0.014
-578.777	-72.427	-0.157	0.076
-577.763	-133.556	0.220	-0.036
-576.748	-53.133	-0.275	0.166
-575.733	800.000	0.200	0.755
-574.719	376.614	-0.157	0.425
-573.704	-126.385	-0.498	-0.097
-572.690	-135.741	-0.232	0.036
-571.675	400.703	0.072	-0.199
-570.661	17.106	0.411	0.430
-569.646	-200.000	-0.006	0.090
-568.631	-200.000	-0.009	-0.191
-567.617	-73.519	-0.070	0.033
-566.602	-200.000	0.001	-0.010
-565.588	-200.000	0.002	-0.446
-564.573	-200.000	-0.005	-0.168
-563.558	-200.000	-0.030	-0.394
-562.544	800.000	-0.069	0.262
-561.529	-92.842	0.214	-0.078
-560.515	61.886	-0.214	-0.281
-559.500	-200.000	0.000	0.156
-558.485	-91.375	-0.379	0.142
-557.471	-101.726	0.291	0.092
-556.456	-73.294	0.157	-0.075
-555.442	-43.666	-0.268	-0.177
-554.427	-10.352	-0.247	0.215
-553.412	-200.000	-0.065	0.521
-552.398	73.833	0.270	-0.373
-551.383	-42.114	-0.388	0.261
-550.369	-172.973	0.268	-0.011
-549.354	-118.746	-0.165	0.038
-548.339	-43.981	-0.243	0.160
-547.325	-29.689	-0.361	-0.270
-546.310	-4.122	-0.099	-0.090
-545.296	-149.251	0.246	-0.026
-544.281	337.473	-0.047	0.120
-543.266	-76.009	-0.739	-0.342
-542.252	-96.783	0.449	0.154
-541.237	-200.000	0.031	0.271
-540.223	-6.116	0.157	0.141
-539.208	355.541	0.076	0.199
-538.193	800.000	0.070	-0.395
-537.179	599.427	0.111	-0.365
-536.164	-146.028	0.023	-0.003
-535.150	800.000	-0.128	-0.572
-534.135	335.482	-0.154	0.395
-533.121	69.765	0.153	-0.208
-532.106	-43.396	0.112	-0.074
-531.091	-46.985	0.053	-0.034
-530.077	-134.557	-0.325	-0.052
-529.062	198.633	-0.095	-0.191
-528.048	7.560	0.259	0.255
-527.033	675.218	-0.150	0.515
-526.018	44.845	-0.129	0.156
-525.004	-200.000	0.048	0.349
-523.989	-86.119	-0.141	0.057
-522.975	-134.006	0.404	-0.065
-521.960	-139.588	-0.510	-0.071
-520.945	-31.083	-0.336	-0.249
-519.931	163.441	-0.024	-0.045
-518.916	746.220	-0.084	-0.299
-517.902	-200.000	0.010	-0.122
-516.887	371.719	-0.214	-0.575
-515.872	-22.948	0.270	-0.214
-514.858	-66.904	-0.242	-0.125
-513.843	-200.000	-0.048	0.324
-512.829	-127.249	-0.425	-0.081
-511.814	-73.184	-0.162	-0.078
-510.799	-80.499	0.542	0.237
-509.785	161.138	0.247	-0.455
-508.770	-90.164	-0.318	0.121
-507.756	-28.326	0.312	0.236
-506.741	-81.783	0.019	0.008
-505.726	800.000	0.098	0.453
-504.712	-25.751	0.353	-0.273
-503.697	-10.332	0.054	-0.047
-502.683	152.261	-0.144	0.259
-501.668	-200.000	-0.004	0.388
-500.653	800.000	0.019	-0.102
-499.639	-126.252	0.167	-0.032
-498.624	345.628	-0.204	0.529
-497.610	93.657	0.352	0.525
-496.595	158.905	0.121	0.222
-495.581	472.217	0.087	-0.259
-494.566	147.286	0.064	0.114
-493.551	-17.681	0.340	0.280
-492.537	55.594	0.146	-0.186
-491.522	-114.475	-0.473	0.118
-490.508	130.881	-0.158	0.267
-489.493	-9.793	0.133	0.116
-488.478	159.734	-0.170	-0.312
-487.464	-19.102	0.227	-0.185
-486.449	-196.708	-0.524	0.004
-485.435	77.306	-0.154	0.215
-484.420	-200.000	0.004	-0.347
-483.405	130.136	-0.300	-0.505
-482.391	542.802	0.126	-0.398
-481.376	706.953	-0.063	0.220
-480.362	-160.683	0.196	-0.013
-479.347	-200.000	0.030	0.346
-478.332	-13.821	-0.431	-0.366
-477.318	-95.675	0.207	0.072
-476.303	75.587	-0.287	-0.399
-475.289	119.730	-0.110	0.179
-474.274	11.363	-0.444	-0.446
-473.259	201.648	-0.184	-0.373
-472.245	-106.571	0.398	0.116
-471.230	-200.000	0.007	0.112
-470.216	-99.624	0.374	-0.123
-469.201	187.287	0.174	0.341
-468.186	-200.000	0.001	-0.028
-467.172	-0.982	-0.136	0.126
-466.157	190.861	0.037	0.072
-465.143	-200.000	-0.037	-0.508
-464.128	-122.291	-0.299	0.064
-463.113	-85.740	-0.268	-0.109
-462.099	800.000	-0.051	-0.193
-461.084	26.372	-0.115	0.126
-460.070	-10.507	-0.334	-0.290
-459.055	325.688	0.160	-0.404
-458.040	41.720	-0.065	0.077
-457.026	800.000	-0.039	-0.197
-456.011	-124.772	0.479	0.096
-454.997	384.687	-0.161	0.437
-453.982	800.000	0.033	-0.137
-452.968	-1.160	0.200	-0.185
-451.953	70.664	0.145	0.197
-450.938	33.996	-0.034	-0.039
-449.924	526.369	0.091	-0.282
-448.909	-62.394	0.307	0.167
-447.895	-200.000	0.010	0.231
-446.880	100.099	-0.090	-0.138
-445.865	-164.415	-0.050	0.003
-444.851	37.029	-0.225	0.261
-443.836	72.831	0.267	-0.365
-442.822	110.400	0.087	0.137
-441.807	-199.307	0.538	0.004
-440.792	-85.165	-0.231	-0.094
-439.778	-200.000	0.031	0.335
-438.763	27.190	0.163	-0.179
-437.749	-14.988	0.297	0.249
-436.734	572.405	-0.112	0.359
-435.719	-14.526	-0.408	0.343
-434.705	-116.714	-0.210	-0.050
-433.690	800.000	0.033	-0.125
-432.676	-26.205	-0.212	0.163
-431.661	-96.004	-0.254	0.088
-430.646	-85.566	-0.144	-0.058
-429.632	-91.862	0.050	0.019
-428.617	-169.226	-0.576	0.027
-427.603	467.740	0.169	0.500
-426.588	-3.944	-0.243	0.220
-425.573	321.996	-0.083	-0.208
-424.559	-110.417	0.046	0.012
-423.544	119.376	-0.276	0.449
-422.530	320.709	0.069	-0.174
-421.515	-12.820	-0.299	0.255
-420.500	43.696	-0.290	0.348
-419.486	20.528	-0.349	0.370
-418.471	579.443	0.098	-0.316
-417.457	-63.906	-0.183	0.098
-416.442	800.000	-0.034	0.142
-415.428	-200.000	0.013	-0.199
-414.413	94.073	-0.212	0.316
-413.398	197.703	-0.090	0.180
-412.384	208.411	0.101	0.208
-411.369	-100.033	0.053	0.017
-410.355	-200.000	-0.016	0.129
-409.340	27.603	0.100	-0.111
-408.325	-1.686	0.293	-0.270
-407.311	-24.553	0.149	0.116
-406.296	76.834	-0.159	0.221
-405.282	-5.158	-0.174	0.157
-404.267	-114.946	-0.249	-0.062
-403.252	359.182	0.031	0.081
-402.238	-173.285	-0.088	0.003
-401.223	-134.523	0.392	-0.062
-400.209	800.000	0.070	0.320
-399.194	800.000	0.059	-0.336
-398.179	-63.544	-0.244	0.131
-397.165	10.055	-0.363	-0.361
-396.150	-91.567	-0.124	-0.046
-395.136	217.664	-0.022	0.047
-394.121	-62.936	-0.839	-0.452
-393.106	324.786	0.067	0.167
-392.092	116.898	0.281	0.452
-391.077	-94.624	0.379	0.134
-390.063	-200.000	0.002	0.087
-389.048	-110.336	-0.338	-0.091
-388.033	-14.775	-0.248	0.208
-387.019	566.618	0.063	0.201
-386.004	-112.366	0.348	0.090
-384.990	-200.000	-0.059	0.549
-383.975	-97.772	0.317	0.107
-382.960	-200.000	-0.058	0.347
-381.946	679.894	-0.143	-0.491
-380.931	51.072	0.124	-0.153
-379.917	13.503	-0.371	-0.377
-378.902	227.588	0.106	0.226
-377.888	-200.000	-0.004	0.213
-376.873	-200.000	0.067	0.803
-375.858	800.000	0.062	-0.297
-374.844	-104.996	0.358	0.106
-373.829	-127.653	0.086	0.016
-372.815	800.000	-0.021	0.101
-371.800	-61.485	-0.286	-0.156
-370.785	-35.361	-0.221	-0.156
-369.771	-200.000	-0.028	-0.296
-368.756	-99.453	0.436	0.143
-367.742	-37.948	0.229	0.159
-366.727	14.892	-0.071	-0.072
-365.712	116.504	-0.214	-0.344
-364.698	800.000	0.132	-0.579
-363.683	-103.249	0.244	0.075
-362.669	70.152	-0.177	0.239
-361.654	105.711	-0.039	0.060
-360.639	-86.824	0.382	-0.152
-359.625	-51.553	0.503	0.306
-358.610	-79.637	0.336	-0.147
-357.596	33.674	-0.169	-0.192
-356.581	21.541	0.386	0.410
-355.566	-107.543	0.441	0.125
-354.552	-96.972	0.124	-0.042
-353.537	-47.759	-0.572	0.361
-352.523	-79.379	0.330	0.145
-351.508	84.992	-0.082	-0.118
-350.493	33.898	-0.094	0.107
-349.479	-90.358	0.237	0.089
-348.464	320.485	0.113	-0.281
-347.450	14.931	-0.268	-0.274
-346.435	700.681	-0.105	0.364
-345.420	221.234	0.119	0.249
-344.406	-151.784	0.236	-0.022
-343.391	379.623	-0.121	-0.325
-342.377	-120.868	0.155	-0.034
-341.362	14.619	-0.255	-0.260
-340.348	38.409	-0.266	0.309
-339.333	1.551	0.093	-0.088
-338.318	800.000	0.086	0.327
-337.304	88.435	-0.166	0.241
-336.289	-105.462	0.313	-0.092
-335.275	800.000	-0.021	0.087
-334.260	25.306	0.284	0.308
-333.245	450.761	0.054	-0.157
-332.231	800.000	-0.036	0.194
-331.216	-27.011	-0.164	-0.125
-330.202	378.802	-0.062	-0.166
-329.187	-34.167	0.411	0.294
-328.172	-176.299	-0.488	0.016
-327.158	254.902	-0.260	0.582
-326.143	-53.327	0.329	-0.196
-325.129	420.224	-0.166	0.467
-324.114	286.688	0.180	0.427
-323.099	573.737	0.144	0.459
-322.085	-126.672	-0.099	-0.019
-321.070	-200.000	-0.032	-0.394
-320.056	169.453	0.160	0.299
-319.041	149.065	-0.295	-0.522
-318.026	-71.249	-0.379	-0.185
-317.012	-200.000	-0.050	0.311
-315.997	-82.272	0.540	0.228
-314.983	80.744	0.213	-0.300
-313.968	-114.162	-0.596	-0.149
-312.953	151.421	-0.008	0.014
-311.939	127.602	-0.240	-0.399
-310.924	800.000	0.100	0.569
-309.910	-32.643	0.250	0.181
-308.895	800.000	0.047	0.214
-307.880	239.982	-0.070	0.152
-306.866	346.931	-0.031	-0.080
-305.851	-92.883	0.520	-0.188
-304.837	57.272	0.237	-0.302
-303.822	-168.865	0.021	0.001
-302.807	-72.859	0.473	-0.226
-301.793	137.250	0.240	0.410
-300.778	-49.518	-0.302	0.187
-299.764	-160.968	0.175	-0.012
-298.749	-200.000	0.035	-0.396
-297.735	-30.564	-0.221	0.163
-296.720	-200.000	0.049	-0.329
-295.705	-22.162	-0.126	-0.099
-294.691	-105.235	0.158	0.047
-293.676	-200.000	-0.042	-0.679
-292.662	-51.161	-0.422	0.257
-291.647	-33.368	-0.114	-0.082
-290.632	-200.000	-0.094	-0.700
-289.618	-67.639	0.068	-0.034
-288.603	17.656	0.070	-0.073
-287.589	-88.392	0.342	-0.133
-286.574	-37.168	0.321	0.224
-285.559	-200.000	-0.026	-0.297
-284.545	235.239	0.010	-0.022
-283.530	-114.902	-0.239	-0.059
-282.516	-78.999	0.418	0.185
-281.501	-41.352	-0.465	-0.311
-280.486	-58.338	-0.129	0.073
-279.472	21.150	-0.310	0.328
-278.457	38.546	-0.210	0.244
-277.443	-187.587	-0.505	-0.009
-276.428	-87.431	0.168	0.066
-275.413	153.864	-0.120	0.214
-274.399	800.000	-0.017	-0.062
-273.384	-120.883	-0.367	-0.080
-272.370	-11.990	-0.261	-0.223
-271.355	-76.255	0.086	-0.039
-270.340	-200.000	-0.011	-0.069
-269.326	-62.649	0.032	-0.017
-268.311	491.744	0.271	-0.813
-267.297	321.793	0.229	0.571
-266.282	-62.800	-0.239	0.128
-265.267	-80.192	0.133	0.058
-264.253	752.880	-0.091	-0.323
-263.238	-19.633	-0.099	0.079
-262.224	-200.000	-0.066	0.462
-261.209	-64.946	-0.380	0.199
-260.195	-6.141	0.501	-0.446
-259.180	61.878	0.276	-0.358
-258.165	-144.981	0.422	0.050
-257.151	-65.785	0.385	0.200
-256.136	453.394	0.139	0.402
-255.122	-72.329	-0.173	0.083
-254.107	14.013	-0.136	0.138
-253.092	71.460	0.105	0.142
-252.078	-198.867	0.775	0.005
-251.063	800.000	-0.018	-0.094
-250.049	105.193	-0.239	0.367
-249.034	-103.639	0.181	-0.055
-248.019	-200.000	-0.035	-0.367
-247.005	-200.000	-0.025	-0.157
-245.990	-8.082	0.239	0.209
-244.976	-179.111	0.558	-0.016
-243.961	476.095	-0.103	0.303
-242.946	566.527	0.073	-0.233
-241.932	9.230	-0.357	-0.351
-240.917	-111.303	0.320	-0.084
-239.903	-185.244	0.082	0.002
-238.888	-61.373	0.476	0.260
-237.873	-42.799	-0.160	-0.106
-236.859	9.366	0.508	-0.500
-235.844	319.659	0.154	-0.381
-234.830	-6.509	0.275	0.244
-233.815	-134.319	-0.218	-0.034
-232.800	-83.348	-0.532	-0.221
-231.786	-32.105	0.123	-0.089
-230.771	-0.499	0.611	0.564
-229.757	-29.831	0.251	0.185
-228.742	-44.205	0.210	-0.136
-227.727	-158.294	0.781	-0.058
-226.713	451.472	-0.072	-0.209
-225.698	-200.000	-0.033	-0.298
-224.684	-116.340	0.177	0.042
-223.669	483.999	0.189	-0.562
-222.655	-138.488	-0.183	0.026
-221.640	-200.000	-0.052	0.722
-220.625	125.190	-0.190	-0.312
-219.611	-158.079	-0.140	-0.011
-218.596	-127.614	0.201	-0.038
-217.582	232.508	-0.177	-0.379
-216.567	0.817	-0.128	-0.119
-215.552	-125.909	-0.185	0.036
-214.538	-194.888	-0.102	0.001
-213.523	327.047	-0.189	-0.472
-212.509	180.750	-0.167	-0.320
-211.494	-200.000	-0.027	-0.298
-210.479	-200.000	-0.014	-0.338
-209.465	-200.000	-0.017	-0.102
-208.450	-77.071	0.207	0.093
-207.436	-131.323	-0.214	-0.036
-206.421	12.579	-0.298	-0.299
-205.406	-143.594	-0.377	0.046
-204.392	800.000	-0.062	-0.281
-203.377	77.995	0.141	0.195
-202.363	-106.589	0.272	-0.078
-201.348	-146.992	0.487	0.054
-200.333	144.230	0.224	0.390
-199.319	-68.499	-0.100	-0.050
-198.304	-24.105	0.681	0.527
-197.290	13.764	-0.267	0.270
-196.275	169.618	-0.373	-0.695
-195.260	547.191	-0.123	-0.386
-194.246	-114.811	-0.305	-0.075
-193.231	-99.953	0.577	0.186
-192.217	172.035	0.280	-0.525
-191.202	-115.242	0.082	0.020
-190.187	-122.179	-0.406	0.085
-189.173	-169.844	0.385	-0.018
-188.158	27.196	-0.245	0.267
-187.144	-42.010	0.477	0.317
-186.129	-71.997	-0.285	0.137
-185.114	-200.000	-0.026	-0.402
-184.100	-38.876	0.095	-0.065
-183.085	-75.916	-0.466	-0.213
-182.071	-200.000	-0.051	-0.400
-181.056	-200.000	-0.214	-0.000
-180.042	-134.397	0.334	-0.053
-179.027	676.696	-0.066	-0.225
-178.012	618.122	0.078	-0.256
-176.998	800.000	0.107	-0.416
-175.983	-3.519	-0.104	-0.094
-174.969	147.122	-0.041	0.072
-173.954	-35.189	-0.261	0.184
-172.939	-92.901	0.260	-0.094
-171.925	603.970	0.244	-0.792
-170.910	110.190	0.204	0.319
-169.896	274.921	0.092	0.213
-168.881	-133.833	-0.204	-0.033
-167.866	0.195	-0.251	0.232
-166.852	-32.828	0.279	-0.201
-165.837	772.614	0.049	-0.174
-164.823	-200.000	-0.004	0.191
-163.808	-117.153	-0.016	0.004
-162.793	299.221	-0.192	0.460
-161.779	147.629	-0.093	0.163
-160.764	292.543	0.145	0.343
-159.750	-200.000	-0.014	-0.135
-158.735	-101.959	-0.096	0.030
-157.720	17.723	-0.140	-0.144
-156.706	89.771	0.319	0.462
-155.691	-122.381	0.126	-0.027
-154.677	63.528	0.020	-0.026
-153.662	-76.290	-0.388	0.176
-152.647	46.825	0.221	0.267
-151.633	-86.482	0.189	0.075
-150.618	-125.963	0.255	0.049
-149.604	229.437	0.347	-0.738
-148.589	-76.110	-0.240	-0.109
-147.574	247.584	0.154	0.339
-146.560	17.544	-0.280	-0.288
-145.545	-200.000	0.119	0.720
-144.531	109.953	-0.127	-0.198
-143.516	-200.000	-0.010	0.486
-142.502	12.589	0.214	-0.214
-141.487	-200.000	-0.021	-0.138
-140.472	61.581	-0.155	-0.200
-139.458	394.684	-0.096	-0.262
-138.443	-95.790	0.045	0.016
-137.429	207.640	-0.202	0.410
-136.414	-67.013	-0.242	0.123
-135.399	-150.427	-0.441	0.043
-134.385	39.745	0.371	0.431
-133.370	800.000	0.064	0.296
-132.356	39.221	-0.012	-0.014
-131.341	-37.782	0.416	-0.286
-130.326	-200.000	0.003	-0.625
-129.312	-98.344	-0.362	0.120
-128.297	62.478	-0.334	0.432
-127.283	-86.177	-0.241	-0.096
-126.268	-64.357	0.618	-0.324
-125.253	-72.268	0.524	-0.251
-124.239	-26.614	0.439	0.332
-123.224	17.207	0.227	-0.233
-122.210	-173.204	0.435	0.017
-121.195	-200.000	0.010	0.128
-120.180	444.712	0.038	-0.108
-119.166	-140.041	-0.508	-0.069
-118.151	-154.559	0.282	0.024
-117.137	-32.419	0.205	-0.148
-116.122	-200.000	-0.004	0.022
-115.107	298.498	0.167	0.400
-114.093	-200.000	0.004	0.331
-113.078	130.859	-0.176	-0.293
-112.064	-152.159	0.405	-0.038
-111.049	-57.798	0.719	-0.405
-110.034	800.000	0.023	0.130
-109.020	269.555	0.223	0.508
-108.005	-174.229	-0.262	0.010
-106.991	-200.000	-0.008	0.097
-105.976	-46.832	0.385	-0.243
-104.962	-41.350	0.312	-0.207
-103.947	5.054	-0.186	-0.177
-102.932	-154.812	-0.095	-0.008
-101.918	-135.985	0.521	-0.078
-100.903	151.831	-0.280	-0.495
-99.889	79.786	0.220	0.306
-98.874	-103.359	0.274	0.083
-97.859	5.397	-0.166	0.158
-96.845	279.265	0.178	0.413
-95.830	474.243	0.127	-0.374
-94.816	214.582	0.037	0.076
-93.801	-128.843	-0.096	-0.017
-92.786	-28.812	0.265	0.197
-91.772	123.034	-0.116	0.188
-90.757	-126.186	-0.316	-0.061
-89.743	159.237	0.041	0.073
-88.728	-90.240	-0.350	-0.131
-87.713	-7.856	0.296	-0.258
-86.699	181.148	0.117	0.223
-85.684	800.000	0.135	0.538
-84.670	63.277	-0.346	0.449
-83.655	-121.769	0.514	0.109
-82.640	-8.743	-0.075	-0.065
-81.626	220.506	-0.248	-0.515
-80.611	11.762	-0.342	-0.339
-79.597	800.000	0.084	-0.384
-78.582	-29.450	-0.332	-0.245
-77.567	-130.557	-0.185	-0.032
-76.553	-51.653	-0.234	0.141
-75.538	-165.544	0.130	0.007
-74.524	221.597	0.353	0.736
-73.509	405.904	-0.024	-0.066
-72.494	-200.000	-0.008	-0.331
-71.480	14.198	-0.171	-0.172
-70.465	104.005	-0.129	-0.197
-69.451	-146.986	-0.070	0.008
-68.436	-120.786	0.034	0.007
-67.422	-119.502	0.076	0.017
-66.407	-126.607	-0.468	0.089
-65.392	188.898	0.247	-0.480
-64.378	-89.869	-0.135	-0.051
-63.363	28.584	-0.231	0.252
-62.349	493.140	0.091	0.271
-61.334	29.811	-2.266	-2.493
-60.319	28.368	1.717	1.875
-59.305	205.156	-3.822	-7.690
-58.290	78.278	3.648	5.037
-57.276	391.914	3.861	10.409
-56.261	-200.000	22.055	317.028
-55.246	361.080	1293.453	3362.422
-54.232	53.278	2843.287	3520.841
-53.217	51.685	2663.588	3273.569
-52.203	32.484	2393.053	2670.524
-51.188	28.451	2057.608	2246.528
-50.173	25.242	1943.741	2084.711
-49.159	24.118	1931.518	2058.465
-48.144	23.482	1928.224	2047.500
-47.130	23.464	1925.870	2044.707
-46.115	23.495	1924.028	2043.025
-45.100	23.403	1923.298	2041.114
-44.086	23.463	1920.788	2039.059
-43.071	23.378	1919.530	2036.655
-42.057	23.368	1918.637	2035.509
-41.042	23.428	1917.142	2034.544
-40.027	23.381	1915.035	2031.681
-39.013	23.338	1914.244	2030.267
-37.998	23.294	1912.924	2028.275
-36.984	23.310	1912.024	2027.424
-35.969	23.212	1910.886	2025.016
-34.954	23.437	1908.990	2025.513
-33.940	23.311	1908.060	2023.002
-32.925	23.322	1906.388	2021.274
-31.911	23.286	1905.373	2019.700
-30.896	23.353	1903.739	2018.660
-29.881	23.266	1902.219	2015.969
-28.867	23.225	1900.820	2013.941
-27.852	23.207	1899.662	2012.427
-26.838	23.223	1898.067	2010.835
-25.823	23.191	1896.740	2008.981
-24.809	23.221	1895.982	2008.451
-23.794	23.251	1894.135	2006.757
-22.779	23.255	1892.181	2004.643
-21.765	23.178	1891.078	2002.522
-20.750	23.094	1891.534	2001.973
-19.736	23.177	1889.470	2000.655
-18.721	23.090	1888.874	1998.950
-17.706	23.219	1886.598	1997.930
-16.692	23.074	1885.853	1995.416
-15.677	23.144	1885.188	1995.427
-14.663	23.137	1883.005	1992.960
-13.648	23.124	1881.862	1991.519
-12.633	22.995	1881.283	1989.374
-11.619	23.166	1878.366	1988.135
-10.604	23.050	1878.404	1986.790
-9.590	23.085	1877.631	1986.282
-8.575	23.139	1875.548	1984.607
-7.560	23.086	1874.164	1982.473
-6.546	23.125	1873.194	1981.812
-5.531	22.991	1872.662	1979.656
-4.517	23.023	1871.394	1978.598
-3.502	22.969	1870.226	1976.681
-2.487	23.086	1868.872	1976.486
-1.473	23.189	1865.648	1974.149
-0.458	22.869	1848.213	1952.065
0.556	19.421	1992.480	2051.000
1.571	17.874	2195.918	2239.757
2.586	18.752	2234.033	2290.134
3.600	18.654	2237.096	2291.690
4.615	18.729	2236.426	2291.725
5.629	18.694	2234.444	2288.961
6.644	18.742	2231.800	2286.613
7.659	18.610	2230.655	2283.402
8.673	18.771	2228.014	2282.575
9.688	18.577	2236.792	2288.691
10.702	17.634	2317.423	2357.802
11.717	15.731	2381.505	2395.485
12.731	7.316	2361.334	2255.024
13.746	1.065	2343.499	2148.815
14.761	0.179	2340.465	2133.158
15.775	0.087	2339.347	2130.571
16.790	0.006	2337.606	2127.586
17.804	0.031	2335.618	2125.880
18.819	0.044	2335.061	2125.290
19.834	0.033	2332.433	2122.497
20.848	0.003	2332.918	2122.251
21.863	0.107	2329.947	2120.769
22.877	-0.015	2328.072	2117.089
23.892	0.028	2326.020	2115.572
24.907	-0.051	2324.566	2112.876
25.921	-0.117	2322.955	2110.236
26.936	-0.008	2320.021	2108.855
27.950	-0.124	2318.698	2105.759
28.965	0.065	2314.299	2104.175
29.980	0.126	2313.114	2103.697
30.994	0.118	2311.140	2101.546
32.009	3.841	2322.578	2164.135
33.023	13.099	2349.921	2320.648
34.038	16.957	2355.730	2380.636
35.053	16.965	2352.856	2377.559
36.067	16.870	2349.322	2372.364
37.082	16.930	2347.465	2371.052
38.096	16.939	2346.533	2369.954
39.111	17.080	2344.185	2369.277
40.126	17.314	2341.374	2369.428
41.140	17.561	2340.276	2371.493
42.155	17.400	2339.210	2367.872
43.169	17.423	2337.682	2366.361
44.184	17.266	2333.346	2359.508
45.199	17.231	2331.492	2356.858
46.213	17.270	2331.827	2357.460
47.228	17.363	2331.699	2358.342
48.242	17.470	2328.489	2356.298
49.257	17.549	2326.670	2355.277
50.271	17.669	2323.738	2353.696
51.286	17.403	2321.230	2347.190
52.301	17.089	2320.359	2341.664
53.315	17.918	2322.516	2355.060
54.330	20.868	2330.450	2403.808
55.344	22.758	2332.448	2431.783
56.359	23.016	2328.458	2430.892
57.374	23.097	2328.261	2431.520
58.388	23.089	2326.670	2429.461
59.403	22.991	2321.912	2422.854
60.417	22.585	2318.390	2413.297
61.432	22.813	2316.750	2414.441
62.447	22.825	2316.624	2414.174
63.461	22.984	2314.796	2414.172
64.476	23.187	2312.323	2414.080
65.490	22.914	2309.323	2406.924
66.505	21.931	2306.894	2390.653
67.520	19.909	2297.768	2353.300
68.534	17.780	2288.801	2314.825
69.549	17.127	2285.741	2302.553
70.563	17.138	2283.189	2299.866
71.578	17.148	2281.688	2298.209
72.593	17.256	2278.720	2296.409
73.607	17.329	2277.660	2296.065
74.622	17.373	2276.343	2295.060
75.636	17.194	2272.940	2288.928
76.651	17.113	2271.604	2286.207
77.666	17.121	2268.381	2282.803
78.680	16.989	2266.001	2278.345
79.695	16.813	2264.481	2274.180
80.709	16.692	2263.232	2271.018
81.724	16.810	2261.372	2270.470
82.739	16.747	2258.696	2266.668
83.753	16.998	2255.631	2266.687
84.768	16.867	2254.532	2263.550
85.782	16.813	2253.093	2261.108
86.797	16.907	2251.471	2260.472
87.812	16.818	2250.010	2257.542
88.826	17.042	2247.658	2257.913
89.841	16.960	2245.793	2254.677
90.855	17.065	2243.171	2253.164
91.870	17.071	2241.590	2251.386
92.884	17.067	2240.725	2250.196
93.899	17.195	2238.572	2249.478
94.914	17.825	2242.251	2261.289
95.928	20.308	2248.819	2300.777
96.943	21.078	2247.783	2309.698
97.957	18.658	2236.834	2266.082
98.972	17.214	2231.294	2241.063
99.987	17.011	2227.898	2234.703
101.001	16.937	2226.233	2231.786
102.016	17.033	2223.167	2229.719
103.030	16.879	2220.780	2225.020
104.045	17.063	2218.115	2224.512
105.060	16.943	2217.205	2221.754
106.074	16.950	2215.935	2220.309
107.089	17.020	2213.436	2218.452
108.103	16.882	2212.275	2215.206
109.118	17.038	2210.940	2215.655
110.133	17.061	2209.129	2213.884
111.147	16.906	2206.815	2209.264
112.162	16.872	2205.861	2207.602
113.176	16.974	2203.881	2206.689
114.191	17.118	2201.202	2205.617
115.206	17.093	2199.876	2203.702
116.220	17.043	2198.052	2200.959
117.235	17.180	2195.858	2200.279
118.249	17.216	2193.669	2198.302
119.264	17.028	2193.510	2195.431
120.279	17.007	2190.713	2192.097
121.293	17.049	2189.769	2191.437
122.308	17.131	2188.487	2190.952
123.322	17.021	2187.073	2187.852
124.337	17.502	2187.861	2194.605
125.352	20.228	2196.070	2237.984
126.366	20.882	2194.419	2244.503
127.381	18.242	2182.870	2198.379
128.395	17.120	2178.127	2178.866
129.410	17.085	2175.931	2175.956
130.424	17.047	2173.580	2172.858
131.439	17.128	2172.547	2172.607
132.454	17.006	2171.294	2169.531
133.468	17.272	2168.845	2170.239
134.483	17.253	2167.799	2168.683
135.497	17.344	2166.046	2167.843
136.512	17.334	2163.601	2165.007
137.527	17.089	2162.174	2160.179
138.541	16.958	2161.150	2157.231
139.556	16.952	2160.047	2155.789
140.570	17.058	2157.170	2154.020
141.585	16.970	2156.009	2151.471
142.600	16.918	2154.978	2149.522
143.614	16.909	2152.596	2146.784
144.629	16.878	2151.090	2144.627
145.643	16.800	2149.984	2142.272
146.658	16.764	2146.672	2138.260
147.673	16.747	2145.008	2136.130
148.687	16.742	2145.230	2136.035
149.702	16.986	2143.853	2137.497
150.716	16.998	2143.085	2136.625
151.731	17.113	2141.227	2135.971
152.746	17.180	2140.478	2135.821
153.760	17.890	2142.903	2146.963
154.775	20.555	2150.695	2188.278
155.789	21.432	2149.205	2197.586
156.804	18.877	2137.748	2153.468
157.819	17.262	2130.579	2125.704
158.833	16.868	2127.707	2117.636
159.848	17.079	2125.836	2118.164
160.862	17.021	2125.135	2116.480
161.877	17.066	2123.855	2115.522
162.892	17.235	2121.982	2115.522
163.906	17.193	2121.082	2113.838
164.921	17.257	2119.433	2112.742
165.935	17.196	2117.016	2109.323
166.950	17.139	2116.789	2108.128
167.964	17.238	2113.605	2105.947
168.979	17.027	2112.135	2101.597
169.994	16.954	2110.583	2098.891
171.008	16.857	2108.326	2095.196
172.023	16.755	2107.840	2093.198
173.037	16.977	2106.419	2094.287
174.052	17.163	2104.652	2094.588
175.067	17.136	2102.814	2092.166
176.081	16.950	2101.692	2088.503
177.096	16.948	2100.208	2086.750
178.110	17.096	2098.144	2086.280
179.125	17.205	2097.391	2086.621
180.140	17.066	2096.545	2083.814
181.154	17.221	2094.610	2083.563
182.169	17.233	2093.995	2082.844
183.183	18.053	2096.303	2094.999
184.198	21.003	2103.913	2138.782
185.213	21.710	2100.097	2143.334
186.227	18.546	2090.635	2094.641
187.242	17.277	2087.191	2075.376
188.256	17.082	2084.939	2070.497
189.271	17.068	2081.705	2066.859
190.286	17.025	2080.751	2065.138
191.300	17.079	2078.410	2063.240
192.315	17.008	2077.525	2061.240
193.329	17.235	2075.945	2062.199
194.344	17.193	2075.901	2061.391
195.359	17.325	2074.885	2061.748
196.373	17.376	2071.049	2058.305
197.388	17.107	2068.618	2052.383
198.402	17.064	2066.800	2049.812
199.417	17.121	2064.301	2047.779
200.432	17.074	2063.696	2046.360
201.446	17.043	2062.163	2044.216
202.461	17.157	2060.269	2043.477
203.475	17.045	2058.818	2040.435
204.490	17.111	2056.335	2038.529
205.504	16.971	2055.073	2035.349
206.519	16.953	2052.730	2032.566
207.534	17.049	2050.830	2031.600
208.548	17.023	2050.003	2030.223
209.563	17.147	2047.819	2029.308
210.577	17.121	2048.723	2029.646
211.592	17.252	2047.064	2029.328
212.607	18.487	2052.335	2049.160
213.621	21.701	2059.328	2094.583
214.636	21.195	2053.430	2082.269
215.650	18.140	2043.781	2035.736
216.665	17.166	2041.126	2021.208
217.680	17.181	2039.211	2019.242
218.694	17.096	2036.529	2015.336
219.709	17.080	2034.671	2013.059
220.723	17.176	2034.146	2013.447
221.738	17.222	2032.337	2011.959
222.753	17.407	2030.189	2011.795
223.767	17.261	2028.884	2008.523
224.782	17.301	2027.005	2006.901
225.796	17.186	2025.909	2004.216
226.811	17.129	2024.437	2001.837
227.826	17.176	2022.290	2000.033
228.840	17.056	2021.169	1997.258
229.855	16.994	2020.574	1995.702
230.869	17.165	2017.831	1994.779
231.884	17.110	2016.224	1992.304
232.899	17.205	2015.112	1992.085
233.913	17.084	2013.955	1989.276
234.928	17.010	2012.313	1986.543
235.942	17.099	2010.579	1985.642
236.957	17.097	2008.781	1983.600
237.972	16.999	2008.373	1981.817
238.986	17.062	2006.708	1980.670
240.001	16.981	2005.036	1977.831
241.015	17.070	2003.571	1977.190
242.030	17.960	2006.560	1990.341
243.045	20.590	2012.336	2026.685
244.059	20.928	2008.715	2026.744
245.074	18.268	1999.631	1986.341
246.088	17.353	1995.180	1971.028
247.103	17.445	1994.597	1971.289
248.117	17.420	1992.738	1968.922
249.132	17.281	1991.032	1965.393
250.147	17.100	1988.722	1960.780
251.161	17.024	1987.930	1958.874
252.176	17.280	1986.837	1960.529
253.190	17.532	1985.067	1961.466
254.205	17.617	1983.526	1960.698
255.220	17.592	1982.276	1958.938
256.234	17.489	1980.749	1956.005
257.249	17.311	1979.657	1952.642
258.263	17.231	1978.904	1950.743
259.278	17.267	1977.575	1949.606
260.293	17.304	1974.626	1946.895
261.307	17.144	1972.765	1942.982
262.322	17.099	1972.013	1941.497
263.336	17.082	1969.314	1938.416
264.351	17.014	1966.935	1935.062
265.366	16.953	1966.203	1933.406
266.380	17.054	1965.401	1933.539
267.395	17.027	1964.038	1931.665
268.409	17.128	1962.209	1930.790
269.424	17.035	1961.024	1928.330
270.439	17.069	1959.292	1926.778
271.453	18.099	1963.068	1942.037
272.468	20.901	1968.832	1979.539
273.482	21.159	1964.595	1977.985
274.497	18.265	1954.817	1935.062
275.512	17.190	1951.069	1918.922
276.526	17.033	1948.752	1914.628
277.541	17.007	1947.052	1912.435
278.555	16.990	1945.723	1910.716
279.570	16.881	1943.813	1907.378
280.585	16.949	1942.789	1906.913
281.599	17.056	1940.956	1906.088
282.614	17.154	1940.485	1906.504
283.628	17.359	1939.645	1907.767
284.643	17.461	1939.461	1908.498
285.657	17.697	1937.654	1909.158
286.672	17.718	1936.224	1907.755
287.687	17.673	1934.497	1905.314
288.701	17.536	1932.775	1901.853
289.716	17.527	1931.079	1899.856
290.730	17.455	1930.210	1897.963
291.745	17.585	1928.471	1897.490
292.760	17.503	1927.686	1895.574
293.774	17.394	1926.698	1893.155
294.789	17.181	1925.322	1889.188
295.803	17.153	1923.064	1886.436
296.818	17.088	1922.024	1884.467
297.833	17.209	1920.414	1884.011
298.847	17.281	1918.535	1882.749
299.862	17.246	1917.609	1881.216
300.876	17.987	1918.792	1890.400
301.891	20.932	1926.254	1930.363
302.906	21.346	1922.937	1931.408
303.920	18.408	1913.710	1889.388
304.935	17.389	1910.478	1874.686
305.949	17.137	1907.717	1868.970
306.964	17.285	1905.936	1868.627
307.979	17.235	1905.254	1867.184
308.993	17.548	1903.919	1869.114
310.008	17.714	1902.921	1869.739
311.022	17.740	1901.827	1868.728
312.037	17.561	1898.867	1863.620
313.052	17.532	1897.774	1862.003
314.066	17.635	1897.007	1862.164
315.081	17.658	1895.188	1860.406
316.095	17.440	1894.003	1856.636
317.110	17.306	1892.086	1853.064
318.125	17.348	1889.793	1851.056
319.139	17.207	1889.745	1849.247
320.154	17.348	1887.999	1848.855
321.168	17.246	1886.038	1845.598
322.183	17.302	1884.169	1844.156
323.197	17.020	1883.255	1839.970
324.212	16.905	1880.539	1835.849
325.227	16.873	1879.261	1834.027
326.241	16.935	1877.636	1832.904
327.256	17.027	1875.781	1831.870
328.270	16.934	1875.597	1830.461
329.285	16.949	1875.908	1830.701
330.300	17.998	1880.525	1846.391
331.314	21.146	1886.026	1885.821
332.329	21.111	1880.922	1880.107
333.343	18.138	1871.864	1838.739
334.358	17.027	1867.577	1822.328
335.373	16.940	1865.325	1818.973
336.387	16.829	1863.523	1815.801
337.402	16.796	1861.842	1813.592
338.416	16.843	1860.922	1812.982
339.431	17.067	1859.353	1813.647
340.446	17.124	1857.519	1812.246
341.460	17.234	1856.891	1812.597
342.475	17.364	1855.902	1812.806
343.489	17.478	1854.615	1812.561
344.504	17.344	1854.203	1810.506
345.519	17.393	1852.807	1809.449
346.533	17.612	1850.726	1809.538
347.548	17.753	1850.487	1810.595
348.562	17.930	1849.421	1811.222
349.577	17.941	1848.855	1810.566
350.592	17.789	1847.625	1807.521
351.606	17.701	1846.409	1805.185
352.621	17.867	1843.460	1803.849
353.635	17.562	1842.499	1799.451
354.650	17.432	1840.958	1796.354
355.665	17.344	1839.128	1793.420
356.679	17.215	1837.750	1790.500
357.694	17.185	1835.435	1787.712
358.708	17.002	1834.482	1784.628
359.723	18.343	1838.856	1802.870
360.738	21.579	1843.333	1841.315
361.752	20.971	1838.619	1829.971
362.767	18.095	1830.365	1791.289
363.781	17.349	1826.195	1779.152
364.796	17.117	1825.307	1775.633
365.810	16.938	1824.465	1772.720
366.825	17.131	1822.991	1773.106
367.840	17.233	1821.737	1772.747
368.854	17.294	1820.981	1772.437
369.869	17.274	1819.949	1771.009
370.883	17.463	1820.105	1772.927
371.898	17.712	1818.499	1773.753
372.913	17.489	1816.297	1769.070
373.927	17.432	1816.223	1768.190
374.942	17.701	1813.963	1768.584
375.956	17.500	1812.767	1765.111
376.971	17.401	1810.499	1761.661
377.986	17.263	1808.297	1757.866
379.000	17.261	1807.554	1756.916
380.015	17.330	1806.085	1755.993
381.029	17.045	1803.545	1750.365
382.044	16.923	1801.371	1746.780
383.059	16.988	1799.937	1745.848
384.073	16.897	1800.293	1745.049
385.088	16.956	1799.389	1744.575
386.102	16.809	1797.579	1741.092
387.117	16.850	1795.670	1739.459
388.132	17.099	1794.246	1740.430
389.146	17.949	1799.827	1754.423
390.161	21.290	1804.550	1793.347
391.175	21.085	1796.868	1783.385
392.190	18.065	1788.603	1744.045
393.205	17.292	1785.631	1733.022
394.219	17.266	1783.602	1730.571
395.234	17.067	1783.007	1727.757
396.248	17.168	1780.805	1726.442
397.263	16.992	1778.441	1722.155
398.278	17.075	1776.651	1721.057
399.292	16.901	1776.452	1718.886
400.307	17.012	1775.637	1719.021
401.321	17.164	1774.059	1718.839
402.336	17.206	1773.289	1718.308
403.350	17.229	1771.144	1716.258
404.365	17.296	1770.475	1716.085
405.380	17.493	1769.753	1717.178
406.394	17.821	1769.880	1720.422
407.409	18.322	1769.485	1724.910
408.423	18.125	1766.490	1719.784
409.438	17.675	1764.969	1713.553
410.453	17.435	1764.079	1710.063
411.467	17.669	1763.342	1711.507
412.482	17.394	1761.448	1706.686
413.496	17.282	1759.583	1703.547
414.511	17.145	1757.175	1699.634
415.526	17.135	1754.887	1697.121
416.540	17.049	1752.771	1694.007
417.555	17.130	1752.018	1693.885
418.569	17.296	1752.737	1696.048
419.584	17.336	1752.525	1696.037
420.599	17.280	1751.991	1694.761
421.613	17.156	1750.419	1691.797
422.628	17.075	1749.674	1690.058
423.642	16.944	1747.862	1686.803
424.657	17.038	1746.196	1685.930
425.672	17.213	1744.301	1685.637
426.686	17.078	1743.318	1683.148
427.701	17.084	1741.300	1681.057
428.715	17.147	1740.897	1681.090
429.730	17.556	1739.319	1683.433
430.745	17.396	1738.277	1680.633
431.759	17.422	1738.425	1680.830
432.774	17.819	1737.952	1684.108
433.788	18.081	1739.185	1687.707
434.803	18.427	1737.729	1689.520
435.818	18.342	1736.679	1687.455
436.832	18.274	1735.790	1685.715
437.847	17.286	1728.725	1668.913
438.861	9.603	1708.293	1573.810
439.876	1.776	1693.785	1483.827
440.890	0.401	1690.967	1467.742
441.905	0.111	1689.916	1463.815
442.920	0.163	1688.822	1463.199
443.934	0.135	1687.257	1461.398
444.949	0.165	1685.311	1459.830
445.963	0.107	1685.532	1459.277
446.978	0.136	1684.866	1458.813
447.993	0.176	1682.427	1456.917
449.007	0.149	1680.170	1454.523
450.022	0.185	1678.826	1453.537
451.036	0.127	1677.613	1451.747
452.051	1.022	1681.640	1463.754
453.066	8.797	1699.019	1554.777
454.080	16.572	1711.353	1642.011
455.095	18.381	1713.231	1661.264
456.109	18.945	1714.742	1668.034
457.124	19.137	1713.392	1668.389
458.139	19.176	1713.124	1668.316
459.153	19.434	1711.959	1669.491
460.168	19.282	1710.171	1666.066
461.182	19.294	1708.074	1663.945
462.197	19.201	1706.017	1660.835
463.212	19.133	1704.378	1658.382
464.226	19.158	1702.976	1657.062
465.241	19.260	1702.591	1657.481
466.255	19.407	1702.008	1658.136
467.270	19.413	1700.660	1656.676
468.285	19.145	1698.710	1651.991
469.299	19.065	1697.344	1649.700
470.314	19.233	1695.480	1649.309
471.328	19.146	1694.809	1647.620
472.343	19.259	1694.055	1647.772
473.358	19.266	1692.873	1646.491
474.372	19.427	1690.838	1645.859
475.387	19.119	1689.546	1641.455
476.401	19.029	1688.990	1639.857
477.416	19.067	1686.729	1637.828
478.430	19.168	1685.691	1637.593
479.445	19.042	1683.808	1634.361
480.460	18.945	1682.514	1631.985
481.474	18.940	1682.667	1631.892
482.489	19.273	1681.144	1633.391
483.503	19.552	1679.412	1634.173
484.518	19.450	1678.913	1632.515
485.533	19.303	1677.661	1629.707
486.547	19.400	1676.166	1628.980
487.562	19.535	1675.338	1629.267
488.576	19.615	1673.898	1628.423
489.591	19.441	1672.409	1625.132
490.606	19.460	1671.029	1623.778
491.620	19.428	1669.213	1621.521
492.635	19.678	1667.661	1622.173
493.649	19.848	1666.764	1622.714
494.664	19.450	1664.963	1617.011
495.679	18.944	1663.363	1610.504
496.693	19.107	1662.467	1610.981
497.708	19.404	1661.243	1612.390
498.722	19.548	1662.176	1614.452
499.737	19.626	1659.857	1612.738
500.752	19.382	1657.520	1607.995
501.766	19.455	1655.375	1606.402
502.781	19.435	1654.579	1605.254
503.795	19.456	1652.893	1603.619
504.810	19.426	1652.881	1603.134
505.825	19.666	1652.201	1604.520
506.839	19.793	1650.202	1603.576
507.854	19.619	1649.100	1600.687
508.868	19.545	1648.757	1599.474
509.883	19.535	1647.833	1598.299
510.898	19.893	1645.900	1599.553
511.912	19.617	1644.035	1594.989
512.927	19.538	1641.751	1591.854
513.941	19.375	1641.071	1589.491
514.956	19.322	1639.517	1587.311
515.971	19.424	1638.119	1586.704
516.985	19.503	1637.357	1586.506
518.000	19.614	1636.807	1586.812
519.014	19.789	1635.590	1587.060
520.029	19.912	1634.495	1586.941
521.043	19.883	1632.595	1584.633
522.058	19.821	1631.837	1583.142
523.073	19.856	1630.932	1582.395
524.087	20.111	1630.854	1584.469
525.102	20.110	1628.606	1582.089
526.116	19.587	1627.451	1575.983
527.131	19.630	1626.107	1574.889
528.146	20.015	1625.648	1577.780
529.160	20.078	1624.505	1577.054
530.175	19.975	1624.012	1575.450
531.189	20.142	1622.319	1575.141
532.204	20.199	1620.298	1573.515
533.219	19.880	1619.014	1569.169
534.233	19.498	1618.665	1565.159
535.248	19.854	1617.833	1567.409
536.262	20.167	1617.282	1569.542
537.277	20.121	1615.374	1567.081
538.292	19.770	1613.481	1561.867
539.306	19.811	1611.579	1560.215
540.321	19.795	1609.889	1558.250
541.335	19.688	1609.319	1556.537
542.350	19.849	1607.651	1556.193
543.365	20.034	1606.901	1556.958
544.379	20.027	1605.262	1555.114
545.394	20.131	1604.570	1555.202
546.408	19.786	1603.242	1550.619
547.423	19.548	1601.316	1546.424
548.438	19.502	1600.255	1544.804
549.452	19.733	1599.473	1545.942
550.467	19.968	1597.813	1546.258
551.481	19.855	1597.384	1544.643
552.496	20.020	1597.094	1545.664
553.511	20.400	1595.345	1547.188
554.525	20.157	1594.630	1544.134
555.540	20.316	1594.208	1544.964
556.554	20.471	1592.618	1544.624
557.569	20.218	1590.867	1540.480
558.583	20.077	1589.817	1538.022
559.598	20.115	1588.128	1536.541
560.613	20.175	1586.420	1535.242
561.627	20.166	1585.958	1534.528
562.642	20.385	1584.465	1534.842
563.656	20.593	1583.704	1535.772
564.671	20.497	1582.510	1533.580
565.686	20.472	1581.262	1531.960
566.700	20.150	1579.058	1526.799
567.715	20.034	1577.636	1524.211
568.729	19.943	1575.671	1521.325
569.744	19.660	1574.187	1517.212
570.759	19.656	1573.478	1516.312
571.773	19.856	1573.058	1517.496
572.788	19.882	1572.697	1517.193
573.802	20.188	1570.850	1517.920
574.817	20.271	1569.320	1516.989
575.832	20.335	1568.751	1516.820
576.846	20.417	1567.313	1515.970
577.861	20.208	1566.059	1512.744
578.875	20.393	1565.916	1514.041
579.890	20.645	1565.219	1515.393
580.905	20.656	1563.143	1513.299
581.919	20.493	1563.377	1511.917
582.934	20.704	1562.500	1512.737
583.948	20.740	1560.912	1511.334
584.963	20.556	1559.222	1507.911
585.978	20.326	1557.835	1504.384
586.992	20.483	1557.441	1505.189
588.007	20.610	1556.065	1504.783
589.021	20.207	1554.323	1499.419
590.036	20.037	1551.853	1495.382
591.051	20.301	1551.098	1496.763
592.065	20.344	1550.139	1496.030
593.080	20.443	1549.199	1495.801
594.094	20.652	1547.778	1496.054
595.109	20.176	1545.423	1489.497
596.123	20.110	1544.157	1487.522
597.138	20.412	1543.434	1489.254
598.153	20.634	1542.477	1490.062
599.167	20.477	1541.397	1487.489
600.182	20.462	1540.995	1486.796
601.196	20.672	1539.995	1487.456
602.211	20.594	1538.531	1485.202
603.226	20.617	1538.269	1484.965
604.240	20.787	1536.780	1484.803
605.255	20.889	1535.881	1484.631
606.269	20.835	1534.519	1482.678
607.284	20.676	1533.838	1480.487
608.299	20.728	1532.448	1479.411
609.313	20.702	1530.501	1477.125
610.328	20.810	1528.507	1475.944
611.342	20.741	1527.849	1474.552
612.357	20.888	1527.470	1475.253
613.372	20.835	1526.784	1473.967
614.386	20.832	1525.062	1472.102
615.401	20.950	1524.359	1472.250
616.415	21.011	1523.693	1471.948
617.430	20.994	1522.664	1470.638
618.445	20.995	1521.589	1469.427
619.459	20.895	1519.647	1466.529
620.474	20.655	1518.363	1463.083
621.488	20.174	1516.357	1456.921
622.503	19.977	1515.180	1453.947
623.518	20.285	1515.092	1456.288
624.532	20.661	1514.663	1458.876
625.547	20.961	1513.577	1460.181
626.561	21.103	1513.843	1461.456
627.576	21.159	1512.369	1460.333
628.591	20.765	1509.848	1454.409
629.605	20.367	1508.408	1449.513
630.620	20.269	1506.724	1446.900
631.634	20.063	1505.489	1443.815
632.649	20.139	1505.082	1443.885
633.663	20.461	1503.750	1445.132
634.678	20.825	1503.196	1447.467
635.693	21.207	1501.404	1448.753
636.707	21.260	1500.818	1448.458
637.722	21.423	1500.137	1448.984
638.736	21.477	1498.280	1447.466
639.751	21.396	1497.992	1446.341
640.766	21.309	1496.777	1444.273
641.780	21.435	1494.737	1443.179
642.795	21.192	1494.396	1440.654
643.809	21.200	1493.571	1439.754
644.824	21.391	1492.048	1439.698
645.839	21.153	1491.734	1437.255
646.853	21.231	1489.957	1436.012
647.868	21.345	1488.237	1435.123
648.882	21.022	1487.723	1431.792
649.897	21.100	1486.092	1430.695
650.912	21.076	1485.080	1429.354
651.926	20.984	1484.106	1427.483
652.941	20.873	1481.891	1424.267
653.955	20.486	1479.494	1418.621
654.970	20.192	1478.417	1415.006
655.985	20.190	1476.926	1413.391
656.999	20.376	1476.107	1413.967
658.014	20.520	1475.509	1414.399
659.028	20.717	1474.895	1415.251
660.043	20.971	1473.416	1415.741
661.058	20.990	1472.726	1415.059
662.072	21.166	1471.964	1415.594
663.087	21.078	1471.567	1414.329
664.101	20.962	1470.222	1411.918
665.116	21.229	1469.093	1412.840
666.131	21.446	1467.669	1413.061
667.145	21.188	1466.687	1409.855
668.160	21.369	1466.287	1410.770
669.174	21.546	1465.252	1411.039
670.189	21.523	1463.754	1409.243
671.204	21.296	1462.767	1406.284
672.218	21.338	1461.391	1405.137
673.233	21.640	1460.236	1406.291
674.247	21.610	1459.976	1405.629
675.262	21.674	1459.045	1405.085
676.276	21.667	1457.729	1403.590
677.291	21.575	1456.435	1401.435
678.306	21.306	1455.119	1397.843
679.320	21.247	1454.593	1396.690
680.335	21.402	1454.128	1397.323
681.349	21.514	1453.229	1397.192
682.364	21.529	1452.087	1396.046
683.379	21.535	1449.723	1393.659
684.393	21.369	1448.824	1391.295
685.408	21.686	1447.820	1392.703
686.422	21.378	1447.657	1389.918
687.437	21.421	1447.201	1389.654
688.452	21.571	1445.768	1389.312
689.466	21.475	1444.345	1387.007
690.481	21.341	1442.721	1384.220
691.495	21.075	1440.690	1379.991
692.510	20.594	1438.601	1374.008
693.525	20.382	1436.966	1370.594
694.539	20.574	1436.673	1371.680
695.554	21.164	1437.471	1376.953
696.568	21.446	1437.639	1379.187
697.583	21.640	1436.330	1379.303
698.598	21.713	1435.050	1378.478
699.612	21.763	1434.100	1377.797
700.627	21.743	1432.650	1376.082
701.641	21.789	1431.251	1374.941
702.656	21.728	1430.884	1373.941
703.671	21.957	1430.583	1375.294
704.685	21.805	1429.701	1373.081
705.700	21.804	1428.014	1371.290
706.714	21.677	1425.967	1368.161
707.729	21.541	1424.091	1365.130
708.744	21.381	1423.147	1362.807
709.758	21.247	1422.479	1360.962
710.773	21.022	1420.317	1356.968
711.787	20.852	1418.798	1354.029
712.802	21.005	1418.448	1354.723
713.816	21.222	1417.469	1355.319
714.831	21.447	1417.400	1356.850
715.846	21.702	1415.797	1357.139
716.860	21.680	1414.270	1355.335
717.875	21.795	1413.721	1355.540
718.889	21.659	1411.878	1352.557
719.904	21.743	1411.394	1352.584
720.919	21.770	1411.063	1352.315
721.933	21.859	1410.056	1351.879
722.948	21.860	1409.421	1351.118
723.962	21.965	1407.848	1350.261
724.977	22.048	1406.825	1349.756
725.992	22.051	1406.328	1349.139
727.006	21.958	1404.726	1346.728
728.021	22.051	1403.473	1346.079
729.035	22.033	1402.560	1344.900
730.050	21.938	1401.283	1342.790
731.065	21.797	1400.739	1341.020
732.079	22.014	1400.120	1341.939
733.094	21.885	1398.279	1339.024
734.108	21.837	1396.557	1336.845
735.123	21.933	1394.845	1335.781
736.138	21.832	1394.277	1334.301
737.152	21.952	1393.167	1333.997
738.167	22.093	1392.209	1333.997
739.181	22.070	1392.199	1333.652
740.196	22.157	1391.134	1333.134
741.211	22.016	1390.682	1331.471
742.225	22.018	1389.557	1330.250
743.240	22.058	1387.607	1328.527
744.254	22.151	1386.247	1327.775
745.269	22.032	1385.152	1325.658
746.284	21.932	1384.321	1323.950
747.298	21.882	1382.742	1321.903
748.313	21.303	1381.331	1316.013
749.327	21.004	1379.716	1312.051
750.342	20.586	1378.457	1307.538
751.356	20.398	1376.927	1304.515
752.371	20.778	1375.691	1306.056
753.386	21.556	1376.097	1312.150
754.400	22.015	1376.447	1315.784
755.415	22.055	1375.851	1315.355
756.429	21.961	1375.031	1313.709
757.444	21.997	1373.498	1312.358
758.459	22.139	1372.951	1312.739
759.473	22.293	1371.755	1312.598
760.488	22.235	1370.832	1311.122
761.502	22.187	1369.551	1309.380
762.517	21.972	1368.251	1306.369
763.532	21.823	1366.564	1303.495
764.546	21.612	1364.963	1300.232
765.561	21.362	1363.294	1296.627
766.575	20.851	1362.439	1291.848
767.590	20.762	1360.956	1289.624
768.605	21.228	1359.746	1291.787
769.619	21.658	1359.385	1294.488
770.634	21.825	1358.549	1294.777
771.648	22.229	1357.395	1296.518
772.663	22.404	1356.985	1297.268
773.678	22.382	1356.575	1296.552
774.692	22.320	1356.239	1295.618
775.707	22.089	1356.533	1294.033
776.721	22.268	1354.933	1293.676
777.736	22.253	1353.872	1292.400
778.751	22.474	1352.339	1292.412
779.765	22.158	1351.246	1288.885
780.780	22.326	1350.368	1289.128
781.794	22.237	1350.206	1288.163
782.809	22.091	1348.662	1285.463
783.824	22.014	1347.430	1283.567
784.838	21.571	1344.854	1277.716
785.853	20.896	1343.332	1271.167
786.867	20.973	1343.344	1271.590
787.882	21.218	1343.785	1273.652
788.897	21.645	1342.718	1275.615
789.911	21.751	1341.831	1275.393
790.926	22.027	1340.325	1275.828
791.940	22.176	1338.980	1275.481
792.955	22.182	1337.811	1274.259
793.969	22.238	1337.402	1274.127
794.984	22.250	1336.531	1273.228
795.999	22.397	1335.550	1273.213
797.013	22.471	1333.594	1271.728
798.028	22.299	1332.644	1269.423
799.042	22.383	1331.976	1269.242
800.057	22.445	1330.904	1268.518
801.072	22.362	1329.425	1266.358
802.086	22.449	1328.086	1265.561
803.101	22.545	1327.741	1265.774
804.115	22.652	1326.125	1264.853
805.130	22.447	1325.503	1262.633
806.145	22.303	1324.379	1260.374
807.159	22.503	1322.986	1260.331
808.174	22.222	1321.561	1256.805
809.188	22.113	1320.142	1254.523
810.203	21.903	1318.364	1251.182
811.218	21.666	1316.498	1247.560
812.232	21.313	1315.049	1243.513
813.247	21.178	1314.473	1241.853
814.261	21.578	1314.573	1244.659
815.276	22.038	1314.320	1247.557
816.291	22.275	1313.255	1248.086
817.305	22.440	1312.249	1248.162
818.320	22.626	1310.675	1247.833
819.334	22.425	1309.841	1245.468
820.349	22.416	1309.281	1244.718
821.364	22.541	1307.278	1243.555
822.378	22.477	1306.345	1242.064
823.393	22.602	1304.423	1240.971
824.407	22.588	1303.479	1239.822
825.422	22.349	1303.785	1238.278
826.437	22.401	1302.050	1236.851
827.451	22.204	1299.579	1232.962
828.466	21.500	1297.564	1225.950
829.480	21.331	1295.236	1222.412
830.495	21.541	1294.056	1222.630
831.509	21.906	1294.272	1225.247
832.524	22.101	1294.584	1226.765
833.539	22.407	1293.163	1227.420
834.553	22.587	1291.993	1227.420
835.568	22.462	1291.790	1226.205
836.582	22.443	1290.378	1224.586
837.597	22.621	1289.138	1224.507
838.612	22.573	1286.892	1221.890
839.626	22.378	1285.454	1219.025
840.641	22.201	1284.533	1216.774
841.655	21.746	1283.496	1212.483
842.670	21.395	1281.229	1207.760
843.685	20.999	1280.433	1204.113
844.699	21.520	1279.922	1207.104
845.714	22.087	1279.004	1210.021
846.728	22.231	1278.447	1210.344
847.743	22.312	1277.793	1210.141
848.758	22.465	1276.883	1210.192
849.772	22.488	1275.727	1209.108
850.787	22.529	1274.590	1208.171
851.801	22.576	1273.392	1207.215
852.816	22.534	1271.929	1205.392
853.831	22.383	1270.270	1202.638
854.845	22.311	1267.865	1199.727
855.860	22.273	1266.778	1198.294
856.874	21.991	1265.795	1195.292
857.889	21.834	1264.090	1192.462
858.904	21.366	1262.112	1187.261
859.918	21.205	1259.954	1183.994
860.933	20.910	1259.254	1181.180
861.947	21.345	1258.832	1183.609
862.962	21.766	1257.986	1185.533
863.977	21.774	1257.519	1185.006
864.991	22.041	1257.195	1186.371
866.006	22.353	1256.522	1187.714
867.020	22.531	1255.111	1187.444
868.035	22.665	1254.153	1187.299
869.049	22.557	1253.655	1185.959
870.064	22.763	1252.730	1186.329
871.079	22.697	1251.990	1185.043
872.093	22.564	1251.805	1183.825
873.108	22.546	1249.827	1181.694
874.122	22.271	1248.026	1178.000
875.137	21.861	1246.928	1174.066
876.152	21.805	1246.007	1172.679
877.166	21.924	1244.835	1172.236
878.181	22.165	1243.824	1172.762
879.195	22.400	1243.546	1173.933
880.210	22.778	1242.729	1175.550
881.225	22.565	1242.086	1173.377
882.239	22.573	1241.399	1172.645
883.254	22.581	1240.534	1171.735
884.268	22.621	1239.519	1170.903
885.283	22.594	1238.620	1169.736
886.298	22.581	1236.733	1167.729
887.312	22.792	1235.162	1167.506
888.327	22.673	1234.740	1166.177
889.341	22.777	1232.818	1164.911
890.356	22.617	1232.613	1163.518
891.371	22.452	1232.038	1161.744
892.385	22.292	1231.555	1160.086
893.400	22.212	1230.514	1158.437
894.414	22.181	1228.395	1156.099
895.429	21.934	1226.268	1152.329
896.444	21.264	1223.795	1145.454
897.458	20.738	1222.913	1141.023
898.473	21.363	1223.008	1145.098
899.487	22.044	1222.344	1148.815
900.502	22.324	1221.757	1149.965
901.517	22.570	1220.217	1149.992
902.531	22.620	1219.972	1149.953
903.546	22.528	1219.634	1148.893
904.560	22.552	1219.941	1149.204
905.575	22.549	1218.685	1147.859
906.589	22.593	1217.240	1146.652
907.604	22.504	1216.088	1144.849
