DTS Sentinel unit serial number:	SN409020Multiplexer serial number:	ORYXHardware model number:	OX4-SRSoftware version number:	ORYX F/W v3.00 Oryx Data Collector v3.7.2.0data status	okinstallation	HaddamTimeLapsedifferential loss correction	single-endedforward channel	channel 3reverse channel	N/Adate	2011/06/21time	22:51:17forward acquisition time	30.00reverse acquisition time	0.00gamma	498.7831k internal	0.1754k external	0.1754temperature offset calibration	1.0074default loss term (dB/km)	0.3790temperature slope calibration	1.3530multiplexer offset coefficient	1.0000multiplexer slope coefficient	1.0000fibre end	0.00T internal ref (°C)	23.66T ext. ref 1 (°C)	18.48T ext. ref 2 (°C)	0.05length (m)	temperature (°C)	Stokes	anti-Stokes-747.200	-116.003	-0.682	-0.167
-746.185	-9.344	-0.354	0.313
-745.171	523.393	-0.068	0.212
-744.156	665.167	0.078	0.269
-743.142	-4.664	0.143	-0.130
-742.127	-13.931	0.281	0.240
-741.112	-143.871	0.337	-0.042
-740.098	-97.426	-0.092	0.032
-739.083	-8.716	-0.444	-0.395
-738.069	264.388	0.158	0.365
-737.054	191.704	0.021	0.042
-736.039	169.783	-0.119	0.227
-735.025	8.249	0.203	0.202
-734.010	109.524	-0.250	0.397
-732.996	-147.501	0.473	-0.052
-731.981	-161.200	0.640	0.044
-730.966	-113.495	0.389	0.100
-729.952	-89.556	0.511	-0.198
-728.937	17.839	0.093	0.098
-727.923	317.307	-0.072	-0.180
-726.908	-98.055	0.183	0.062
-725.894	148.395	-0.186	-0.334
-724.879	800.000	0.130	0.557
-723.864	54.376	0.060	-0.077
-722.850	0.758	-0.340	-0.322
-721.835	-65.397	-0.272	-0.144
-720.821	-136.906	-0.143	0.022
-719.806	-57.309	-0.243	0.141
-718.791	-163.946	-0.356	-0.022
-717.777	-45.147	0.229	-0.151
-716.762	-196.246	0.622	0.006
-715.748	-197.840	0.473	0.004
-714.733	-200.000	-0.013	-0.383
-713.718	-100.708	-0.167	0.054
-712.704	171.969	0.120	0.228
-711.689	-200.000	0.045	0.588
-710.675	-178.018	-0.284	-0.009
-709.660	800.000	0.031	0.166
-708.645	200.962	0.172	0.352
-707.631	10.535	-0.187	-0.189
-706.616	66.484	-0.058	0.078
-705.602	-200.000	0.014	-0.368
-704.587	-61.674	-0.253	-0.140
-703.572	800.000	-0.083	0.349
-702.558	-93.737	0.339	-0.123
-701.543	613.601	0.042	-0.142
-700.529	13.307	-0.384	0.394
-699.514	14.689	0.207	-0.214
-698.499	800.000	-0.085	-0.377
-697.485	-9.353	0.168	0.148
-696.470	78.118	0.284	-0.401
-695.456	-200.000	-0.465	0.001
-694.441	28.768	0.339	-0.380
-693.426	-200.000	0.007	-0.373
-692.412	-200.000	-0.034	0.516
-691.397	-200.000	-0.015	0.492
-690.383	-124.265	-0.084	0.017
-689.368	-107.564	-0.067	0.019
-688.354	800.000	-0.006	0.031
-687.339	95.320	0.098	0.147
-686.324	-88.692	-0.228	-0.089
-685.310	-200.000	0.046	-0.329
-684.295	137.013	0.295	0.512
-683.281	-14.392	-0.251	-0.213
-682.266	-56.401	0.120	-0.070
-681.251	7.940	0.024	-0.023
-680.237	-200.000	-0.022	0.782
-679.222	644.701	-0.061	0.206
-678.208	-89.423	0.650	-0.252
-677.193	-86.116	0.295	0.120
-676.178	-200.000	-0.006	0.094
-675.164	314.361	0.046	0.114
-674.149	800.000	0.021	0.112
-673.135	800.000	0.045	-0.167
-672.120	51.982	0.039	0.050
-671.105	495.024	0.141	0.429
-670.091	-200.000	-0.016	0.198
-669.076	-88.404	0.086	0.034
-668.062	47.868	-0.123	0.152
-667.047	-200.000	0.037	-0.266
-666.032	-200.000	0.014	-0.360
-665.018	-125.859	0.451	-0.089
-664.003	376.122	0.192	-0.520
-662.989	-124.318	-0.231	0.047
-661.974	800.000	0.027	0.145
-660.959	-17.284	-0.221	0.183
-659.945	204.349	-0.273	0.562
-658.930	-200.000	0.039	0.382
-657.916	368.028	-0.149	-0.400
-656.901	-5.156	0.106	-0.096
-655.886	-35.060	-0.236	0.169
-654.872	357.970	-0.105	-0.279
-653.857	15.151	0.473	-0.490
-652.843	-71.824	-0.497	0.244
-651.828	-142.199	0.407	0.053
-650.814	-85.348	0.080	-0.033
-649.799	94.727	0.266	-0.400
-648.784	-47.248	-0.317	-0.203
-647.770	255.954	0.108	0.245
-646.755	-11.965	-0.160	0.139
-645.741	43.466	-0.291	0.352
-644.726	-33.123	-0.483	-0.353
-643.711	-53.110	-0.103	0.062
-642.697	-200.000	0.010	-0.284
-641.682	-76.920	0.296	-0.136
-640.668	-178.510	0.157	-0.005
-639.653	800.000	0.059	-0.299
-638.638	-200.000	0.030	-0.355
-637.624	198.029	-0.094	0.191
-636.609	-57.228	0.097	-0.056
-635.595	800.000	-0.097	-0.379
-634.580	-98.785	0.379	0.127
-633.565	-1.282	0.484	-0.451
-632.551	-2.570	-0.232	0.214
-631.536	87.226	-0.134	-0.196
-630.522	-136.500	0.284	-0.043
-629.507	146.136	-0.129	0.229
-628.492	-97.713	-0.403	0.137
-627.478	100.666	0.079	-0.122
-626.463	-41.183	0.136	0.093
-625.449	-200.000	0.037	-0.324
-624.434	327.305	-0.231	-0.587
-623.419	-125.520	0.119	0.024
-622.405	-116.069	-0.139	-0.034
-621.390	602.148	0.063	-0.208
-620.376	-159.969	0.097	-0.007
-619.361	-110.538	-0.232	0.063
-618.346	-107.485	0.771	-0.221
-617.332	-48.077	-0.390	-0.248
-616.317	-163.721	-0.071	0.004
-615.303	154.144	0.235	0.426
-614.288	142.940	0.122	0.215
-613.273	-182.185	-0.254	-0.006
-612.259	13.545	-0.171	0.175
-611.244	-120.899	0.354	0.078
-610.230	67.714	0.264	0.357
-609.215	-135.469	0.304	-0.047
-608.201	-87.339	0.348	-0.138
-607.186	246.978	0.235	-0.526
-606.171	800.000	-0.053	0.243
-605.157	-200.000	-0.019	0.140
-604.142	-37.921	0.178	-0.124
-603.128	-200.000	-0.004	-0.054
-602.113	572.207	0.118	0.381
-601.098	139.399	-0.178	0.310
-600.084	-98.565	0.411	0.138
-599.069	174.679	-0.236	0.452
-598.055	-44.396	0.379	0.249
-597.040	58.444	-0.188	-0.244
-596.025	-69.411	-0.490	0.247
-595.011	12.556	-0.232	0.236
-593.996	65.368	0.129	-0.173
-592.982	74.645	-0.134	-0.186
-591.967	143.021	-0.119	-0.209
-590.952	-200.000	-0.079	0.658
-589.938	-109.667	0.466	0.129
-588.923	800.000	-0.047	-0.174
-587.909	800.000	-0.099	0.563
-586.894	-31.616	0.145	-0.107
-585.879	-12.459	0.368	-0.317
-584.865	332.229	-0.135	0.345
-583.850	-21.308	-0.183	0.147
-582.836	-6.140	-0.298	0.268
-581.821	-22.224	0.272	-0.217
-580.806	-111.895	-0.152	-0.040
-579.792	-18.333	0.028	0.023
-578.777	613.660	-0.111	0.368
-577.763	57.624	0.089	0.115
-576.748	560.133	-0.104	0.332
-575.733	-200.000	-0.028	0.403
-574.719	-53.761	-0.065	-0.039
-573.704	-127.534	-0.454	0.086
-572.690	-9.407	-0.681	0.598
-571.675	-124.096	-0.275	-0.056
-570.661	-77.030	-0.182	-0.083
-569.646	-34.010	0.189	0.136
-568.631	-55.839	0.295	0.173
-567.617	-73.469	-0.458	-0.219
-566.602	-100.896	0.059	0.019
-565.588	-57.873	-0.223	-0.128
-564.573	-75.158	-0.141	0.066
-563.558	-104.504	-0.485	-0.147
-562.544	591.962	-0.090	0.296
-561.529	-200.000	0.005	0.109
-560.515	-88.158	-0.292	-0.115
-559.500	31.535	-0.272	0.307
-558.485	-200.000	0.023	0.494
-557.471	182.724	-0.374	0.728
-556.456	-86.376	-0.326	0.131
-555.442	56.862	0.121	-0.155
-554.427	-200.000	-0.035	-0.458
-553.412	-200.000	-0.017	-0.182
-552.398	-55.331	-0.232	-0.136
-551.383	555.142	0.026	0.081
-550.369	-1.127	0.202	-0.187
-549.354	100.566	0.082	-0.125
-548.339	373.023	-0.022	0.059
-547.325	-83.518	-0.372	0.156
-546.310	-7.806	-0.344	-0.305
-545.296	-200.000	-0.036	0.283
-544.281	-45.756	-0.624	0.404
-543.266	-84.697	0.522	-0.215
-542.252	-166.566	0.297	-0.016
-541.237	-55.506	-0.502	0.295
-540.223	800.000	-0.156	0.572
-539.208	-116.801	0.313	0.075
-538.193	77.790	0.065	-0.091
-537.179	478.278	0.143	0.429
-536.164	-76.430	-0.195	-0.090
-535.150	-159.923	-0.368	-0.026
-534.135	-110.838	0.197	-0.053
-533.121	-116.368	-0.060	0.015
-532.106	784.593	0.054	-0.197
-531.091	379.741	-0.109	-0.294
-530.077	-76.084	0.077	0.036
-529.062	6.972	-0.212	0.208
-528.048	-200.000	0.016	-0.242
-527.033	423.669	0.137	-0.389
-526.018	-22.376	-0.260	-0.207
-525.004	126.227	-0.291	0.484
-523.989	1.491	-0.356	-0.336
-522.975	-137.816	-0.765	-0.111
-521.960	141.292	-0.077	-0.134
-520.945	-83.717	-0.500	-0.209
-519.931	-200.000	-0.040	-0.417
-518.916	-126.427	0.256	0.050
-517.902	310.948	-0.115	-0.283
-516.887	-167.445	-0.182	0.009
-515.872	78.174	0.155	-0.217
-514.858	524.152	0.084	0.262
-513.843	-200.000	0.000	-0.125
-512.829	57.104	0.234	-0.301
-511.814	25.854	0.456	0.499
-510.799	-69.798	0.266	0.133
-509.785	311.718	0.135	0.334
-508.770	-86.114	-0.291	0.117
-507.756	-200.000	-0.018	0.140
-506.741	10.707	-0.164	-0.164
-505.726	709.278	0.051	-0.178
-504.712	-180.555	-0.294	0.008
-503.697	-120.348	0.432	0.096
-502.683	-104.256	0.081	-0.024
-501.668	252.963	0.060	-0.135
-500.653	179.653	-0.289	0.558
-499.639	106.788	0.126	0.197
-498.624	581.831	0.034	0.109
-497.610	83.278	0.280	0.401
-496.595	-86.726	-0.541	-0.216
-495.581	-200.000	-0.011	-0.280
-494.566	-59.343	-0.326	-0.184
-493.551	229.377	0.238	-0.511
-492.537	33.273	0.331	-0.377
-491.522	3.619	0.108	-0.104
-490.508	-40.992	-0.264	0.179
-489.493	-178.549	-0.231	0.007
-488.478	125.757	0.079	-0.132
-487.464	99.216	0.140	0.213
-486.449	-72.330	-0.315	0.152
-485.435	23.095	-0.178	0.192
-484.420	40.132	-0.106	-0.125
-483.405	-163.976	0.064	-0.004
-482.391	800.000	-0.031	0.165
-481.376	-72.093	0.218	-0.106
-480.362	-23.796	0.160	0.126
-479.347	-121.852	0.295	0.063
-478.332	-200.000	-0.007	-0.243
-477.318	478.041	0.138	-0.413
-476.303	70.716	0.211	0.287
-475.289	-200.000	0.019	-0.190
-474.274	12.470	-0.390	-0.395
-473.259	-124.601	0.354	0.071
-472.245	163.843	-0.110	-0.204
-471.230	-30.568	0.361	-0.268
-470.216	-60.528	-0.411	-0.228
-469.201	-200.000	-0.008	-0.243
-468.186	85.910	-0.237	0.343
-467.172	-26.078	-0.156	-0.120
-466.157	155.202	0.107	-0.194
-465.143	-99.020	-0.407	-0.135
-464.128	-69.052	-0.402	0.202
-463.113	800.000	-0.100	-0.425
-462.099	-121.133	-0.296	-0.065
-461.084	155.696	0.263	0.476
-460.070	25.908	0.307	-0.336
-459.055	118.842	-0.158	-0.257
-458.040	800.000	0.038	-0.167
-457.026	-11.011	0.210	0.181
-456.011	-172.516	0.159	0.006
-454.997	-141.068	0.422	0.056
-453.982	-104.282	-0.339	0.103
-452.968	119.812	-0.349	0.568
-451.953	800.000	-0.037	-0.139
-450.938	-30.495	0.221	0.164
-449.924	-25.980	-0.067	-0.051
-448.909	-200.000	-0.042	0.344
-447.895	121.673	-0.247	-0.404
-446.880	38.596	-0.168	-0.197
-445.865	-171.966	-0.206	0.009
-444.851	192.363	-0.160	0.317
-443.836	701.497	0.148	0.515
-442.822	800.000	0.115	0.533
-441.807	60.665	0.341	0.443
-440.792	-162.183	0.073	0.005
-439.778	-98.272	0.389	-0.130
-438.763	-35.449	0.474	0.337
-437.749	-8.061	0.449	0.396
-436.734	-133.484	-0.421	0.068
-435.719	-76.205	0.255	0.117
-434.705	18.093	0.067	0.070
-433.690	30.418	0.264	0.296
-432.676	-200.000	0.044	-0.443
-431.661	-115.268	-0.113	0.028
-430.646	114.292	0.430	0.687
-429.632	-9.985	-0.176	-0.153
-428.617	265.300	0.098	0.226
-427.603	-200.000	-0.035	0.394
-426.588	-200.000	-0.012	-0.177
-425.573	800.000	-0.045	-0.209
-424.559	-46.077	-0.518	0.333
-423.544	-101.930	-0.167	-0.052
-422.530	-188.228	0.216	-0.004
-421.515	-169.189	-0.091	0.004
-420.500	800.000	-0.066	0.297
-419.486	-143.263	0.097	0.012
-418.471	-80.419	0.374	-0.163
-417.457	-110.265	0.293	-0.079
-416.442	-132.049	-0.119	0.020
-415.428	149.308	-0.184	-0.326
-414.413	284.219	0.156	0.370
-413.398	-200.000	0.025	0.403
-412.384	46.160	-0.146	0.178
-411.369	-49.278	0.271	-0.169
-410.355	-126.331	0.602	0.117
-409.340	-161.593	0.368	-0.024
-408.325	-40.853	0.334	0.226
-407.311	-79.407	0.309	-0.136
-406.296	-11.155	0.378	-0.325
-405.282	-71.861	0.415	-0.202
-404.267	129.378	-0.194	0.325
-403.252	-56.506	-0.352	0.203
-402.238	54.267	0.071	0.089
-401.223	-59.870	0.395	-0.220
-400.209	-200.000	-0.059	0.516
-399.194	162.618	0.142	0.261
-398.179	613.392	-0.157	0.517
-397.165	800.000	0.109	-0.564
-396.150	315.684	-0.049	-0.121
-395.136	2.686	0.253	0.240
-394.121	-200.000	0.219	0.001
-393.106	-16.261	-0.141	0.117
-392.092	-83.228	-0.265	-0.111
-391.077	45.693	0.083	-0.100
-390.063	-125.484	0.295	0.058
-389.048	-88.078	0.305	0.119
-388.033	16.703	-0.238	-0.246
-387.019	-144.780	-0.492	0.058
-386.004	-131.235	-0.279	-0.048
-384.990	-167.429	0.199	0.010
-383.975	271.341	0.104	-0.241
-382.960	-75.594	-0.485	0.225
-381.946	800.000	0.037	0.146
-380.931	67.827	-0.280	0.375
-379.917	197.553	0.204	0.407
-378.902	710.611	-0.017	-0.058
-377.888	-122.841	0.313	-0.065
-376.873	-200.000	0.030	-0.490
-375.858	-112.996	0.431	-0.111
-374.844	-13.135	0.136	0.116
-373.829	281.637	-0.197	-0.463
-372.815	-200.000	0.065	0.425
-371.800	86.841	0.169	-0.244
-370.785	172.084	0.047	-0.088
-369.771	20.349	0.479	0.505
-368.756	149.333	0.203	0.360
-367.742	-69.259	-0.350	-0.175
-366.727	-200.000	-0.014	0.602
-365.712	77.810	0.058	-0.080
-364.698	334.037	0.254	-0.644
-363.683	-72.067	-0.230	0.111
-362.669	-200.000	0.012	-0.154
-361.654	300.638	0.010	-0.024
-360.639	87.944	0.282	-0.409
-359.625	-200.000	0.033	-0.417
-358.610	-137.486	-0.113	-0.017
-357.596	-42.381	-0.128	0.085
-356.581	-160.786	0.096	-0.007
-355.566	175.347	0.085	0.161
-354.552	-24.885	-0.188	-0.146
-353.537	370.102	0.242	0.644
-352.523	115.668	0.195	-0.312
-351.508	800.000	-0.017	-0.077
-350.493	-200.000	0.020	-0.737
-349.479	115.404	-0.305	-0.487
-348.464	-200.000	0.039	-0.356
-347.450	-88.894	-0.303	-0.117
-346.435	-160.389	-0.148	0.010
-345.420	-200.000	0.024	-0.301
-344.406	800.000	-0.027	-0.137
-343.391	7.858	-0.130	0.127
-342.377	-99.040	0.251	-0.083
-341.362	-137.211	-0.450	0.066
-340.348	-84.371	0.408	-0.168
-339.333	-12.352	-0.142	-0.121
-338.318	800.000	0.067	0.275
-337.304	-200.000	-0.020	0.426
-336.289	70.141	-0.088	-0.119
-335.275	25.054	0.248	-0.269
-334.260	120.780	0.093	-0.151
-333.245	-15.967	0.207	-0.172
-332.231	40.003	-0.213	-0.250
-331.216	138.165	0.099	-0.170
-330.202	-78.217	0.248	-0.110
-329.187	-200.000	0.016	-0.205
-328.172	-148.356	-0.374	-0.040
-327.158	5.541	-0.066	-0.064
-326.143	-182.896	0.074	0.002
-325.129	-188.944	0.366	-0.006
-324.114	-117.269	-0.040	-0.009
-323.099	95.076	0.069	0.102
-322.085	-59.158	0.165	0.092
-321.070	172.595	-0.209	-0.394
-320.056	265.793	0.214	-0.490
-319.041	800.000	0.064	-0.275
-318.026	-132.530	-0.301	-0.050
-317.012	-24.310	-0.336	-0.261
-315.997	-53.596	0.063	0.037
-314.983	794.265	0.109	-0.395
-313.968	-200.000	-0.020	-0.141
-312.953	-6.160	-0.318	-0.283
-311.939	94.069	-0.118	-0.175
-310.924	63.123	-0.323	-0.423
-309.910	-104.600	-0.230	0.069
-308.895	224.267	-0.058	-0.122
-307.880	3.964	0.198	0.189
-306.866	119.612	-0.191	-0.310
-305.851	-200.000	0.011	0.701
-304.837	-200.000	-0.031	-0.218
-303.822	47.466	-0.107	0.130
-302.807	423.197	0.205	-0.576
-301.793	40.986	0.151	0.178
-300.778	451.429	-0.041	-0.119
-299.764	530.531	0.050	-0.154
-298.749	-200.000	0.025	-0.421
-297.735	-105.900	-0.198	0.058
-296.720	800.000	-0.039	0.169
-295.705	251.840	-0.093	0.208
-294.691	-123.074	0.196	-0.041
-293.676	40.907	-0.342	0.402
-292.662	-3.905	-0.085	-0.077
-291.647	800.000	-0.094	-0.366
-290.632	-138.618	0.042	0.006
-289.618	-122.786	-0.291	0.061
-288.603	-200.000	0.006	0.360
-287.589	-119.268	-0.360	-0.081
-286.574	22.913	0.202	0.216
-285.559	-87.909	-0.154	0.060
-284.545	-161.820	0.184	0.012
-283.530	366.864	0.127	-0.336
-282.516	-153.096	-0.508	0.046
-281.501	-200.000	0.377	0.000
-280.486	-188.324	0.106	-0.002
-279.472	-164.397	-0.307	0.018
-278.457	-78.323	-0.384	0.171
-277.443	-200.000	0.019	-0.157
-276.428	123.514	-0.244	-0.399
-275.413	177.249	-0.105	-0.200
-274.399	37.167	0.131	-0.151
-273.384	217.328	-0.076	0.158
-272.370	-131.754	-0.054	-0.009
-271.355	43.101	0.222	-0.264
-270.340	8.264	-0.262	-0.256
-269.326	-25.600	0.117	-0.090
-268.311	16.258	0.157	0.161
-267.297	-5.289	0.413	0.369
-266.282	800.000	-0.027	0.149
-265.267	-56.617	0.142	0.082
-264.253	427.534	0.076	-0.215
-263.238	-47.862	0.086	-0.054
-262.224	88.960	-0.165	0.239
-261.209	-89.301	0.356	0.136
-260.195	-153.120	-0.621	0.056
-259.180	115.846	0.111	-0.177
-258.165	45.763	0.141	-0.169
-257.151	60.477	0.176	-0.227
-256.136	112.278	0.114	0.180
-255.122	-190.572	-0.582	0.008
-254.107	-119.257	0.483	0.109
-253.092	800.000	0.019	-0.081
-252.078	-5.659	0.085	-0.075
-251.063	87.945	-0.221	-0.318
-250.049	-128.692	0.159	0.029
-249.034	-200.000	0.015	-0.303
-248.019	-200.000	0.004	-0.272
-247.005	-200.000	0.004	0.216
-245.990	47.493	0.215	-0.261
-244.976	-116.746	0.565	-0.134
-243.961	81.513	-0.242	-0.341
-242.946	58.543	0.204	0.261
-241.932	33.658	-0.196	-0.221
-240.917	218.127	-0.161	-0.335
-239.903	-200.000	0.038	0.240
-238.888	-200.000	0.011	-0.174
-237.873	-146.983	0.135	0.015
-236.859	198.902	0.181	0.360
-235.844	46.986	-0.124	0.150
-234.830	-176.427	0.337	-0.011
-233.815	216.035	-0.079	-0.164
-232.800	-34.145	-0.161	-0.115
-231.786	-200.000	0.026	0.164
-230.771	544.785	0.019	-0.059
-229.757	800.000	0.086	0.325
-228.742	-1.978	0.168	-0.153
-227.727	-91.167	0.261	0.097
-226.713	30.548	-0.023	-0.026
-225.698	274.742	-0.194	0.449
-224.684	-29.861	-0.130	0.096
-223.669	-31.522	-0.240	0.175
-222.655	-68.262	0.278	0.140
-221.640	112.626	-0.203	-0.320
-220.625	-111.118	0.045	-0.012
-219.611	-125.737	0.553	0.108
-218.596	107.810	-0.188	-0.292
-217.582	-122.906	0.296	0.061
-216.567	-106.931	0.459	0.131
-215.552	94.199	0.155	0.229
-214.538	0.444	-0.162	0.150
-213.523	64.733	0.366	0.480
-212.509	128.287	-0.311	0.515
-211.494	210.236	-0.224	0.458
-210.479	36.411	0.150	-0.172
-209.465	297.842	-0.151	-0.361
-208.450	-81.156	-0.320	-0.137
-207.436	-200.000	0.097	-0.588
-206.421	-200.000	-0.011	0.067
-205.406	-143.135	-0.480	0.059
-204.392	26.299	-0.252	-0.274
-203.377	791.614	-0.113	-0.407
-202.363	-92.907	0.476	0.172
-201.348	800.000	0.039	0.170
-200.333	800.000	-0.037	0.166
-199.319	-151.340	-0.261	0.025
-198.304	-85.005	0.398	0.161
-197.290	-38.987	0.110	0.075
-196.275	-200.000	-0.050	0.398
-195.260	591.992	-0.050	0.162
-194.246	800.000	-0.097	0.459
-193.231	-71.353	0.037	-0.018
-192.217	-119.255	0.556	-0.125
-191.202	-82.160	0.238	-0.100
-190.187	-200.000	0.061	0.456
-189.173	26.256	-0.156	0.169
-188.158	624.897	0.086	-0.284
-187.144	-13.650	0.584	0.490
-186.129	-200.000	0.031	-0.520
-185.114	-107.327	-0.519	-0.147
-184.100	174.949	-0.112	-0.211
-183.085	-200.000	-0.003	-0.237
-182.071	38.537	-0.137	-0.159
-181.056	211.165	-0.113	0.232
-180.042	12.389	-0.141	0.141
-179.027	-200.000	0.006	0.207
-178.012	86.641	-0.164	-0.235
-176.998	800.000	0.079	0.382
-175.983	-91.109	0.871	0.322
-174.969	-200.000	0.024	0.362
-173.954	-200.000	-0.017	-0.174
-172.939	800.000	-0.035	0.159
-171.925	41.563	-0.144	0.169
-170.910	800.000	-0.059	-0.277
-169.896	2.074	-0.114	0.107
-168.881	-11.045	0.261	-0.223
-167.866	387.580	-0.196	-0.528
-166.852	-152.097	-0.185	0.017
-165.837	44.670	-0.195	0.233
-164.823	9.268	0.123	-0.120
-163.808	65.215	-0.255	0.335
-162.793	-200.000	0.000	-0.609
-161.779	-200.000	-0.018	-0.286
-160.764	-88.025	0.219	0.085
-159.750	192.126	-0.073	-0.143
-158.735	800.000	-0.098	-0.466
-157.720	0.858	0.281	0.260
-156.706	-12.238	0.033	0.028
-155.691	-60.253	0.279	-0.153
-154.677	-42.733	0.269	-0.177
-153.662	800.000	0.051	0.214
-152.647	-50.228	-0.350	0.214
-151.633	-113.265	0.167	-0.042
-150.618	92.889	0.194	0.285
-149.604	83.145	0.058	-0.082
-148.589	353.809	0.158	0.408
-147.574	-150.775	-0.202	0.020
-146.560	-99.400	0.119	0.039
-145.545	800.000	0.055	-0.280
-144.531	-118.570	0.199	-0.045
-143.516	-8.732	0.717	-0.622
-142.502	207.340	0.210	-0.425
-141.487	-200.000	-0.027	-0.412
-140.472	-161.671	0.408	0.027
-139.458	178.416	-0.301	0.571
-138.443	-156.750	-0.192	0.015
-137.429	58.582	0.107	0.137
-136.414	800.000	0.094	0.478
-135.399	-149.332	0.385	0.039
-134.385	-200.000	0.003	-0.253
-133.370	-165.227	-0.206	0.012
-132.356	-104.425	0.615	-0.183
-131.341	77.210	-0.182	0.250
-130.326	75.837	0.308	0.422
-129.312	-200.000	-0.039	-0.542
-128.297	86.317	-0.344	-0.492
-127.283	314.458	0.030	0.073
-126.268	-135.166	0.720	0.111
-125.253	-54.393	0.118	0.069
-124.239	-200.000	0.032	0.231
-123.224	117.179	0.213	0.340
-122.210	64.975	0.140	0.183
-121.195	280.482	0.079	0.184
-120.180	-35.661	-0.124	0.087
-119.166	-88.537	-0.220	0.084
-118.151	-92.474	0.202	-0.073
-117.137	94.955	0.135	-0.199
-116.122	502.082	0.220	0.660
-115.107	23.030	0.384	0.407
-114.093	-61.024	0.153	0.083
-113.078	-200.000	0.018	-0.157
-112.064	-130.692	0.405	0.070
-111.049	-119.383	0.116	-0.026
-110.034	-126.288	0.078	0.015
-109.020	-16.222	-0.095	0.078
-108.005	-131.866	-0.165	-0.028
-106.991	15.727	0.143	0.145
-105.976	-92.961	0.305	0.109
-104.962	800.000	0.088	-0.456
-103.947	-83.616	-0.091	-0.037
-102.932	-132.263	0.177	-0.029
-101.918	-68.070	0.199	0.100
-100.903	59.526	-0.133	-0.170
-99.889	-137.738	0.391	-0.056
-98.874	113.433	-0.175	0.275
-97.859	635.467	0.080	0.264
-96.845	-2.635	0.213	-0.192
-95.830	199.776	0.319	-0.635
-94.816	-200.000	0.018	-0.528
-93.801	155.777	0.215	0.383
-92.786	67.853	-0.360	0.477
-91.772	220.421	-0.187	-0.388
-90.757	-57.835	-0.321	-0.181
-89.743	-200.000	0.024	0.260
-88.728	-20.569	-0.240	0.191
-87.713	-70.859	0.127	-0.062
-86.699	77.508	0.268	0.370
-85.684	-42.926	0.306	0.200
-84.670	246.295	-0.232	-0.507
-83.655	-96.623	-0.445	-0.151
-82.640	112.852	0.264	-0.414
-81.626	-200.000	-0.017	-0.104
-80.611	91.002	-0.221	-0.320
-79.597	24.531	-0.213	-0.228
-78.582	-84.392	0.359	-0.146
-77.567	-200.000	0.012	-0.071
-76.553	-189.704	0.349	-0.005
-75.538	-124.571	0.348	-0.069
-74.524	185.996	-0.119	-0.230
-73.509	-35.739	0.264	0.184
-72.494	-200.000	-0.009	0.179
-71.480	520.674	-0.094	0.288
-70.465	-51.514	0.080	0.048
-69.451	63.572	0.115	0.150
-68.436	235.910	-0.110	-0.235
-67.422	40.372	0.231	0.269
-66.407	-74.672	-0.231	-0.107
-65.392	-77.260	0.331	0.148
-64.378	-200.000	0.067	-0.391
-63.363	-37.046	-0.220	0.152
-62.349	-200.000	-0.314	0.000
-61.334	31.950	-2.301	-2.560
-60.319	87.346	1.065	1.522
-59.305	183.432	-3.806	-7.281
-58.290	53.416	3.878	4.803
-57.276	488.176	3.554	10.528
-56.261	-200.000	22.078	313.326
-55.246	360.769	1294.628	3361.779
-54.232	53.062	2848.341	3521.030
-53.217	52.097	2664.459	3278.680
-52.203	33.022	2396.001	2679.572
-51.188	29.052	2059.700	2254.607
-50.173	25.538	1946.357	2089.484
-49.159	24.498	1935.403	2065.555
-48.144	24.103	1930.894	2056.075
-47.130	23.972	1928.313	2051.734
-46.115	23.864	1927.736	2049.791
-45.100	23.973	1925.707	2048.809
-44.086	23.878	1924.716	2046.577
-43.071	23.919	1923.348	2045.512
-42.057	23.950	1921.364	2043.675
-41.042	23.902	1919.801	2041.385
-40.027	23.920	1918.404	2040.026
-39.013	23.752	1916.701	2036.196
-37.998	23.929	1914.981	2036.322
-36.984	23.812	1914.416	2034.294
-35.969	23.814	1913.220	2032.966
-34.954	23.826	1911.750	2031.461
-33.940	23.783	1910.310	2029.360
-32.925	23.822	1908.625	2027.930
-31.911	23.738	1908.076	2026.312
-30.896	23.739	1906.770	2024.852
-29.881	23.949	1903.950	2024.179
-28.867	23.746	1903.723	2021.534
-27.852	23.630	1903.059	2019.419
-26.838	23.646	1901.361	2017.719
-25.823	23.843	1899.228	2017.632
-24.809	23.738	1898.546	2015.622
-23.794	23.671	1897.340	2013.506
-22.779	23.708	1895.755	2012.161
-21.765	23.566	1895.028	2009.696
-20.750	23.517	1894.208	2008.189
-19.736	23.623	1892.573	2007.576
-18.721	23.583	1891.300	2005.700
-17.706	23.606	1889.800	2004.286
-16.692	23.569	1888.994	2002.928
-15.677	23.453	1888.485	2001.001
-14.663	23.516	1886.301	1999.314
-13.648	23.695	1883.984	1998.810
-12.633	23.599	1883.408	1997.033
-11.619	23.569	1881.805	1994.917
-10.604	23.412	1880.860	1992.056
-9.590	23.411	1880.623	1991.721
-8.575	23.549	1879.016	1991.490
-7.560	23.588	1877.149	1989.876
-6.546	23.527	1876.301	1988.209
-5.531	23.594	1874.426	1986.895
-4.517	23.490	1873.949	1985.148
-3.502	23.475	1872.991	1983.876
-2.487	23.543	1872.372	1983.907
-1.473	23.634	1868.677	1980.933
-0.458	23.311	1850.788	1958.307
0.556	19.733	1995.678	2056.567
1.571	18.065	2200.135	2244.986
2.586	18.751	2239.693	2294.284
3.600	18.806	2243.025	2298.168
4.615	18.875	2241.711	2297.465
5.629	18.857	2238.936	2294.111
6.644	18.823	2236.596	2290.980
7.659	18.919	2234.984	2290.346
8.673	18.837	2233.454	2287.409
9.688	18.810	2240.839	2294.334
10.702	17.709	2322.016	2361.842
11.717	15.995	2386.124	2402.204
12.731	7.499	2366.837	2261.283
13.746	1.086	2349.043	2152.654
14.761	0.208	2345.488	2136.627
15.775	0.165	2343.443	2133.901
16.790	0.105	2342.308	2131.757
17.804	0.018	2340.836	2128.926
18.819	0.136	2338.826	2128.518
19.834	-0.076	2339.507	2125.861
20.848	-0.017	2336.772	2123.956
21.863	0.096	2335.352	2124.016
22.877	0.109	2332.324	2121.199
23.892	0.143	2330.264	2119.554
24.907	0.101	2328.322	2116.943
25.921	0.119	2326.234	2115.033
26.936	0.065	2324.623	2112.557
27.950	-0.027	2323.178	2109.700
28.965	0.091	2320.118	2108.320
29.980	0.087	2317.471	2105.618
30.994	0.158	2315.552	2104.619
32.009	3.994	2327.957	2169.763
33.023	13.401	2354.674	2327.957
34.038	17.229	2361.543	2388.648
35.053	17.346	2358.731	2387.167
36.067	17.302	2356.176	2383.685
37.082	17.246	2354.080	2380.486
38.096	17.328	2351.389	2378.629
39.111	17.462	2350.111	2378.939
40.126	17.565	2347.881	2377.844
41.140	17.735	2346.914	2378.961
42.155	17.700	2345.239	2376.484
43.169	17.766	2343.789	2375.662
44.184	17.529	2339.741	2367.960
45.199	17.569	2337.927	2366.395
46.213	17.579	2337.811	2366.139
47.228	17.709	2336.778	2366.628
48.242	17.744	2334.826	2364.850
49.257	17.844	2333.149	2364.256
50.271	17.989	2330.056	2362.862
51.286	17.766	2326.775	2356.159
52.301	17.566	2325.227	2351.537
53.315	18.434	2327.305	2365.404
54.330	21.337	2336.585	2414.931
55.344	23.198	2338.461	2442.412
56.359	23.443	2335.526	2442.449
57.374	23.518	2335.210	2442.874
58.388	23.666	2331.718	2440.970
59.403	23.436	2326.448	2431.990
60.417	22.932	2323.632	2421.812
61.432	23.122	2322.083	2422.525
62.447	23.313	2321.066	2423.799
63.461	23.454	2319.505	2423.822
64.476	23.715	2317.639	2425.165
65.490	23.316	2314.733	2416.362
66.505	22.531	2310.535	2400.940
67.520	20.357	2303.356	2363.472
68.534	18.208	2294.760	2325.050
69.549	17.660	2289.284	2311.748
70.563	17.494	2287.426	2307.332
71.578	17.535	2285.520	2305.697
72.593	17.629	2283.882	2305.051
73.607	17.596	2283.394	2303.836
74.622	17.557	2281.630	2301.241
75.636	17.554	2278.156	2297.425
76.651	17.523	2276.043	2294.603
77.666	17.497	2274.666	2292.591
78.680	17.519	2271.334	2289.255
79.695	17.424	2269.552	2285.893
80.709	17.296	2268.125	2282.459
81.724	17.280	2266.338	2280.168
82.739	17.294	2263.435	2277.159
83.753	17.375	2260.971	2275.498
84.768	17.238	2260.029	2272.445
85.782	17.180	2259.276	2270.633
86.797	17.219	2256.477	2268.078
87.812	17.274	2254.363	2266.407
88.826	17.344	2252.785	2265.487
89.841	17.359	2250.623	2263.252
90.855	17.473	2247.689	2261.552
91.870	17.399	2247.403	2259.999
92.884	17.454	2244.785	2257.835
93.899	17.393	2243.918	2255.877
94.914	18.035	2246.833	2267.100
95.928	20.621	2255.204	2309.845
96.943	21.532	2252.771	2319.220
97.957	19.080	2242.151	2275.461
98.972	17.471	2236.928	2248.533
99.987	17.264	2234.245	2242.824
101.001	17.338	2231.018	2240.304
102.016	17.394	2228.105	2237.847
103.030	17.299	2225.390	2233.599
104.045	17.147	2224.087	2230.014
105.060	17.363	2219.824	2228.319
106.074	17.427	2218.716	2227.789
107.089	17.436	2217.518	2226.433
108.103	17.479	2216.696	2225.907
109.118	17.431	2216.060	2224.368
110.133	17.532	2213.901	2223.262
111.147	17.413	2211.717	2219.242
112.162	17.371	2210.325	2217.037
113.176	17.429	2208.171	2215.360
114.191	17.417	2207.075	2213.848
115.206	17.524	2204.983	2212.872
116.220	17.477	2203.544	2210.551
117.235	17.485	2201.678	2208.521
118.249	17.542	2199.500	2206.816
119.264	17.597	2197.402	2205.167
120.279	17.534	2196.018	2202.684
121.293	17.589	2193.909	2201.030
122.308	17.558	2192.313	2198.754
123.322	17.451	2191.498	2196.284
124.337	17.902	2192.990	2203.374
125.352	20.670	2200.948	2247.091
126.366	21.222	2198.574	2251.558
127.381	18.471	2187.958	2204.887
128.395	17.502	2182.336	2186.454
129.410	17.379	2180.592	2182.862
130.424	17.251	2178.220	2178.570
131.439	17.413	2176.751	2178.937
132.454	17.473	2176.105	2178.794
133.468	17.606	2173.250	2177.387
134.483	17.769	2172.022	2177.985
135.497	17.658	2171.866	2176.144
136.512	17.625	2168.585	2172.173
137.527	17.521	2166.166	2168.159
138.541	17.339	2164.510	2163.916
139.556	17.469	2163.768	2164.579
140.570	17.277	2162.916	2161.007
141.585	17.360	2160.226	2159.119
142.600	17.313	2159.445	2157.489
143.614	17.234	2157.472	2154.251
144.629	17.307	2155.270	2152.717
145.643	17.259	2154.605	2151.193
146.658	17.449	2151.491	2150.237
147.673	17.227	2150.176	2145.853
148.687	17.256	2148.650	2144.442
149.702	17.309	2147.750	2143.950
150.716	17.415	2146.246	2143.531
151.731	17.416	2146.016	2143.064
152.746	17.290	2145.731	2140.932
153.760	18.099	2147.677	2152.856
154.775	20.823	2155.015	2194.509
155.789	21.817	2152.569	2204.312
156.804	19.214	2141.313	2159.767
157.819	17.442	2135.751	2131.609
158.833	17.276	2132.481	2126.008
159.848	17.398	2130.191	2124.994
160.862	17.478	2128.779	2124.336
161.877	17.603	2127.967	2124.841
162.892	17.729	2127.034	2125.234
163.906	17.624	2125.410	2122.042
164.921	17.548	2124.264	2119.688
165.935	17.495	2122.190	2116.704
166.950	17.504	2121.447	2115.822
167.964	17.543	2118.641	2113.261
168.979	17.372	2116.361	2108.600
169.994	17.310	2115.038	2106.259
171.008	17.273	2113.378	2103.896
172.023	17.195	2111.677	2100.980
173.037	17.381	2109.967	2101.338
174.052	17.573	2108.223	2101.723
175.067	17.434	2106.959	2098.493
176.081	17.474	2105.248	2097.031
177.096	17.467	2104.656	2096.103
178.110	17.506	2102.320	2094.016
179.125	17.561	2101.773	2093.901
180.140	17.407	2100.621	2090.594
181.154	17.445	2098.638	2088.844
182.169	17.549	2097.980	2089.220
183.183	18.348	2101.195	2102.037
184.198	21.384	2107.918	2146.023
185.213	21.959	2104.861	2149.741
186.227	18.907	2095.249	2102.200
187.242	17.617	2091.048	2081.900
188.256	17.482	2089.214	2078.168
189.271	17.261	2086.831	2072.840
190.286	17.301	2084.666	2070.933
191.300	17.337	2083.352	2069.826
192.315	17.326	2081.433	2067.538
193.329	17.569	2079.698	2068.524
194.344	17.784	2079.611	2070.815
195.359	17.721	2079.087	2069.276
196.373	17.605	2076.145	2064.694
197.388	17.515	2073.272	2060.492
198.402	17.427	2070.954	2056.879
199.417	17.436	2068.594	2054.390
200.432	17.448	2068.157	2053.855
201.446	17.399	2067.044	2051.909
202.461	17.426	2065.094	2050.057
203.475	17.430	2062.637	2047.425
204.490	17.270	2060.869	2043.488
205.504	17.376	2058.999	2042.665
206.519	17.398	2056.945	2040.652
207.534	17.391	2055.811	2039.198
208.548	17.442	2054.488	2038.263
209.563	17.480	2053.900	2037.891
210.577	17.608	2052.251	2037.543
211.592	17.589	2051.078	2035.913
212.607	18.928	2055.465	2056.125
213.621	22.016	2064.214	2101.844
214.636	21.648	2057.689	2090.538
215.650	18.521	2047.528	2042.572
216.665	17.595	2044.651	2028.386
217.680	17.527	2042.353	2025.050
218.694	17.408	2040.733	2021.776
219.709	17.370	2038.933	2019.302
220.723	17.490	2038.135	2019.706
221.738	17.658	2036.630	2019.973
222.753	17.678	2034.818	2018.170
223.767	17.682	2032.909	2016.081
224.782	17.634	2030.803	2013.179
225.796	17.510	2030.275	2010.948
226.811	17.572	2028.516	2009.695
227.826	17.480	2026.787	2006.658
228.840	17.436	2024.942	2004.069
229.855	17.441	2023.649	2002.609
230.869	17.478	2021.833	2001.000
231.884	17.495	2020.227	1999.373
232.899	17.306	2019.303	1995.997
233.913	17.455	2017.606	1995.831
234.928	17.409	2016.300	1993.762
235.942	17.505	2014.917	1993.288
236.957	17.418	2013.741	1990.858
237.972	17.514	2011.905	1989.935
238.986	17.337	2011.263	1986.986
240.001	17.255	2009.954	1984.486
241.015	17.318	2008.794	1983.846
242.030	18.311	2010.285	1996.726
243.045	21.049	2016.462	2034.774
244.059	21.412	2013.187	2035.471
245.074	18.737	2003.683	1994.433
246.088	17.770	1999.749	1979.003
247.103	17.799	1998.098	1977.463
248.117	17.706	1997.486	1975.548
249.132	17.510	1994.502	1970.083
250.147	17.524	1992.483	1968.009
251.161	17.581	1991.204	1967.177
252.176	17.921	1990.319	1970.009
253.190	17.934	1988.869	1968.491
254.205	17.937	1987.598	1967.023
255.220	17.812	1985.575	1963.343
256.234	17.736	1985.486	1962.137
257.249	17.677	1983.755	1959.516
258.263	17.615	1982.904	1957.728
259.278	17.704	1981.166	1956.797
260.293	17.643	1978.682	1953.411
261.307	17.513	1975.741	1948.776
262.322	17.390	1975.074	1946.468
263.336	17.224	1974.160	1943.429
264.351	17.307	1971.315	1941.347
265.366	17.329	1970.330	1940.398
266.380	17.341	1969.731	1939.708
267.395	17.561	1968.082	1940.372
268.409	17.467	1966.829	1937.831
269.424	17.406	1965.692	1935.783
270.439	17.562	1963.457	1935.128
271.453	18.366	1967.062	1947.652
272.468	21.289	1972.804	1986.556
273.482	21.522	1968.423	1984.561
274.497	18.836	1958.924	1944.246
275.512	17.627	1954.834	1926.224
276.526	17.455	1952.780	1922.008
277.541	17.424	1950.690	1919.378
278.555	17.326	1949.596	1916.956
279.570	17.222	1947.027	1913.024
280.585	17.403	1946.218	1914.043
281.599	17.403	1944.899	1912.526
282.614	17.528	1944.771	1913.582
283.628	17.667	1944.203	1914.360
284.643	17.735	1943.263	1913.978
285.657	17.849	1941.973	1913.760
286.672	17.903	1939.708	1911.901
287.687	17.842	1937.714	1909.020
288.701	17.730	1937.206	1907.041
289.716	17.746	1935.489	1905.301
290.730	17.838	1933.962	1904.603
291.745	17.937	1932.875	1904.415
292.760	17.916	1932.161	1903.241
293.774	17.654	1931.216	1899.150
294.789	17.741	1929.220	1897.929
295.803	17.687	1926.182	1894.117
296.818	17.478	1926.132	1891.500
297.833	17.671	1924.039	1891.373
298.847	17.467	1923.434	1888.275
299.862	17.417	1921.817	1885.906
300.876	18.320	1923.060	1896.962
301.891	21.352	1930.015	1937.436
302.906	21.798	1927.318	1939.455
303.920	18.749	1918.286	1896.340
304.935	17.849	1913.527	1881.437
305.949	17.565	1912.318	1876.877
306.964	17.664	1910.365	1875.838
307.979	17.627	1908.998	1873.858
308.993	17.978	1907.517	1876.057
310.008	17.940	1907.277	1875.180
311.022	17.946	1905.837	1873.606
312.037	17.829	1903.883	1870.166
313.052	18.122	1902.671	1871.983
314.066	18.335	1901.453	1872.898
315.081	18.054	1899.860	1868.021
316.095	17.895	1897.744	1863.971
317.110	17.575	1896.798	1859.304
318.125	17.606	1894.211	1856.882
319.139	17.618	1893.088	1855.693
320.154	17.751	1891.814	1855.676
321.168	17.632	1889.839	1852.222
322.183	17.670	1887.983	1850.597
323.197	17.436	1886.430	1846.302
324.212	17.378	1884.413	1843.473
325.227	17.443	1882.728	1842.306
326.241	17.271	1881.457	1838.974
327.256	17.348	1881.080	1839.227
328.270	17.344	1879.661	1837.572
329.285	17.349	1879.491	1837.244
330.300	18.424	1883.971	1853.089
331.314	21.699	1889.246	1893.700
332.329	21.548	1884.192	1886.772
333.343	18.602	1875.220	1845.744
334.358	17.239	1871.753	1827.393
335.373	17.311	1869.683	1825.924
336.387	17.165	1867.851	1822.347
337.402	17.220	1866.007	1820.922
338.416	17.352	1865.063	1821.203
339.431	17.198	1864.280	1818.565
340.446	17.359	1862.324	1818.167
341.460	17.475	1861.614	1818.501
342.475	17.798	1859.358	1819.548
343.489	17.753	1858.873	1818.373
344.504	17.699	1857.680	1816.411
345.519	17.887	1856.309	1816.865
346.533	17.991	1854.982	1816.453
347.548	18.370	1855.186	1820.493
348.562	19.037	1855.748	1827.945
349.577	19.027	1855.145	1827.027
350.592	18.399	1851.680	1816.705
351.606	18.241	1849.510	1812.680
352.621	18.251	1846.723	1809.833
353.635	17.838	1846.166	1804.686
354.650	17.689	1844.573	1801.330
355.665	17.774	1842.461	1799.946
356.679	17.674	1840.645	1796.898
357.694	17.857	1838.205	1796.239
358.708	17.541	1838.568	1793.038
359.723	18.776	1842.701	1809.947
360.738	22.079	1847.444	1849.404
361.752	21.475	1842.755	1838.112
362.767	18.568	1835.055	1799.591
363.781	17.675	1831.345	1786.338
364.796	17.559	1829.881	1783.467
365.810	17.452	1828.864	1781.138
366.825	17.522	1827.096	1779.942
367.840	17.704	1826.508	1781.064
368.854	17.750	1826.184	1781.025
369.869	18.013	1824.897	1782.314
370.883	18.518	1824.114	1786.622
371.898	18.698	1823.798	1787.986
372.913	18.330	1821.191	1781.364
373.927	18.156	1820.462	1778.624
374.942	18.547	1819.893	1781.940
375.956	18.362	1817.506	1777.454
376.971	17.848	1814.478	1768.933
377.986	17.725	1812.295	1765.308
379.000	17.582	1811.190	1762.531
380.015	17.651	1809.616	1761.513
381.029	17.459	1807.777	1757.515
382.044	17.308	1805.640	1753.658
383.059	17.381	1804.076	1752.690
384.073	17.255	1803.305	1750.430
385.088	17.429	1802.279	1751.018
386.102	17.362	1800.705	1748.594
387.117	17.313	1799.179	1746.393
388.132	17.442	1799.345	1747.681
389.146	18.471	1803.308	1761.952
390.161	21.541	1807.477	1797.560
391.175	21.407	1800.132	1788.666
392.190	18.388	1791.715	1749.143
393.205	17.689	1788.140	1738.285
394.219	17.435	1787.396	1734.749
395.234	17.408	1785.850	1732.769
396.248	17.329	1783.911	1729.876
397.263	17.257	1782.088	1727.165
398.278	17.377	1780.212	1726.365
399.292	17.256	1780.070	1724.780
400.307	17.290	1778.773	1723.662
401.321	17.413	1777.434	1723.411
402.336	17.448	1776.801	1722.948
403.350	17.531	1774.660	1721.512
404.365	17.942	1774.463	1725.292
405.380	18.326	1773.910	1728.440
406.394	18.257	1773.737	1727.371
407.409	18.288	1772.461	1726.236
408.423	18.279	1769.707	1723.254
409.438	18.410	1768.695	1723.388
410.453	18.358	1768.267	1722.240
411.467	18.347	1766.360	1720.056
412.482	17.895	1764.637	1713.619
413.496	17.530	1763.622	1708.750
414.511	17.569	1760.663	1706.063
415.526	17.490	1758.977	1703.439
416.540	17.328	1757.639	1700.310
417.555	17.314	1757.205	1699.546
418.569	17.429	1757.118	1700.414
419.584	17.596	1757.208	1701.975
420.599	17.648	1755.672	1700.802
421.613	17.486	1754.782	1698.110
422.628	17.527	1752.564	1696.174
423.642	17.447	1750.178	1692.859
424.657	17.424	1749.108	1691.388
425.672	17.530	1747.949	1691.128
426.686	17.510	1746.697	1689.511
427.701	17.465	1745.729	1687.931
428.715	17.621	1744.248	1687.846
429.730	17.627	1743.469	1686.952
430.745	17.588	1742.059	1684.995
431.759	17.624	1740.809	1683.945
432.774	18.048	1740.890	1688.031
433.788	18.326	1741.413	1691.095
434.803	18.521	1741.383	1692.804
435.818	18.484	1740.450	1691.325
436.832	18.455	1739.591	1689.996
437.847	17.415	1732.908	1673.029
438.861	9.720	1712.479	1577.688
439.876	1.796	1697.356	1486.093
440.890	0.397	1693.297	1468.679
441.905	0.119	1692.664	1465.226
442.920	0.009	1691.501	1462.974
443.934	0.196	1689.919	1463.256
444.949	0.208	1688.526	1461.993
445.963	0.131	1687.176	1459.892
446.978	0.114	1686.744	1459.186
447.993	0.285	1684.867	1459.046
449.007	0.119	1683.089	1455.719
450.022	0.278	1680.832	1455.140
451.036	0.193	1680.310	1453.686
452.051	1.135	1684.245	1466.075
453.066	8.793	1701.527	1555.920
454.080	16.760	1713.508	1644.745
455.095	18.576	1716.336	1664.991
456.109	19.337	1716.560	1672.437
457.124	19.570	1716.176	1674.133
458.139	19.689	1715.920	1674.839
459.153	19.700	1715.570	1674.408
460.168	19.744	1713.886	1672.994
461.182	19.777	1710.999	1670.297
462.197	19.772	1708.979	1668.070
463.212	19.468	1708.278	1664.243
464.226	19.447	1707.658	1663.240
465.241	19.770	1706.179	1664.725
466.255	19.880	1706.102	1665.516
467.270	19.900	1704.203	1663.657
468.285	19.662	1702.531	1659.526
469.299	19.393	1701.761	1655.977
470.314	19.615	1699.479	1655.700
471.328	19.824	1697.868	1655.946
472.343	19.783	1696.378	1653.900
473.358	19.766	1696.640	1653.792
474.372	19.789	1694.557	1651.780
475.387	19.571	1693.251	1648.218
476.401	19.418	1691.289	1644.648
477.416	19.371	1690.434	1643.168
478.430	19.646	1689.161	1644.363
479.445	19.431	1687.566	1640.567
480.460	19.457	1686.750	1639.821
481.474	19.471	1686.257	1639.277
482.489	19.755	1685.482	1641.035
483.503	19.902	1684.029	1640.832
484.518	19.963	1682.683	1639.907
485.533	19.976	1680.429	1637.635
486.547	19.953	1678.795	1635.627
487.562	20.179	1678.389	1637.176
488.576	20.109	1677.271	1635.228
489.591	20.055	1675.623	1632.918
490.606	19.924	1674.048	1629.942
491.620	20.024	1672.618	1629.306
492.635	20.252	1671.642	1630.316
493.649	20.349	1670.800	1630.212
494.664	19.874	1668.930	1623.711
495.679	19.456	1666.796	1617.505
496.693	19.580	1665.318	1617.043
497.708	19.883	1665.254	1619.639
498.722	20.246	1664.650	1622.274
499.737	20.423	1662.483	1621.628
500.752	19.974	1661.057	1615.826
501.766	19.816	1659.586	1612.720
502.781	19.971	1658.392	1612.820
503.795	20.046	1657.444	1612.411
504.810	20.050	1656.282	1611.124
505.825	20.293	1655.605	1612.539
506.839	20.134	1654.542	1609.826
507.854	20.206	1652.938	1608.743
508.868	20.206	1652.239	1607.871
509.883	20.215	1650.947	1606.511
510.898	20.437	1648.934	1606.421
511.912	20.215	1647.255	1602.528
512.927	20.101	1645.772	1599.838
513.941	20.050	1644.069	1597.521
514.956	19.899	1642.520	1594.428
515.971	19.702	1641.652	1591.568
516.985	20.024	1640.682	1593.418
518.000	20.188	1640.166	1594.240
519.014	20.399	1639.641	1595.483
520.029	20.428	1638.765	1594.711
521.043	20.344	1636.708	1591.745
522.058	20.353	1634.953	1589.932
523.073	20.344	1635.316	1590.013
524.087	20.678	1634.645	1592.244
525.102	20.549	1633.094	1589.350
526.116	20.122	1630.560	1582.779
527.131	20.139	1630.009	1582.207
528.146	20.554	1629.547	1585.379
529.160	20.756	1628.315	1585.838
530.175	20.815	1627.056	1584.960
531.189	20.758	1626.038	1583.264
532.204	20.798	1624.693	1582.122
533.219	20.258	1623.401	1575.754
534.233	20.101	1622.217	1572.979
535.248	20.374	1621.832	1574.907
536.262	20.746	1621.358	1577.649
537.277	20.723	1620.003	1575.931
538.292	20.473	1617.348	1570.893
539.306	20.271	1615.773	1567.341
540.321	20.436	1613.521	1566.463
541.335	20.291	1612.076	1563.557
542.350	20.523	1611.060	1564.483
543.365	20.672	1610.299	1564.902
544.379	20.665	1609.477	1563.856
545.394	20.728	1607.826	1562.637
546.408	20.487	1605.931	1558.428
547.423	20.032	1604.899	1553.141
548.438	20.071	1603.589	1552.039
549.452	20.417	1603.044	1554.442
550.467	20.561	1601.645	1554.197
551.481	20.610	1600.579	1553.412
552.496	20.629	1600.865	1553.676
553.511	21.020	1599.798	1555.957
554.525	20.906	1598.172	1553.174
555.540	21.010	1598.384	1554.121
556.554	21.118	1596.692	1553.256
557.569	20.995	1594.635	1549.970
558.583	20.866	1593.233	1547.274
559.598	20.762	1591.696	1544.670
560.613	20.783	1591.256	1544.242
561.627	20.907	1590.248	1544.184
562.642	20.938	1588.975	1543.042
563.656	21.170	1588.282	1544.246
564.671	21.129	1586.648	1542.110
565.686	21.080	1584.959	1539.846
566.700	20.809	1584.232	1536.553
567.715	20.773	1581.476	1533.374
568.729	20.511	1579.986	1529.427
569.744	20.264	1578.078	1525.217
570.759	20.315	1577.440	1524.870
571.773	20.467	1577.053	1525.656
572.788	20.772	1575.876	1527.025
573.802	20.889	1574.107	1526.154
574.817	21.097	1573.096	1526.821
575.832	21.247	1572.749	1527.618
576.846	21.090	1571.656	1524.997
577.861	21.068	1570.014	1523.026
578.875	21.233	1569.646	1523.939
579.890	21.377	1568.628	1524.029
580.905	21.280	1567.891	1522.283
581.919	21.318	1568.382	1522.910
582.934	21.470	1567.005	1522.716
583.948	21.442	1565.384	1520.719
584.963	21.413	1563.108	1518.067
585.978	21.174	1561.495	1514.235
586.992	21.196	1561.529	1514.280
588.007	21.262	1560.925	1514.089
589.021	20.777	1558.466	1507.300
590.036	20.386	1555.685	1501.042
591.051	20.680	1555.042	1502.787
592.065	21.053	1554.609	1505.426
593.080	21.164	1552.874	1504.527
594.094	21.226	1551.441	1503.497
595.109	20.846	1549.082	1497.751
596.123	20.625	1547.775	1494.397
597.138	21.087	1547.828	1498.258
598.153	21.343	1546.369	1498.874
599.167	21.204	1545.312	1496.470
600.182	21.230	1545.076	1496.286
601.196	21.285	1544.171	1495.705
602.211	21.211	1543.276	1494.025
603.226	21.509	1541.781	1494.957
604.240	21.592	1540.226	1493.981
605.255	21.723	1539.332	1494.062
606.269	21.549	1538.870	1491.940
607.284	21.595	1537.335	1490.668
608.299	21.588	1535.962	1489.101
609.313	21.482	1534.725	1486.812
610.328	21.554	1533.273	1485.849
611.342	21.563	1532.025	1484.533
612.357	21.734	1531.726	1485.522
613.372	21.856	1530.257	1484.964
614.386	21.641	1529.097	1481.826
615.401	21.769	1528.883	1482.530
616.415	21.751	1527.850	1481.201
617.430	21.787	1526.927	1480.433
618.445	21.862	1525.733	1479.732
619.459	21.675	1524.590	1476.864
620.474	21.253	1522.829	1471.413
621.488	20.773	1520.593	1465.015
622.503	20.511	1519.021	1461.115
623.518	21.117	1519.469	1466.485
624.532	21.402	1519.400	1468.654
625.547	21.642	1518.534	1469.664
626.561	22.045	1517.923	1472.297
627.576	22.070	1515.771	1470.238
628.591	21.435	1514.767	1463.747
629.605	21.088	1512.218	1458.193
630.620	20.922	1510.339	1454.815
631.634	20.732	1509.097	1451.854
632.649	20.974	1508.009	1452.664
633.663	21.096	1508.230	1453.722
634.678	21.633	1507.736	1457.565
635.693	21.907	1506.057	1458.058
636.707	22.035	1505.233	1458.152
637.722	22.297	1504.074	1459.042
638.736	22.362	1503.064	1458.427
639.751	22.203	1502.146	1456.042
640.766	22.179	1500.749	1454.313
641.780	22.096	1499.617	1452.353
642.795	21.979	1498.729	1450.341
643.809	22.128	1497.831	1450.535
644.824	22.011	1497.246	1448.824
645.839	22.023	1495.612	1447.175
646.853	21.985	1494.542	1445.649
647.868	22.039	1492.456	1443.907
648.882	21.987	1492.100	1442.955
649.897	21.884	1490.255	1440.149
650.912	21.901	1488.984	1438.891
651.926	21.698	1487.696	1435.801
652.941	21.527	1485.860	1432.454
653.955	21.105	1483.559	1426.595
654.970	20.753	1481.421	1421.475
655.985	20.863	1479.839	1420.690
656.999	20.970	1479.022	1420.618
658.014	21.288	1478.045	1422.111
659.028	21.512	1478.474	1424.185
660.043	21.585	1478.420	1424.559
661.058	21.929	1476.660	1425.503
662.072	22.003	1476.457	1425.743
663.087	21.874	1475.152	1423.256
664.101	21.831	1474.532	1422.134
665.116	22.030	1473.420	1422.512
666.131	22.132	1472.183	1421.975
667.145	22.118	1470.998	1420.549
668.160	22.178	1470.034	1419.941
669.174	22.394	1468.747	1420.276
670.189	22.634	1466.959	1420.317
671.204	22.177	1466.417	1415.928
672.218	22.141	1465.923	1414.988
673.233	22.361	1465.616	1416.307
674.247	22.586	1463.803	1416.198
675.262	22.630	1463.367	1415.962
676.276	22.546	1462.040	1413.832
677.291	22.415	1460.989	1411.594
678.306	22.298	1459.118	1408.670
679.320	22.270	1457.989	1407.192
680.335	22.450	1457.954	1408.431
681.349	22.520	1457.348	1408.242
682.364	22.512	1455.544	1406.264
683.379	22.476	1453.889	1404.206
684.393	22.415	1452.917	1402.612
685.408	22.591	1451.982	1402.955
686.422	22.495	1450.595	1400.675
687.437	22.330	1451.037	1399.614
688.452	22.542	1450.306	1400.441
689.466	22.598	1447.876	1398.373
690.481	22.287	1446.296	1394.203
691.495	22.032	1445.009	1390.766
692.510	21.443	1441.840	1382.866
693.525	21.116	1440.308	1378.638
694.539	21.441	1440.346	1381.088
695.554	21.994	1441.763	1386.675
696.568	22.340	1441.411	1388.912
697.583	22.550	1440.760	1389.788
698.598	22.622	1439.785	1389.252
699.612	22.653	1438.578	1388.161
700.627	22.742	1437.135	1387.310
701.641	22.715	1435.219	1385.079
702.656	22.718	1434.210	1383.964
703.671	22.941	1434.184	1385.529
704.685	22.918	1433.487	1384.513
705.700	22.837	1431.519	1381.803
706.714	22.529	1430.256	1378.005
707.729	22.365	1429.065	1375.398
708.744	22.287	1427.026	1372.664
709.758	22.161	1425.038	1369.598
710.773	21.755	1424.076	1365.332
711.787	21.572	1422.615	1362.334
712.802	21.888	1421.233	1363.319
713.816	22.186	1420.721	1364.989
714.831	22.344	1420.740	1366.080
715.846	22.695	1419.634	1367.585
716.860	22.641	1419.474	1366.845
717.875	22.584	1418.159	1364.974
718.889	22.604	1417.042	1363.889
719.904	22.719	1415.933	1363.554
720.919	22.872	1414.475	1363.174
721.933	22.859	1414.140	1362.588
722.948	22.875	1413.966	1362.379
723.962	22.978	1412.022	1361.141
724.977	23.027	1411.683	1361.035
725.992	23.074	1410.736	1360.316
727.006	22.957	1408.660	1357.253
728.021	23.025	1407.093	1356.105
729.035	23.084	1406.094	1355.434
730.050	23.060	1404.773	1353.810
731.065	23.076	1404.075	1353.102
732.079	23.158	1402.981	1352.512
733.094	22.931	1401.757	1349.432
734.108	22.853	1400.503	1347.461
735.123	22.976	1398.759	1346.564
736.138	22.882	1398.077	1345.029
737.152	23.006	1397.141	1344.919
738.167	23.099	1396.778	1345.117
739.181	23.019	1396.391	1343.974
740.196	23.175	1395.250	1343.903
741.211	23.185	1394.554	1343.150
742.225	22.957	1393.892	1340.612
743.240	22.973	1392.015	1338.770
744.254	23.058	1390.744	1338.035
745.269	23.059	1389.111	1336.307
746.284	22.967	1388.146	1334.521
747.298	22.673	1386.933	1330.966
748.313	22.482	1385.004	1327.507
749.327	21.919	1383.626	1321.768
750.342	21.655	1381.353	1317.444
751.356	21.094	1380.700	1312.417
752.371	21.429	1380.324	1314.438
753.386	22.339	1381.032	1321.829
754.400	22.872	1380.823	1325.490
755.415	23.199	1379.893	1326.908
756.429	23.240	1378.395	1325.613
757.444	22.921	1377.821	1322.507
758.459	23.096	1376.769	1322.650
759.473	23.394	1375.482	1323.494
760.488	23.381	1374.456	1322.251
761.502	23.267	1372.928	1319.769
762.517	23.153	1371.484	1317.373
763.532	23.101	1369.713	1315.124
764.546	22.851	1368.284	1311.728
765.561	22.182	1366.716	1305.073
766.575	21.529	1365.076	1298.483
767.590	21.603	1364.250	1298.094
768.605	22.125	1363.544	1301.153
769.619	22.421	1363.401	1303.067
770.634	22.840	1362.785	1305.437
771.648	23.069	1362.412	1306.621
772.663	23.137	1362.564	1307.113
773.678	23.291	1361.687	1307.263
774.692	23.179	1360.667	1305.296
775.707	23.380	1359.385	1305.399
776.721	23.407	1358.807	1304.888
777.736	23.395	1357.655	1303.537
778.751	23.390	1356.817	1302.536
779.765	23.329	1355.764	1300.921
780.780	23.248	1355.278	1299.704
781.794	23.347	1354.528	1299.557
782.809	23.147	1352.995	1296.458
783.824	23.110	1351.095	1294.206
784.838	22.535	1348.588	1287.429
785.853	21.814	1346.893	1280.367
786.867	22.087	1346.986	1282.310
787.882	22.449	1346.604	1284.443
788.897	22.715	1346.221	1285.876
789.911	22.947	1345.487	1286.718
790.926	23.074	1344.641	1286.680
791.940	23.154	1343.427	1285.955
792.955	23.222	1342.525	1285.433
793.969	23.451	1340.601	1285.102
794.984	23.347	1340.182	1283.788
795.999	23.350	1339.587	1283.091
797.013	23.562	1337.507	1282.483
798.028	23.452	1336.144	1280.222
799.042	23.322	1336.316	1279.294
800.057	23.495	1335.398	1279.514
801.072	23.559	1333.600	1278.104
802.086	23.415	1332.502	1275.854
803.101	23.575	1331.456	1275.860
804.115	23.673	1330.605	1275.595
805.130	23.508	1330.026	1273.702
806.145	23.603	1328.527	1272.799
807.159	23.466	1327.002	1270.198
808.174	23.254	1325.384	1266.968
809.188	23.122	1324.314	1264.845
810.203	22.852	1322.349	1260.881
811.218	22.581	1320.448	1256.977
812.232	22.282	1318.393	1252.726
813.247	22.035	1317.419	1249.888
814.261	22.432	1317.856	1252.991
815.276	22.899	1318.386	1256.687
816.291	23.165	1317.414	1257.513
817.305	23.482	1316.309	1258.568
818.320	23.482	1315.144	1257.301
819.334	23.461	1314.270	1256.165
820.349	23.638	1312.681	1255.757
821.364	23.590	1311.455	1254.089
822.378	23.619	1310.402	1253.144
823.393	23.495	1309.209	1250.971
824.407	23.520	1308.172	1250.010
825.422	23.383	1307.383	1248.133
826.437	23.496	1305.302	1246.796
827.451	23.161	1303.711	1242.762
828.466	22.390	1301.574	1235.143
829.480	22.178	1299.196	1231.247
830.495	22.431	1298.246	1231.980
831.509	22.968	1298.807	1236.139
832.524	23.172	1298.042	1236.698
833.539	23.451	1297.235	1237.738
834.553	23.505	1296.499	1237.265
835.568	23.756	1295.156	1237.596
836.582	23.641	1293.729	1235.278
837.597	23.535	1292.708	1233.413
838.612	23.520	1291.312	1231.830
839.626	23.371	1289.735	1229.136
840.641	23.035	1288.979	1225.931
841.655	22.749	1287.487	1222.371
842.670	22.378	1284.921	1217.216
843.685	21.812	1283.555	1211.841
844.699	22.594	1283.380	1216.964
845.714	23.171	1282.797	1220.263
846.728	23.268	1282.798	1220.789
847.743	23.425	1282.518	1221.467
848.758	23.645	1281.217	1221.603
849.772	23.736	1279.406	1220.358
850.787	23.770	1277.745	1218.859
851.801	23.747	1277.067	1217.909
852.816	23.582	1276.222	1215.818
853.831	23.483	1275.091	1213.915
854.845	23.501	1272.826	1211.739
855.860	23.252	1271.164	1208.306
856.874	23.131	1269.682	1205.922
857.889	22.945	1267.789	1202.710
858.904	22.480	1265.663	1197.371
859.918	22.147	1263.165	1192.589
860.933	21.644	1263.403	1189.240
861.947	22.102	1263.143	1191.978
862.962	22.601	1262.420	1194.552
863.977	22.757	1261.495	1194.599
864.991	23.008	1261.020	1195.714
866.006	23.314	1260.752	1197.397
867.020	23.501	1259.561	1197.387
868.035	23.514	1258.475	1196.298
869.049	23.700	1257.767	1196.742
870.064	23.866	1256.925	1196.923
871.079	23.651	1255.962	1194.414
872.093	23.470	1255.535	1192.640
873.108	23.463	1254.218	1191.193
874.122	23.267	1252.560	1188.156
875.137	22.783	1251.522	1183.767
876.152	22.623	1249.727	1180.854
877.166	22.830	1248.183	1180.641
878.181	23.159	1247.969	1182.508
879.195	23.398	1247.643	1183.661
880.210	23.694	1246.753	1184.662
881.225	23.651	1245.881	1183.406
882.239	23.715	1244.747	1182.614
883.254	23.571	1244.443	1181.219
884.268	23.599	1243.699	1180.561
885.283	23.753	1241.957	1179.795
886.298	23.746	1240.261	1177.992
887.312	23.684	1239.533	1176.746
888.327	23.588	1239.002	1175.468
889.341	23.682	1237.321	1174.353
890.356	23.588	1237.022	1173.307
891.371	23.565	1236.187	1172.219
892.385	23.285	1235.252	1169.333
893.400	23.281	1234.152	1168.130
894.414	23.064	1232.712	1165.186
895.429	22.743	1230.535	1160.867
896.444	22.032	1227.224	1152.916
897.458	21.513	1226.374	1148.555
898.473	22.113	1226.575	1152.560
899.487	22.639	1227.055	1156.345
900.502	23.264	1225.613	1158.962
901.517	23.393	1224.809	1158.907
902.531	23.595	1224.144	1159.471
903.546	23.561	1223.479	1158.480
904.560	23.669	1222.659	1158.270
905.575	23.829	1221.768	1158.333
906.589	23.782	1221.073	1157.228
907.604	23.575	1220.126	1154.840
