DTS Sentinel unit serial number:	SN409020Multiplexer serial number:	ORYXHardware model number:	OX4-SRSoftware version number:	ORYX F/W v3.00 Oryx Data Collector v3.7.2.0data status	okinstallation	HaddamTimeLapsedifferential loss correction	single-endedforward channel	channel 3reverse channel	N/Adate	2011/06/22time	04:26:17forward acquisition time	30.00reverse acquisition time	0.00gamma	498.7831k internal	0.1752k external	0.1752temperature offset calibration	1.0074default loss term (dB/km)	0.3790temperature slope calibration	1.3530multiplexer offset coefficient	1.0000multiplexer slope coefficient	1.0000fibre end	0.00T internal ref (°C)	22.69T ext. ref 1 (°C)	18.19T ext. ref 2 (°C)	0.12length (m)	temperature (°C)	Stokes	anti-Stokes-747.200	-107.174	-0.038	0.011
-746.185	224.424	0.202	0.435
-745.171	-116.601	0.152	-0.037
-744.156	449.343	0.145	0.427
-743.142	-200.000	-0.023	0.319
-742.127	-75.902	0.900	0.421
-741.112	-69.240	0.237	0.121
-740.098	-200.000	0.016	0.585
-739.083	-76.334	0.431	-0.200
-738.069	-200.000	0.012	0.186
-737.054	-75.037	-0.182	-0.086
-736.039	431.997	-0.070	-0.203
-735.025	-119.830	0.263	0.060
-734.010	408.213	0.276	-0.779
-732.996	113.017	0.231	0.373
-731.981	19.717	0.110	-0.118
-730.966	271.881	0.215	0.504
-729.952	-25.484	0.148	-0.116
-728.937	726.513	0.097	0.344
-727.923	-60.780	-0.427	0.239
-726.908	113.805	-0.257	0.415
-725.894	119.563	0.120	0.197
-724.879	800.000	0.082	0.318
-723.864	65.563	0.187	0.252
-722.850	-92.028	0.073	0.027
-721.835	-3.349	0.109	0.101
-720.821	-200.000	-0.064	-0.474
-719.806	-117.401	0.452	-0.108
-718.791	151.119	-0.119	-0.214
-717.777	-0.572	-0.256	-0.241
-716.762	50.096	-0.134	-0.167
-715.748	269.213	0.055	0.128
-714.733	-6.274	-0.434	0.393
-713.718	66.182	0.182	0.245
-712.704	243.341	-0.188	-0.419
-711.689	-106.831	-0.482	0.141
-710.675	775.733	0.151	-0.549
-709.660	-111.290	-0.232	-0.062
-708.645	-77.530	-0.490	0.224
-707.631	501.324	-0.091	-0.281
-706.616	-200.000	0.016	-0.173
-705.602	189.880	-0.167	0.334
-704.587	773.490	-0.053	0.194
-703.572	800.000	0.067	-0.258
-702.558	-87.748	-0.246	-0.098
-701.543	267.503	0.097	0.225
-700.529	50.180	0.293	-0.367
-699.514	-93.070	-0.263	-0.096
-698.499	-182.592	-0.378	-0.009
-697.485	-65.379	-0.154	0.082
-696.470	-200.000	-0.166	0.000
-695.456	-126.973	-0.242	-0.047
-694.441	188.289	-0.117	-0.233
-693.426	229.125	0.244	-0.529
-692.412	-23.176	-0.186	0.148
-691.397	499.915	0.110	0.338
-690.383	-90.147	0.128	-0.049
-689.368	-200.000	0.042	-0.355
-688.354	63.050	-0.195	-0.259
-687.339	-77.202	-0.317	0.145
-686.324	17.845	-0.185	0.195
-685.310	-73.145	0.202	0.098
-684.295	-65.256	0.185	-0.098
-683.281	-120.924	0.264	-0.058
-682.266	-129.353	0.584	0.106
-681.251	98.198	0.139	-0.213
-680.237	-200.000	0.023	0.162
-679.222	358.515	0.119	0.317
-678.208	149.919	-0.149	-0.268
-677.193	-120.190	-0.473	-0.106
-676.178	-200.000	0.046	-0.440
-675.164	53.157	0.429	-0.545
-674.149	-157.903	-0.466	-0.036
-673.135	-88.380	0.428	-0.168
-672.120	169.914	0.298	-0.565
-671.105	61.271	0.140	-0.184
-670.091	-16.303	-0.160	0.134
-669.076	267.867	0.083	0.193
-668.062	-97.938	-0.124	-0.042
-667.047	-200.000	-0.026	-0.195
-666.032	-82.786	0.113	-0.048
-665.018	-200.000	0.007	-0.187
-664.003	-46.389	-0.168	0.109
-662.989	-158.843	-0.259	0.019
-661.974	270.007	-0.254	0.593
-660.959	-200.000	0.005	-0.254
-659.945	800.000	0.091	-0.342
-658.930	-79.489	0.440	-0.196
-657.916	-147.177	0.512	0.057
-656.901	19.446	0.274	0.291
-655.886	97.478	0.356	-0.541
-654.872	459.533	-0.226	-0.669
-653.857	-200.000	0.015	-0.250
-652.843	401.468	-0.225	0.629
-651.828	-72.123	0.055	0.027
-650.814	84.927	-0.139	0.202
-649.799	114.633	0.127	-0.205
-648.784	37.923	-0.136	0.160
-647.770	-97.619	0.513	0.175
-646.755	-150.074	0.322	0.033
-645.741	-86.835	-0.516	-0.207
-644.726	-158.429	-0.432	0.033
-643.711	33.955	-0.221	-0.255
-642.697	-32.245	-0.525	-0.387
-641.682	-45.996	-0.307	0.200
-640.668	-137.631	0.294	0.043
-639.653	-200.000	-0.019	0.228
-638.638	-79.894	-0.397	0.176
-637.624	95.619	0.041	-0.062
-636.609	255.995	0.163	0.372
-635.595	-100.190	0.073	0.024
-634.580	800.000	0.033	0.165
-633.565	282.891	-0.092	0.218
-632.551	19.774	0.293	0.312
-631.536	-3.573	0.153	0.140
-630.522	-103.420	0.326	0.101
-629.507	-51.065	-0.143	-0.089
-628.492	7.779	0.310	0.306
-627.478	168.837	-0.185	0.350
-626.463	-82.910	-0.220	0.093
-625.449	-11.433	0.270	-0.235
-624.434	-30.886	-0.129	-0.096
-623.419	-108.654	0.671	-0.189
-622.405	478.941	0.159	-0.478
-621.390	-16.031	-0.238	-0.199
-620.376	-140.689	-0.416	-0.056
-619.361	107.478	0.106	-0.167
-618.346	5.073	-0.459	-0.447
-617.332	-200.000	-0.041	0.300
-616.317	-43.141	-0.183	-0.122
-615.303	46.585	0.063	-0.077
-614.288	-161.248	0.216	-0.015
-613.273	-174.420	0.382	0.014
-612.259	-80.616	0.266	0.116
-611.244	-120.988	0.238	-0.052
-610.230	13.677	0.418	-0.428
-609.215	800.000	0.049	0.193
-608.201	-76.155	-0.588	-0.273
-607.186	341.759	-0.040	0.103
-606.171	254.118	0.028	0.063
-605.157	-10.816	-0.312	0.272
-604.142	111.817	0.197	-0.315
-603.128	-50.145	0.129	-0.080
-602.113	187.524	0.060	-0.119
-601.098	-35.456	0.343	0.246
-600.084	-52.936	-0.104	0.063
-599.069	-40.213	-0.200	-0.137
-598.055	-176.628	0.251	-0.008
-597.040	-130.712	0.231	-0.041
-596.025	18.885	-0.398	-0.421
-595.011	397.217	-0.060	-0.166
-593.996	-144.860	-0.189	0.023
-592.982	-87.682	0.300	-0.119
-591.967	-27.923	-0.433	-0.330
-590.952	800.000	-0.111	-0.426
-589.938	213.170	-0.040	-0.084
-588.923	24.498	-0.086	-0.094
-587.909	59.731	-0.278	-0.362
-586.894	-68.180	-0.432	0.221
-585.879	171.662	-0.148	0.282
-584.865	110.941	0.124	0.198
-583.850	-200.000	-0.002	0.349
-582.836	58.410	-0.220	0.286
-581.821	800.000	-0.097	0.483
-580.806	115.450	-0.033	0.053
-579.792	3.645	0.286	-0.275
-578.777	-57.043	0.397	-0.230
-577.763	-153.891	0.648	0.058
-576.748	-165.169	-0.417	-0.024
-575.733	-108.017	-0.368	-0.105
-574.719	-102.396	0.127	0.040
-573.704	-21.749	-0.195	0.157
-572.690	330.911	-0.129	0.330
-571.675	-93.103	-0.403	0.147
-570.661	-133.664	-0.217	0.035
-569.646	471.647	0.260	0.777
-568.631	-8.881	-0.241	0.213
-567.617	455.480	0.151	0.444
-566.602	-70.455	0.610	0.304
-565.588	-168.789	-0.425	0.021
-564.573	-23.948	-0.239	-0.188
-563.558	17.507	-0.105	-0.109
-562.544	-182.597	0.324	-0.008
-561.529	336.819	-0.163	0.418
-560.515	-87.556	0.120	0.048
-559.500	359.407	0.142	-0.376
-558.485	800.000	0.119	-0.448
-557.471	-51.183	0.117	0.072
-556.456	-87.493	0.296	-0.118
-555.442	800.000	-0.089	-0.332
-554.427	84.314	-0.110	0.158
-553.412	267.037	-0.087	0.201
-552.398	60.498	0.195	-0.255
-551.383	164.954	0.056	-0.104
-550.369	-38.296	0.281	-0.196
-549.354	96.340	0.275	-0.416
-548.339	-86.875	-0.371	-0.149
-547.325	111.480	-0.066	0.105
-546.310	174.041	-0.080	-0.153
-545.296	42.012	0.200	-0.240
-544.281	150.462	0.131	0.235
-543.266	-200.000	0.047	0.697
-542.252	-200.000	0.012	-0.319
-541.237	144.974	-0.087	-0.153
-540.223	-179.033	-0.246	-0.007
-539.208	15.703	0.310	0.320
-538.193	-153.995	0.213	0.019
-537.179	-200.000	-0.075	-1.012
-536.164	25.254	-0.362	-0.396
-535.150	-200.000	0.060	-0.589
-534.135	99.373	-0.051	0.078
-533.121	126.238	-0.280	-0.468
-532.106	-200.000	0.009	-0.256
-531.091	-85.344	-0.111	-0.045
-530.077	552.819	-0.068	0.215
-529.062	-144.277	0.392	-0.048
-528.048	-43.262	-0.375	0.249
-527.033	26.045	-0.225	-0.247
-526.018	58.681	0.113	0.147
-525.004	-163.868	0.279	-0.017
-523.989	-102.706	0.112	-0.035
-522.975	-0.991	-0.221	0.206
-521.960	416.622	0.108	-0.306
-520.945	452.989	0.126	0.369
-519.931	-0.187	-0.288	0.269
-518.916	-90.089	-0.313	-0.119
-517.902	752.240	-0.106	-0.378
-516.887	-130.867	0.143	0.025
-515.872	0.117	0.215	-0.202
-514.858	-69.733	0.249	-0.125
-513.843	1.806	-0.161	-0.152
-512.829	21.619	-0.338	0.361
-511.814	-163.228	0.261	-0.016
-510.799	-117.570	0.306	-0.072
-509.785	122.641	0.101	-0.167
-508.770	-149.329	-0.332	-0.034
-507.756	-46.869	0.468	-0.300
-506.741	-200.000	-0.047	0.417
-505.726	800.000	0.050	0.188
-504.712	794.262	-0.029	-0.106
-503.697	105.801	-0.091	0.142
-502.683	-143.134	0.199	-0.025
-501.668	-200.000	0.015	0.635
-500.653	44.864	-0.322	-0.390
-499.639	-96.420	-0.149	0.051
-498.624	-200.000	-0.036	-0.694
-497.610	-92.344	0.317	-0.117
-496.595	226.779	0.105	0.225
-495.581	417.121	-0.099	-0.280
-494.566	-200.000	-0.002	-0.629
-493.551	800.000	0.125	-0.604
-492.537	800.000	0.087	-0.469
-491.522	-5.812	0.305	0.274
-490.508	-47.671	0.351	0.223
-489.493	-200.000	0.044	-0.328
-488.478	-52.394	0.127	-0.077
-487.464	-39.017	0.274	-0.189
-486.449	-139.168	-0.326	-0.046
-485.435	800.000	0.065	0.248
-484.420	-200.000	-0.037	-0.455
-483.405	-92.528	-0.363	-0.133
-482.391	-8.765	0.433	-0.381
-481.376	-200.000	0.017	-0.136
-480.362	-19.704	0.025	-0.020
-479.347	-135.125	0.418	0.065
-478.332	726.125	0.119	0.421
-477.318	-104.287	-0.108	-0.033
-476.303	-70.099	0.177	-0.088
-475.289	-77.904	-0.312	-0.141
-474.274	-5.696	-0.183	-0.165
-473.259	-40.493	-0.126	-0.086
-472.245	207.591	0.108	-0.222
-471.230	800.000	0.087	-0.506
-470.216	68.485	0.089	0.120
-469.201	800.000	0.089	-0.328
-468.186	-200.000	-0.115	0.000
-467.172	-200.000	-0.020	0.145
-466.157	16.790	0.322	0.335
-465.143	8.507	-0.147	-0.145
-464.128	-65.457	0.698	-0.367
-463.113	-109.649	0.357	-0.098
-462.099	74.624	0.083	0.115
-461.084	-25.584	-0.355	0.275
-460.070	-138.420	0.072	-0.010
-459.055	-117.796	0.286	0.067
-458.040	7.087	0.115	0.112
-457.026	-91.465	-0.249	-0.093
-456.011	-48.755	-0.271	-0.170
-454.997	-40.173	0.402	-0.274
-453.982	800.000	-0.062	0.268
-452.968	27.487	-0.217	-0.240
-451.953	-200.000	-0.084	0.542
-450.938	-59.567	-0.202	0.114
-449.924	-200.000	-0.031	-0.264
-448.909	38.405	-0.152	-0.178
-447.895	141.962	0.231	-0.403
-446.880	24.770	0.280	-0.304
-445.865	800.000	0.135	-0.535
-444.851	-131.447	0.304	-0.052
-443.836	-25.196	0.132	-0.102
-442.822	40.952	-0.114	-0.135
-441.807	-46.793	0.233	0.149
-440.792	15.323	-0.338	0.348
-439.778	-95.136	-0.391	0.138
-438.763	93.426	-0.159	0.237
-437.749	-200.000	0.010	0.801
-436.734	24.001	0.125	0.135
-435.719	-170.840	0.323	-0.014
-434.705	-200.000	0.046	0.501
-433.690	-121.617	0.460	-0.099
-432.676	188.180	0.210	0.412
-431.661	-200.000	-0.010	-0.139
-430.646	-76.757	0.672	-0.307
-429.632	-156.067	0.385	0.032
-428.617	800.000	-0.089	-0.335
-427.603	71.143	0.022	-0.030
-426.588	-134.644	-0.612	0.097
-425.573	-125.481	-0.218	-0.043
-424.559	65.351	-0.209	0.278
-423.544	-200.000	-0.019	-0.562
-422.530	800.000	0.027	0.130
-421.515	-200.000	-0.063	-0.401
-420.500	-57.680	-0.417	-0.238
-419.486	-53.328	-0.120	-0.072
-418.471	-190.425	-0.267	0.004
-417.457	-132.977	-0.496	0.082
-416.442	-102.589	-0.839	0.261
-415.428	-26.097	0.149	-0.114
-414.413	800.000	0.019	-0.108
-413.398	252.120	0.060	-0.134
-412.384	82.340	-0.105	0.149
-411.369	-159.121	-0.374	-0.027
-410.355	800.000	-0.044	-0.243
-409.340	93.074	-0.195	0.289
-408.325	800.000	0.085	0.315
-407.311	-112.206	-0.098	0.026
-406.296	-163.219	0.164	0.010
-405.282	-200.000	0.010	0.318
-404.267	-137.755	0.185	0.027
-403.252	800.000	0.050	0.221
-402.238	-124.697	-0.140	-0.028
-401.223	0.531	0.233	0.218
-400.209	195.626	-0.159	-0.318
-399.194	143.728	-0.098	-0.172
-398.179	-87.049	0.162	-0.064
-397.165	-162.973	0.339	-0.021
-396.150	-143.253	-0.350	-0.044
-395.136	536.588	0.209	0.653
-394.121	93.419	-0.211	0.314
-393.106	800.000	-0.046	0.212
-392.092	48.098	-0.085	-0.104
-391.077	-154.766	0.213	-0.018
-390.063	145.287	0.127	0.223
-389.048	-106.797	0.222	-0.064
-388.033	15.621	-0.047	0.048
-387.019	-89.486	-0.728	-0.279
-386.004	-200.000	-0.002	0.622
-384.990	279.542	-0.107	-0.251
-383.975	800.000	0.085	0.384
-382.960	-73.423	0.312	0.149
-381.946	243.005	-0.158	0.348
-380.931	88.462	0.209	0.304
-379.917	-44.307	0.468	0.306
-378.902	800.000	0.065	0.341
-377.888	-113.449	0.486	0.124
-376.873	-0.445	-0.130	0.121
-375.858	-93.770	0.180	-0.065
-374.844	35.581	0.136	-0.156
-373.829	-23.222	0.068	0.054
-372.815	-92.884	0.073	-0.026
-371.800	16.657	0.222	0.229
-370.785	93.969	-0.244	0.363
-369.771	-124.270	-0.193	0.039
-368.756	402.443	0.105	0.289
-367.742	-73.227	0.120	-0.057
-366.727	-116.789	-0.112	0.027
-365.712	240.973	-0.227	0.498
-364.698	582.010	0.136	-0.437
-363.683	-47.907	0.042	0.027
-362.669	-2.637	-0.454	-0.415
-361.654	800.000	-0.135	-0.496
-360.639	16.639	-0.071	0.074
-359.625	-37.297	0.513	-0.358
-358.610	18.869	0.308	-0.323
-357.596	800.000	0.139	-0.536
-356.581	148.856	0.152	-0.270
-355.566	33.316	0.163	-0.186
-354.552	-200.000	0.008	0.446
-353.537	-200.000	-0.036	-0.312
-352.523	-28.207	-0.306	0.231
-351.508	-55.398	0.207	-0.121
-350.493	-123.493	-0.468	-0.096
-349.479	-34.189	0.222	-0.159
-348.464	-53.348	-0.334	0.200
-347.450	-61.746	-0.374	0.204
-346.435	-32.494	-0.201	0.146
-345.420	-27.081	0.031	-0.024
-344.406	243.147	-0.184	0.405
-343.391	-118.348	0.206	-0.048
-342.377	26.611	0.263	0.288
-341.362	-200.000	0.009	-0.089
-340.348	39.288	-0.052	0.061
-339.333	-131.913	-0.133	-0.022
-338.318	-24.063	0.200	0.156
-337.304	-155.821	-0.055	-0.005
-336.289	-70.484	-0.230	-0.113
-335.275	-96.322	-0.063	0.022
-334.260	-98.963	-0.407	-0.134
-333.245	-71.438	-0.092	-0.045
-332.231	800.000	0.216	-0.881
-331.216	-200.000	-0.053	-0.443
-330.202	53.566	0.215	-0.269
-329.187	800.000	0.056	0.287
-328.172	800.000	0.046	0.201
-327.158	-14.565	0.313	-0.262
-326.143	562.315	-0.203	-0.646
-325.129	-93.809	0.458	-0.164
-324.114	-71.746	0.202	-0.098
-323.099	285.969	-0.054	0.129
-322.085	120.452	-0.141	0.229
-321.070	3.058	0.124	0.118
-320.056	171.828	-0.289	-0.543
-319.041	-200.000	-0.411	0.000
-318.026	395.679	-0.089	0.243
-317.012	-78.434	-0.385	-0.171
-315.997	-53.581	-0.310	-0.184
-314.983	-136.621	-0.309	-0.046
-313.968	-200.000	-0.042	-0.367
-312.953	-28.047	-0.426	0.321
-311.939	-91.318	0.575	-0.214
-310.924	407.479	-0.071	0.198
-309.910	140.066	-0.279	0.481
-308.895	346.776	0.169	0.436
-307.880	-154.363	-0.780	-0.067
-306.866	-200.000	0.054	0.383
-305.851	4.857	0.152	0.146
-304.837	13.512	-0.015	0.015
-303.822	-36.908	0.106	-0.074
-302.807	-61.313	-0.553	-0.303
-301.793	-61.258	-0.469	0.257
-300.778	800.000	-0.055	-0.234
-299.764	-200.000	0.114	0.693
-298.749	-82.004	-0.336	0.143
-297.735	-195.500	0.330	-0.003
-296.720	-75.924	-0.340	0.156
-295.705	-45.078	0.432	0.280
-294.691	-58.383	0.190	-0.107
-293.676	146.174	0.185	0.324
-292.662	91.175	-0.380	-0.557
-291.647	-125.747	-0.132	-0.026
-290.632	-89.330	0.706	-0.270
-289.618	-200.000	0.028	-0.384
-288.603	-60.073	-0.321	-0.178
-287.589	-116.398	-0.086	0.021
-286.574	264.952	-0.153	0.349
-285.559	-200.000	0.420	0.002
-284.545	-200.000	0.012	-0.128
-283.530	359.323	-0.150	0.392
-282.516	800.000	0.010	-0.050
-281.501	-22.143	-0.072	-0.057
-280.486	60.012	0.083	-0.107
-279.472	-58.375	-0.100	0.057
-278.457	-13.508	0.177	0.149
-277.443	72.291	0.095	-0.129
-276.428	308.623	-0.169	-0.412
-275.413	-160.859	0.437	-0.030
-274.399	-95.960	-0.160	0.055
-273.384	90.646	-0.373	-0.545
-272.370	-108.150	0.194	-0.054
-271.355	6.346	-0.211	0.204
-270.340	-200.000	0.036	0.307
-269.326	-91.381	0.168	-0.062
-268.311	-82.385	0.032	0.013
-267.297	-101.317	-0.340	-0.108
-266.282	-200.000	-0.006	0.164
-265.267	-25.468	0.209	-0.161
-264.253	-82.817	-0.321	-0.134
-263.238	-92.199	-0.328	0.120
-262.224	489.787	-0.054	0.161
-261.209	-200.000	-0.001	0.054
-260.195	71.575	0.039	-0.053
-259.180	-169.876	0.542	0.025
-258.165	680.464	-0.075	-0.257
-257.151	-92.430	0.348	0.127
-256.136	81.608	0.123	-0.173
-255.122	800.000	0.029	-0.135
-254.107	-156.152	0.109	-0.009
-253.092	-1.788	-0.214	0.196
-252.078	-95.753	-0.170	-0.059
-251.063	85.801	0.292	0.419
-250.049	-200.000	-0.008	-0.133
-249.034	-142.914	-0.296	-0.037
-248.019	-200.000	-0.030	-0.612
-247.005	-100.710	0.543	-0.173
-245.990	-133.115	0.264	0.043
-244.976	60.460	-0.345	0.445
-243.961	-22.467	-0.172	-0.135
-242.946	69.332	0.205	-0.275
-241.932	396.966	-0.194	0.530
-240.917	-106.775	-0.402	-0.115
-239.903	-200.000	-0.018	0.303
-238.888	-194.700	-0.161	-0.002
-237.873	-200.000	-0.004	0.243
-236.859	-56.990	0.329	0.188
-235.844	-106.694	0.346	-0.100
-234.830	800.000	-0.082	-0.421
-233.815	-2.631	0.188	-0.171
-232.800	129.800	0.096	-0.160
-231.786	-200.000	0.015	-0.184
-230.771	-106.201	0.321	0.093
-229.757	-51.768	0.328	-0.198
-228.742	-200.000	-0.099	0.596
-227.727	321.814	-0.348	0.865
-226.713	55.872	-0.340	-0.429
-225.698	117.737	0.179	-0.288
-224.684	-200.000	0.060	0.565
-223.669	-200.000	0.024	0.443
-222.655	86.008	-0.263	0.378
-221.640	-200.000	0.170	-0.001
-220.625	5.798	0.229	-0.220
-219.611	-148.307	-0.357	0.038
-218.596	-69.620	-0.137	-0.068
-217.582	-7.048	-0.339	-0.299
-216.567	-107.581	0.162	0.046
-215.552	114.843	-0.307	0.488
-214.538	-91.692	0.357	0.131
-213.523	-200.000	0.004	0.345
-212.509	5.716	0.176	0.169
-211.494	-118.207	0.383	0.088
-210.479	496.679	-0.074	-0.221
-209.465	235.985	-0.025	-0.053
-208.450	-160.776	0.401	0.027
-207.436	68.417	-0.287	-0.383
-206.421	-91.136	0.401	-0.149
-205.406	-45.118	-0.299	0.193
-204.392	41.959	-0.068	-0.080
-203.377	292.533	0.078	0.186
-202.363	355.931	-0.037	-0.097
-201.348	740.843	0.135	0.473
-200.333	-200.000	0.176	0.001
-199.319	-157.698	-0.297	0.023
-198.304	-66.772	0.163	0.083
-197.290	-130.828	-0.347	-0.060
-196.275	-200.000	0.003	0.359
-195.260	52.395	0.176	-0.219
-194.246	-123.839	-0.398	0.081
-193.231	426.357	-0.049	0.137
-192.217	455.904	-0.126	0.364
-191.202	222.799	0.286	-0.600
-190.187	-90.850	-0.612	-0.228
-189.173	485.427	0.046	-0.136
-188.158	-137.865	-0.236	-0.034
-187.144	800.000	0.095	0.456
-186.129	175.413	0.327	0.617
-185.114	-84.466	0.370	0.151
-184.100	261.909	0.269	0.607
-183.085	-5.161	-0.451	0.403
-182.071	-141.041	-0.214	0.028
-181.056	-112.104	-0.165	-0.043
-180.042	-101.605	-0.550	0.172
-179.027	-200.000	0.010	0.615
-178.012	-107.957	0.122	0.034
-176.998	237.086	0.148	0.319
-175.983	-72.156	0.243	0.116
-174.969	800.000	-0.073	-0.354
-173.954	-35.605	0.500	-0.351
-172.939	101.716	0.157	-0.237
-171.925	800.000	0.015	-0.074
-170.910	-104.750	-0.420	-0.125
-169.896	-145.799	-0.436	0.050
-168.881	-62.059	0.311	-0.168
-167.866	36.697	-0.256	0.294
-166.852	-149.863	0.268	-0.027
-165.837	212.153	0.215	-0.442
-164.823	132.143	0.116	0.194
-163.808	-71.555	0.573	-0.277
-162.793	-62.795	0.417	0.223
-161.779	-200.000	0.005	0.357
-160.764	70.180	0.100	0.134
-159.750	753.022	0.104	0.366
-158.735	34.806	0.207	0.235
-157.720	-38.831	0.264	0.180
-156.706	-33.879	-0.173	0.123
-155.691	-33.253	-0.020	0.014
-154.677	800.000	0.048	-0.212
-153.662	-120.372	-0.413	0.090
-152.647	-88.001	-0.061	-0.023
-151.633	-10.020	-0.343	-0.295
-150.618	71.234	0.241	-0.325
-149.604	-200.000	-0.011	-0.260
-148.589	-19.815	-0.036	-0.029
-147.574	-40.105	-0.377	0.254
-146.560	65.030	0.220	0.289
-145.545	-38.285	0.262	0.180
-144.531	800.000	-0.049	-0.216
-143.516	12.917	0.372	0.372
-142.502	86.291	0.206	0.294
-141.487	-119.593	-0.459	0.102
-140.472	62.511	-0.091	-0.117
-139.458	800.000	-0.077	-0.362
-138.443	-200.000	0.014	0.160
-137.429	-154.818	-0.256	-0.022
-136.414	124.986	0.217	0.354
-135.399	-4.531	-0.171	0.153
-134.385	178.929	0.276	0.524
-133.370	134.080	-0.212	0.357
-132.356	-200.000	-0.014	0.569
-131.341	31.143	0.321	0.356
-130.326	-90.100	0.559	-0.210
-129.312	65.864	-0.159	-0.210
-128.297	176.029	-0.082	-0.155
-127.283	-72.332	-0.675	0.323
-126.268	-56.883	0.104	-0.060
-125.253	66.981	0.152	0.201
-124.239	319.448	0.104	0.256
-123.224	228.109	-0.239	0.507
-122.210	122.833	0.268	0.436
-121.195	-72.086	-0.190	0.091
-120.180	301.586	0.093	0.223
-119.166	-81.677	0.413	0.175
-118.151	-112.509	-0.366	0.094
-117.137	73.884	0.240	0.327
-116.122	-75.569	0.061	-0.028
-115.107	-100.220	-0.373	0.119
-114.093	-80.277	0.134	0.058
-113.078	264.247	0.236	0.535
-112.064	324.217	-0.066	0.163
-111.049	-59.509	0.251	0.139
-110.034	237.973	0.039	-0.085
-109.020	42.773	0.211	0.249
-108.005	90.164	-0.424	0.614
-106.991	206.627	-0.080	-0.161
-105.976	-57.331	-0.530	0.301
-104.962	-158.759	-0.523	0.038
-103.947	-22.438	0.028	-0.022
-102.932	711.369	-0.090	-0.310
-101.918	50.487	-0.127	0.156
-100.903	-200.000	0.018	-0.202
-99.889	-185.943	0.302	-0.006
-98.874	63.371	-0.239	-0.310
-97.859	-65.176	-0.193	-0.100
-96.845	36.695	-0.063	0.072
-95.830	-66.881	-0.229	0.117
-94.816	84.947	0.265	-0.376
-93.801	-85.049	-0.454	0.183
-92.786	-200.000	-0.028	0.402
-91.772	800.000	0.124	-0.477
-90.757	-172.660	0.531	-0.021
-89.743	-41.345	-0.213	-0.142
-88.728	1.444	-0.088	0.082
-87.713	-41.780	0.325	0.215
-86.699	-6.882	0.293	0.257
-85.684	41.346	-0.207	0.242
-84.670	-200.000	0.018	0.210
-83.655	-30.525	-0.289	0.212
-82.640	-122.149	0.130	0.027
-81.626	-43.830	0.270	-0.175
-80.611	-110.610	0.712	-0.189
-79.597	124.230	0.222	-0.362
-78.582	25.988	-0.283	0.306
-77.567	-200.000	0.014	-0.113
-76.553	119.840	0.104	0.168
-75.538	-52.110	0.244	-0.146
-74.524	-136.834	-0.174	0.026
-73.509	125.322	0.230	0.376
-72.494	143.015	-0.199	0.343
-71.480	-200.000	0.011	-0.181
-70.465	206.570	-0.092	-0.186
-69.451	85.601	-0.152	-0.216
-68.436	57.034	0.092	-0.116
-67.422	-120.649	0.084	0.018
-66.407	-143.243	0.011	0.001
-65.392	-115.073	0.462	-0.113
-64.378	148.012	-0.255	-0.446
-63.363	-58.250	0.539	-0.302
-62.349	11.380	0.296	-0.292
-61.334	47.714	-2.249	-2.715
-60.319	10.719	1.528	1.506
-59.305	204.522	-3.812	-7.664
-58.290	66.830	3.722	4.901
-57.276	488.977	3.576	10.614
-56.261	-200.000	24.479	319.648
-55.246	356.689	1299.179	3360.722
-54.232	53.431	2838.659	3519.607
-53.217	51.739	2658.346	3269.802
-52.203	32.303	2388.359	2664.191
-51.188	27.982	2054.593	2238.721
-50.173	24.592	1940.902	2075.246
-49.159	23.479	1929.550	2050.094
-48.144	22.913	1926.137	2039.823
-47.130	22.913	1922.469	2035.856
-46.115	22.906	1920.921	2034.055
-45.100	22.896	1919.752	2032.618
-44.086	22.836	1918.578	2030.609
-43.071	22.848	1915.964	2027.895
-42.057	22.758	1915.163	2025.928
-41.042	22.910	1912.753	2025.057
-40.027	22.889	1911.716	2023.626
-39.013	22.891	1910.120	2021.882
-37.998	22.827	1909.366	2020.271
-36.984	22.692	1908.637	2017.865
-35.969	22.709	1907.441	2016.722
-34.954	22.748	1905.617	2015.156
-33.940	22.658	1905.545	2013.965
-32.925	22.766	1903.978	2013.472
-31.911	22.839	1901.744	2011.862
-30.896	22.831	1900.808	2010.698
-29.881	22.814	1899.229	2008.763
-28.867	22.832	1897.400	2006.949
-27.852	22.684	1896.627	2004.360
-26.838	22.685	1894.653	2002.212
-25.823	22.627	1894.075	2000.856
-24.809	22.638	1892.314	1999.046
-23.794	22.659	1891.103	1997.920
-22.779	22.635	1890.629	1997.064
-21.765	22.683	1888.594	1995.386
-20.750	22.710	1887.433	1994.385
-19.736	22.655	1886.277	1992.462
-18.721	22.702	1885.222	1991.796
-17.706	22.745	1883.355	1990.237
-16.692	22.651	1882.239	1987.909
-15.677	22.636	1881.383	1986.760
-14.663	22.561	1880.153	1984.532
-13.648	22.611	1878.595	1983.376
-12.633	22.731	1876.872	1982.837
-11.619	22.641	1875.982	1980.803
-10.604	22.682	1874.484	1979.601
-9.590	22.637	1873.687	1978.170
-8.575	22.572	1872.223	1975.820
-7.560	22.514	1871.583	1974.411
-6.546	22.630	1870.235	1974.214
-5.531	22.685	1868.811	1973.253
-4.517	22.643	1867.446	1971.257
-3.502	22.580	1866.715	1969.707
-2.487	22.701	1865.305	1969.500
-1.473	22.697	1862.491	1966.400
-0.458	22.542	1844.160	1945.248
0.556	19.222	1990.652	2047.896
1.571	17.899	2193.241	2238.607
2.586	18.600	2233.557	2288.895
3.600	18.682	2235.903	2292.115
4.615	18.787	2234.738	2292.062
5.629	18.722	2232.580	2288.700
6.644	18.725	2230.663	2286.499
7.659	18.754	2229.940	2285.882
8.673	18.739	2226.597	2281.977
9.688	18.539	2234.733	2287.363
10.702	17.491	2314.945	2354.606
11.717	15.985	2379.322	2398.274
12.731	7.828	2361.209	2263.488
13.746	1.148	2342.623	2150.390
14.761	0.223	2339.065	2133.702
15.775	0.133	2336.195	2129.550
16.790	0.089	2334.798	2127.401
17.804	0.061	2333.812	2125.847
18.819	0.053	2332.459	2124.239
19.834	0.031	2331.977	2123.245
20.848	0.038	2329.756	2121.068
21.863	0.033	2328.176	2119.296
22.877	-0.039	2327.087	2117.041
23.892	0.127	2323.415	2115.794
24.907	0.040	2322.427	2113.410
25.921	0.002	2320.610	2110.967
26.936	0.036	2318.063	2108.867
27.950	0.050	2314.816	2105.865
28.965	0.074	2312.984	2104.282
29.980	-0.003	2312.126	2102.174
30.994	0.140	2310.097	2102.085
32.009	4.270	2323.115	2171.882
33.023	13.579	2349.162	2327.973
34.038	17.494	2355.460	2389.273
35.053	17.730	2353.416	2390.246
36.067	17.983	2351.143	2391.206
37.082	17.845	2350.153	2387.975
38.096	18.002	2346.829	2386.519
39.111	18.086	2345.308	2385.861
40.126	18.163	2343.379	2384.691
41.140	18.280	2342.000	2384.646
42.155	18.166	2340.291	2381.019
43.169	18.131	2338.079	2377.992
44.184	18.128	2334.420	2373.941
45.199	18.050	2332.839	2370.972
46.213	18.056	2331.477	2369.379
47.228	18.073	2331.140	2368.996
48.242	18.055	2329.604	2366.900
49.257	18.270	2326.060	2366.006
50.271	18.227	2323.906	2362.933
51.286	18.114	2321.727	2358.864
52.301	17.984	2320.550	2355.585
53.315	18.394	2322.023	2362.484
54.330	20.101	2326.352	2390.286
55.344	21.183	2325.919	2404.550
56.359	21.228	2322.648	2401.500
57.374	21.331	2322.262	2402.231
58.388	21.573	2319.419	2402.341
59.403	21.435	2315.688	2396.298
60.417	21.292	2312.488	2390.728
61.432	21.342	2311.329	2389.928
62.447	21.474	2310.265	2390.359
63.461	21.723	2307.503	2390.627
64.476	21.851	2305.944	2390.482
65.490	21.618	2304.643	2385.658
66.505	21.081	2300.915	2374.170
67.520	19.666	2297.252	2350.772
68.534	18.438	2290.269	2326.593
69.549	18.103	2286.599	2318.026
70.563	18.151	2284.349	2316.115
71.578	18.322	2281.592	2315.367
72.593	18.201	2280.965	2312.814
73.607	18.366	2278.342	2312.115
74.622	18.262	2277.255	2309.326
75.636	18.129	2274.616	2304.569
76.651	18.070	2272.679	2301.533
77.666	18.299	2269.507	2301.145
78.680	18.135	2267.655	2296.775
79.695	18.103	2266.008	2294.395
80.709	18.073	2264.942	2292.642
81.724	17.978	2263.216	2289.336
82.739	18.108	2259.957	2287.515
83.753	18.047	2258.059	2284.495
84.768	18.202	2255.587	2283.811
85.782	18.072	2255.037	2281.239
86.797	18.095	2252.449	2278.644
87.812	17.976	2252.185	2276.522
88.826	18.033	2249.950	2274.747
89.841	18.149	2246.896	2272.935
90.855	18.106	2244.039	2269.196
91.870	18.173	2242.686	2268.459
92.884	18.145	2241.537	2266.642
93.899	18.081	2239.950	2263.918
94.914	18.378	2241.312	2268.975
95.928	19.806	2245.558	2292.041
96.943	20.443	2243.172	2297.806
97.957	18.942	2236.609	2270.889
98.972	18.114	2233.273	2256.251
99.987	17.960	2229.677	2250.312
101.001	18.084	2225.511	2247.485
102.016	17.990	2224.281	2244.733
103.030	18.045	2221.820	2242.697
104.045	18.045	2220.365	2240.967
105.060	18.073	2218.071	2238.748
106.074	18.087	2216.612	2237.198
107.089	18.093	2214.608	2234.981
108.103	18.060	2213.587	2233.248
109.118	18.219	2212.552	2234.028
110.133	18.165	2210.705	2231.188
111.147	18.250	2208.306	2229.604
112.162	18.145	2207.855	2227.518
113.176	18.286	2203.630	2224.826
114.191	18.200	2202.557	2222.359
115.206	18.053	2202.440	2220.049
116.220	18.078	2200.276	2217.934
117.235	18.191	2197.177	2216.011
118.249	18.075	2195.291	2212.332
119.264	18.281	2193.734	2213.173
120.279	18.250	2192.166	2210.933
121.293	18.251	2190.263	2208.756
122.308	18.145	2189.041	2205.887
123.322	18.219	2187.340	2204.866
124.337	18.423	2187.825	2207.731
125.352	19.950	2193.298	2232.802
126.366	20.340	2190.791	2235.035
127.381	18.724	2183.310	2206.276
128.395	17.984	2179.759	2192.881
129.410	18.046	2177.585	2191.229
130.424	18.156	2175.966	2190.753
131.439	18.051	2174.093	2187.249
132.454	18.070	2172.128	2185.263
133.468	18.188	2168.889	2183.251
134.483	18.227	2167.421	2182.011
135.497	18.200	2166.661	2180.639
136.512	18.128	2164.495	2177.281
137.527	18.077	2162.425	2174.290
138.541	17.986	2161.667	2172.096
139.556	18.053	2160.331	2171.358
140.570	17.999	2159.484	2169.554
141.585	18.135	2156.427	2167.953
142.600	18.146	2155.221	2166.625
143.614	17.958	2153.976	2162.715
144.629	18.066	2152.456	2162.303
145.643	17.958	2150.392	2158.599
146.658	18.024	2148.542	2157.319
147.673	17.940	2147.376	2154.825
148.687	18.074	2145.607	2154.491
149.702	18.082	2144.476	2153.199
150.716	17.962	2143.885	2150.838
151.731	17.915	2143.258	2149.355
152.746	18.064	2141.417	2149.137
153.760	18.456	2143.279	2155.700
154.775	19.984	2147.604	2179.132
155.789	20.423	2144.945	2181.721
156.804	18.930	2137.069	2154.654
157.819	18.088	2131.092	2137.785
158.833	17.967	2129.413	2134.326
159.848	18.122	2127.334	2133.938
160.862	18.137	2126.267	2132.802
161.877	18.170	2124.683	2131.372
162.892	18.117	2124.530	2130.288
163.906	18.122	2122.648	2128.222
164.921	18.222	2120.092	2126.653
165.935	18.214	2118.523	2124.715
166.950	18.092	2117.124	2121.538
167.964	18.098	2114.757	2118.988
168.979	18.044	2112.364	2115.662
169.994	18.196	2110.724	2115.661
171.008	18.186	2109.185	2113.744
172.023	18.090	2107.777	2110.889
173.037	18.141	2107.665	2111.146
174.052	18.245	2104.861	2109.383
175.067	18.074	2103.398	2105.547
176.081	18.132	2102.604	2105.209
177.096	18.219	2100.737	2104.171
178.110	18.156	2098.418	2100.819
179.125	18.046	2098.023	2098.815
180.140	18.092	2096.890	2097.996
181.154	18.101	2095.637	2096.599
182.169	18.095	2094.537	2095.177
183.183	18.403	2096.117	2100.303
184.198	20.197	2099.460	2125.515
185.213	20.679	2096.475	2128.176
186.227	18.905	2089.992	2099.578
187.242	18.125	2087.440	2087.195
188.256	18.118	2085.714	2085.127
189.271	18.026	2084.116	2082.154
190.286	18.181	2081.744	2081.431
191.300	18.067	2079.020	2077.067
192.315	17.923	2078.433	2074.472
193.329	18.090	2077.514	2075.347
194.344	18.332	2075.710	2076.250
195.359	18.230	2074.744	2073.791
196.373	18.148	2072.204	2070.009
197.388	18.192	2069.130	2067.218
198.402	18.080	2068.012	2064.496
199.417	18.156	2065.230	2062.394
200.432	18.150	2064.115	2060.966
201.446	18.186	2063.065	2060.098
202.461	18.043	2062.624	2057.686
203.475	18.049	2060.621	2055.512
204.490	18.097	2057.665	2052.892
205.504	18.023	2056.231	2050.332
206.519	18.090	2053.223	2047.887
207.534	18.013	2052.106	2045.602
208.548	18.116	2050.726	2045.218
209.563	18.114	2049.733	2043.968
210.577	18.105	2048.658	2042.541
211.592	18.091	2048.131	2041.601
212.607	18.929	2050.699	2053.984
213.621	20.906	2056.188	2083.013
214.636	20.360	2050.219	2070.172
215.650	18.602	2043.248	2041.869
216.665	18.130	2040.624	2033.364
217.680	18.166	2039.308	2032.243
218.694	18.140	2037.915	2030.302
219.709	18.170	2035.827	2028.334
220.723	18.161	2034.741	2026.901
221.738	18.233	2031.674	2024.458
222.753	18.210	2030.640	2022.918
223.767	18.100	2029.990	2020.721
224.782	18.136	2027.441	2018.370
225.796	18.095	2027.299	2017.500
226.811	18.146	2025.468	2016.036
227.826	18.154	2023.318	2013.748
228.840	18.138	2021.657	2011.673
229.855	18.040	2020.705	2009.323
230.869	18.194	2018.100	2008.305
231.884	18.155	2017.294	2006.800
232.899	18.169	2015.561	2005.008
233.913	17.957	2014.933	2001.648
234.928	17.984	2013.728	2000.522
235.942	18.070	2012.180	1999.760
236.957	18.142	2009.776	1997.971
237.972	18.070	2009.718	1996.831
238.986	18.050	2008.463	1995.115
240.001	18.271	2005.166	1994.187
241.015	18.115	2004.912	1991.875
242.030	18.389	2005.627	1995.555
243.045	20.080	2008.136	2017.619
244.059	20.135	2006.006	2015.873
245.074	18.517	2000.030	1990.756
246.088	17.979	1996.721	1980.963
247.103	18.208	1994.408	1981.089
248.117	18.226	1993.201	1979.865
249.132	18.142	1991.803	1977.265
250.147	18.057	1989.733	1973.992
251.161	18.015	1988.159	1971.696
252.176	18.161	1987.482	1972.492
253.190	18.342	1985.874	1972.747
254.205	18.352	1982.934	1969.706
255.220	18.275	1981.793	1967.449
256.234	18.236	1980.918	1965.894
257.249	18.200	1979.704	1964.046
258.263	18.175	1979.240	1963.058
259.278	18.214	1978.190	1962.226
260.293	18.147	1975.708	1958.765
261.307	18.196	1973.337	1956.740
262.322	18.048	1972.357	1953.838
263.336	17.980	1970.441	1950.926
264.351	17.964	1969.316	1949.386
265.366	17.954	1968.392	1948.130
266.380	18.054	1966.556	1947.226
267.395	18.085	1965.262	1946.061
268.409	18.060	1963.401	1943.697
269.424	18.139	1962.147	1943.125
270.439	18.036	1961.955	1941.533
271.453	18.519	1962.477	1947.331
272.468	20.319	1964.167	1969.326
273.482	20.337	1961.694	1966.807
274.497	18.779	1955.024	1942.197
275.512	18.039	1951.964	1930.525
276.526	18.186	1949.503	1929.519
277.541	18.116	1947.641	1926.662
278.555	18.049	1946.211	1924.253
279.570	17.865	1945.347	1921.083
280.585	17.922	1943.184	1919.370
281.599	17.981	1942.292	1918.916
282.614	18.230	1940.681	1919.908
283.628	18.242	1940.381	1919.518
284.643	18.235	1939.642	1918.478
285.657	18.317	1938.494	1918.034
286.672	18.508	1936.551	1918.027
287.687	18.284	1934.978	1913.724
288.701	18.399	1933.174	1913.005
289.716	18.365	1931.760	1910.993
290.730	18.359	1930.034	1908.986
291.745	18.264	1929.154	1906.826
292.760	18.249	1928.421	1905.710
293.774	18.028	1927.623	1902.220
294.789	18.294	1925.651	1903.019
295.803	18.111	1923.590	1898.709
296.818	18.048	1921.546	1895.766
297.833	18.085	1920.452	1894.866
298.847	18.058	1919.758	1893.655
299.862	18.067	1918.151	1891.945
300.876	18.445	1918.611	1896.382
301.891	20.216	1922.102	1919.316
302.906	20.639	1919.977	1921.663
303.920	18.920	1913.969	1896.373
304.935	18.156	1911.049	1884.797
305.949	18.170	1908.612	1882.328
306.964	18.137	1906.381	1879.536
307.979	18.158	1905.884	1879.048
308.993	18.167	1904.487	1877.549
310.008	18.176	1902.839	1875.792
311.022	18.387	1900.730	1875.813
312.037	18.442	1900.388	1875.861
313.052	18.438	1897.925	1873.164
314.066	18.187	1896.926	1869.189
315.081	18.279	1896.351	1869.415
316.095	18.326	1894.799	1868.173
317.110	18.317	1892.781	1865.861
318.125	18.210	1890.969	1862.677
319.139	18.237	1890.508	1862.298
320.154	18.353	1888.512	1861.374
321.168	18.367	1886.752	1859.575
322.183	18.331	1885.418	1857.644
323.197	18.223	1883.848	1854.698
324.212	18.010	1882.037	1850.378
325.227	17.916	1881.054	1848.165
326.241	18.026	1879.146	1847.268
327.256	18.140	1877.446	1846.607
328.270	18.046	1876.604	1844.544
329.285	18.018	1877.391	1844.787
330.300	18.572	1879.635	1852.789
331.314	20.604	1881.215	1876.184
332.329	20.424	1878.058	1870.859
333.343	18.618	1871.589	1844.688
334.358	18.213	1868.884	1837.434
335.373	18.223	1867.147	1835.614
336.387	18.142	1865.359	1832.769
337.402	18.070	1863.812	1830.252
338.416	18.171	1862.316	1829.651
339.431	18.124	1861.207	1827.834
340.446	18.224	1859.943	1827.447
341.460	18.278	1858.361	1826.249
342.475	18.418	1856.352	1825.560
343.489	18.426	1855.204	1824.299
344.504	18.249	1854.385	1821.384
345.519	18.350	1853.157	1821.037
346.533	18.438	1850.942	1819.585
347.548	18.489	1849.925	1818.911
348.562	18.442	1848.788	1817.073
349.577	18.248	1848.355	1814.363
350.592	18.325	1847.016	1813.653
351.606	18.364	1844.679	1811.557
352.621	18.216	1843.280	1808.392
353.635	18.012	1842.390	1805.134
354.650	18.170	1839.805	1804.062
355.665	18.137	1837.651	1801.383
356.679	18.103	1836.736	1799.906
357.694	18.205	1835.980	1800.037
358.708	18.119	1835.454	1798.391
359.723	18.909	1837.476	1808.520
360.738	20.526	1839.900	1827.792
361.752	20.040	1836.321	1818.893
362.767	18.575	1830.429	1797.412
363.781	18.052	1828.411	1789.715
364.796	18.011	1826.936	1787.622
365.810	18.035	1825.092	1785.857
366.825	17.999	1823.826	1784.031
367.840	18.129	1823.070	1784.442
368.854	18.127	1822.544	1783.692
369.869	18.147	1819.414	1780.624
370.883	18.028	1818.058	1777.838
371.898	17.992	1817.422	1776.630
372.913	18.003	1817.140	1776.248
373.927	18.013	1815.798	1774.833
374.942	18.116	1813.985	1773.920
375.956	18.066	1813.130	1772.353
376.971	18.178	1810.862	1771.092
377.986	18.108	1809.728	1769.042
379.000	18.094	1807.595	1766.596
380.015	18.201	1807.462	1767.370
381.029	18.324	1805.146	1766.172
382.044	18.301	1802.894	1763.515
383.059	18.130	1801.404	1760.078
384.073	18.058	1801.093	1758.815
385.088	17.966	1799.963	1756.547
386.102	17.996	1797.184	1753.940
387.117	17.991	1795.517	1752.050
388.132	18.069	1795.466	1752.591
389.146	18.654	1798.584	1761.468
390.161	20.556	1799.918	1782.177
391.175	20.433	1794.453	1775.289
392.190	18.559	1788.541	1750.030
393.205	18.003	1786.305	1741.929
394.219	18.065	1784.391	1740.495
395.234	18.123	1784.032	1740.523
396.248	18.126	1782.059	1738.425
397.263	18.040	1780.374	1735.695
398.278	18.172	1777.729	1734.256
399.292	18.121	1777.127	1732.942
400.307	18.155	1776.831	1732.787
401.321	18.389	1775.539	1733.704
402.336	18.158	1774.626	1730.260
403.350	18.242	1772.559	1728.887
404.365	18.352	1771.737	1728.998
405.380	18.492	1770.777	1729.266
406.394	18.442	1769.750	1727.551
407.409	18.405	1767.440	1724.721
408.423	18.347	1766.027	1722.542
409.438	18.305	1764.723	1720.643
410.453	18.334	1764.085	1720.113
411.467	18.479	1763.388	1720.686
412.482	18.344	1761.519	1717.298
413.496	18.272	1759.895	1714.780
414.511	18.249	1757.786	1712.286
415.526	18.124	1755.645	1708.744
416.540	18.089	1754.183	1706.766
417.555	18.057	1753.294	1705.378
418.569	18.192	1753.167	1706.397
419.584	18.157	1753.497	1706.169
420.599	18.229	1752.827	1706.029
421.613	18.175	1751.760	1704.251
422.628	18.059	1750.637	1701.795
423.642	18.258	1748.175	1701.182
424.657	18.065	1747.025	1697.928
425.672	18.107	1744.890	1696.074
426.686	18.151	1743.529	1694.985
427.701	17.980	1743.352	1692.904
428.715	18.139	1740.808	1691.820
429.730	18.128	1739.484	1690.218
430.745	18.240	1738.106	1689.786
431.759	18.064	1738.326	1688.053
432.774	18.153	1738.002	1688.421
433.788	18.251	1736.943	1688.160
434.803	18.259	1736.026	1687.149
435.818	18.115	1735.329	1684.836
436.832	18.032	1734.244	1682.761
437.847	17.236	1727.538	1668.207
438.861	9.799	1707.381	1575.775
439.876	1.795	1692.483	1483.707
440.890	0.466	1688.885	1467.389
441.905	0.307	1687.363	1464.339
442.920	0.216	1685.961	1462.058
443.934	0.130	1685.303	1460.469
444.949	0.213	1683.868	1459.862
445.963	0.172	1682.817	1458.381
446.978	0.216	1682.500	1458.358
447.993	0.130	1680.886	1455.944
449.007	0.125	1678.901	1454.003
450.022	0.094	1677.180	1452.044
451.036	0.142	1675.655	1451.011
452.051	1.247	1680.407	1465.685
453.066	9.080	1698.031	1557.508
454.080	16.639	1709.210	1641.523
455.095	17.936	1710.176	1654.904
456.109	18.179	1710.492	1657.373
457.124	18.125	1709.241	1655.439
458.139	18.027	1708.527	1653.595
459.153	18.019	1707.334	1652.166
460.168	18.075	1705.181	1650.428
461.182	18.076	1704.021	1649.122
462.197	18.006	1702.121	1646.405
463.212	17.865	1701.316	1644.060
464.226	17.899	1699.762	1642.697
465.241	18.082	1698.568	1643.113
466.255	18.033	1697.715	1641.619
467.270	18.055	1696.315	1640.276
468.285	17.989	1694.922	1638.102
469.299	18.017	1693.234	1636.541
470.314	18.129	1691.528	1635.775
471.328	17.974	1690.193	1632.797
472.343	18.096	1689.298	1632.910
473.358	18.131	1687.906	1631.698
474.372	18.103	1686.653	1630.032
475.387	18.079	1685.104	1628.103
476.401	18.076	1684.282	1627.088
477.416	18.088	1683.473	1626.222
478.430	18.052	1682.227	1624.485
479.445	18.135	1680.642	1623.551
480.460	18.064	1678.776	1620.880
481.474	18.139	1677.545	1620.211
482.489	18.120	1677.287	1619.587
483.503	18.260	1674.689	1618.215
484.518	18.082	1673.546	1615.222
485.533	18.183	1671.893	1614.392
486.547	18.251	1671.102	1614.082
487.562	18.209	1671.214	1613.601
488.576	18.383	1668.883	1612.803
489.591	18.257	1667.608	1610.184
490.606	18.111	1666.835	1607.863
491.620	18.176	1665.252	1606.764
492.635	18.251	1662.598	1604.713
493.649	18.360	1661.398	1604.392
494.664	18.089	1660.949	1601.217
495.679	18.074	1659.001	1598.999
496.693	17.932	1658.536	1597.032
497.708	17.983	1657.685	1596.496
498.722	18.082	1656.265	1595.872
499.737	18.221	1654.512	1595.292
500.752	18.118	1653.289	1592.952
501.766	18.088	1651.719	1590.968
502.781	18.098	1650.596	1589.793
503.795	18.242	1649.151	1589.553
504.810	18.175	1647.325	1586.980
505.825	18.172	1647.105	1586.548
506.839	18.079	1645.994	1584.420
507.854	18.156	1644.697	1583.702
508.868	18.072	1643.562	1581.634
509.883	18.227	1641.557	1580.959
510.898	18.248	1640.631	1580.072
511.912	18.237	1638.992	1578.206
512.927	18.061	1637.628	1575.071
513.941	18.132	1635.722	1573.710
514.956	18.115	1635.039	1572.701
515.971	18.268	1633.573	1572.523
516.985	18.083	1632.821	1569.899
518.000	18.018	1632.757	1569.047
519.014	18.121	1631.209	1568.327
520.029	18.169	1629.471	1566.909
521.043	18.254	1628.043	1566.129
522.058	18.203	1627.309	1564.762
523.073	18.083	1626.287	1562.489
524.087	18.269	1625.108	1562.881
525.102	18.388	1623.145	1561.899
526.116	18.324	1622.014	1560.034
527.131	18.141	1621.614	1557.793
528.146	18.334	1620.435	1558.231
529.160	18.259	1618.888	1555.872
530.175	18.106	1618.710	1554.115
531.189	18.101	1617.673	1552.892
532.204	18.267	1615.385	1552.022
533.219	18.270	1614.514	1551.031
534.233	18.174	1613.575	1549.064
535.248	18.258	1612.240	1548.365
536.262	18.326	1611.433	1548.025
537.277	18.444	1610.262	1547.782
538.292	18.384	1608.577	1545.429
539.306	18.342	1606.728	1543.094
540.321	18.238	1606.172	1541.433
541.335	18.265	1605.234	1540.590
542.350	18.374	1603.118	1539.362
543.365	18.427	1601.351	1537.956
544.379	18.353	1600.507	1536.293
545.394	18.385	1598.805	1534.769
546.408	18.143	1597.982	1531.615
547.423	18.138	1596.973	1530.422
548.438	18.124	1595.858	1529.044
549.452	18.370	1594.237	1529.511
550.467	18.136	1593.452	1526.476
551.481	18.219	1592.206	1525.844
552.496	18.243	1591.569	1525.265
553.511	18.257	1590.656	1524.337
554.525	18.377	1589.350	1523.973
555.540	18.356	1588.953	1523.221
556.554	18.281	1587.739	1521.210
557.569	18.229	1586.595	1519.468
558.583	18.356	1584.282	1518.196
559.598	18.248	1582.446	1515.299
560.613	18.174	1582.023	1514.053
561.627	18.284	1580.608	1513.496
562.642	18.311	1579.100	1512.111
563.656	18.456	1578.003	1512.162
564.671	18.381	1577.259	1510.604
565.686	18.248	1576.298	1508.331
566.700	18.280	1574.495	1506.706
567.715	18.206	1572.463	1503.926
568.729	18.159	1571.802	1502.696
569.744	18.202	1570.114	1501.287
570.759	18.378	1568.609	1501.211
571.773	18.241	1568.020	1499.266
572.788	18.227	1567.101	1498.085
573.802	18.228	1565.161	1496.063
574.817	18.286	1564.057	1495.337
575.832	18.148	1562.714	1492.660
576.846	18.384	1561.485	1493.381
577.861	18.379	1560.010	1491.740
578.875	18.290	1560.168	1490.940
579.890	18.441	1558.731	1490.705
580.905	18.322	1557.593	1488.401
581.919	18.427	1556.979	1488.549
582.934	18.513	1555.950	1488.139
583.948	18.431	1554.974	1486.309
584.963	18.337	1553.920	1484.312
585.978	18.284	1552.230	1482.054
586.992	18.295	1551.236	1481.025
588.007	18.549	1550.626	1482.476
589.021	18.327	1550.206	1479.965
590.036	18.357	1548.414	1478.341
591.051	18.239	1547.490	1476.252
592.065	18.452	1545.117	1475.657
593.080	18.380	1543.860	1473.660
594.094	18.550	1541.654	1472.846
595.109	18.393	1540.211	1469.934
596.123	18.361	1539.291	1468.607
597.138	18.328	1538.272	1467.172
598.153	18.407	1537.628	1467.060
599.167	18.294	1536.174	1464.529
600.182	18.437	1535.038	1464.496
601.196	18.419	1534.175	1463.344
602.211	18.411	1532.751	1461.742
603.226	18.427	1531.381	1460.398
604.240	18.473	1529.787	1459.102
605.255	18.492	1528.710	1458.063
606.269	18.410	1528.619	1457.100
607.284	18.358	1527.889	1455.784
608.299	18.427	1525.743	1454.149
609.313	18.412	1524.393	1452.560
610.328	18.410	1523.325	1451.353
611.342	18.349	1522.749	1450.113
612.357	18.442	1521.291	1449.342
613.372	18.357	1520.575	1447.765
614.386	18.365	1519.183	1446.334
615.401	18.387	1518.989	1446.159
616.415	18.350	1517.921	1444.655
617.430	18.479	1517.066	1444.766
618.445	18.492	1515.687	1443.390
619.459	18.389	1514.393	1441.114
620.474	18.316	1512.850	1438.854
621.488	18.180	1511.715	1436.457
622.503	18.329	1510.228	1436.123
623.518	18.491	1508.547	1435.722
624.532	18.355	1508.263	1434.137
625.547	18.291	1507.595	1432.787
626.561	18.350	1506.749	1432.309
627.576	18.483	1505.488	1432.056
628.591	18.333	1504.096	1429.302
629.605	18.332	1503.068	1428.149
630.620	18.408	1501.433	1427.054
631.634	18.404	1500.389	1425.859
632.649	18.364	1499.782	1424.776
633.663	18.389	1498.204	1423.318
634.678	18.506	1496.875	1422.859
635.693	18.499	1495.145	1420.988
636.707	18.603	1493.739	1420.343
637.722	18.500	1492.917	1418.541
638.736	18.508	1492.297	1417.843
639.751	18.567	1491.192	1417.117
640.766	18.630	1489.936	1416.275
641.780	18.497	1488.436	1413.578
642.795	18.529	1487.749	1413.018
643.809	18.595	1487.563	1413.225
644.824	18.569	1486.473	1411.800
645.839	18.565	1484.987	1410.187
646.853	18.704	1484.121	1410.345
647.868	18.597	1482.613	1407.862
648.882	18.683	1480.931	1406.803
649.897	18.632	1479.890	1405.230
650.912	18.516	1478.508	1402.795
651.926	18.575	1477.365	1402.024
652.941	18.614	1476.166	1401.039
653.955	18.525	1474.302	1398.370
654.970	18.474	1473.170	1396.714
655.985	18.547	1471.740	1395.792
656.999	18.584	1471.270	1395.482
658.014	18.576	1470.013	1394.052
659.028	18.502	1469.344	1392.651
660.043	18.478	1468.796	1391.766
661.058	18.670	1466.758	1391.238
662.072	18.612	1466.005	1389.880
663.087	18.665	1464.638	1388.852
664.101	18.574	1463.657	1387.012
665.116	18.673	1462.926	1386.956
666.131	18.726	1461.707	1386.063
667.145	18.561	1459.935	1382.884
668.160	18.647	1459.177	1382.696
669.174	18.694	1458.353	1382.127
670.189	18.531	1457.058	1379.417
671.204	18.563	1455.717	1378.243
672.218	18.557	1454.901	1377.255
673.233	18.553	1454.170	1376.365
674.247	18.547	1452.579	1374.647
675.262	18.683	1451.582	1374.640
676.276	18.617	1451.321	1373.695
677.291	18.495	1450.711	1371.974
678.306	18.648	1448.364	1370.812
679.320	18.547	1447.386	1368.914
680.335	18.602	1447.097	1368.921
681.349	18.573	1446.282	1367.753
682.364	18.690	1445.237	1367.539
683.379	18.599	1443.672	1365.168
684.393	18.582	1442.526	1363.778
685.408	18.612	1441.174	1362.576
686.422	18.645	1440.309	1361.861
687.437	18.507	1440.264	1360.556
688.452	18.697	1438.794	1360.519
689.466	18.605	1436.890	1357.821
690.481	18.454	1435.713	1355.348
691.495	18.427	1435.469	1354.742
692.510	18.334	1434.631	1353.047
693.525	18.304	1432.893	1351.013
694.539	18.374	1431.603	1350.188
695.554	18.448	1430.937	1349.983
696.568	18.459	1430.370	1349.375
697.583	18.557	1429.007	1348.699
698.598	18.642	1428.101	1348.351
699.612	18.488	1427.307	1346.225
700.627	18.649	1425.746	1345.865
701.641	18.677	1424.344	1344.598
702.656	18.572	1423.919	1343.216
703.671	18.720	1423.169	1343.507
704.685	18.751	1422.653	1343.102
705.700	18.719	1420.475	1340.634
706.714	18.717	1419.298	1339.350
707.729	18.756	1418.141	1338.403
708.744	18.611	1417.215	1336.234
709.758	18.523	1415.659	1333.914
710.773	18.572	1414.831	1333.358
711.787	18.709	1414.082	1333.565
712.802	18.539	1412.427	1330.520
713.816	18.526	1411.711	1329.583
714.831	18.651	1410.903	1329.637
715.846	18.686	1409.590	1328.509
716.860	18.774	1408.016	1327.551
717.875	18.836	1406.517	1326.467
718.889	18.826	1405.732	1325.485
719.904	18.728	1405.067	1323.937
720.919	18.725	1404.140	1322.884
721.933	18.768	1403.047	1322.033
722.948	18.782	1402.539	1321.500
723.962	18.806	1400.825	1319.917
724.977	18.801	1399.545	1318.509
725.992	18.740	1398.996	1317.364
727.006	18.729	1397.632	1315.843
728.021	18.876	1396.136	1315.408
729.035	18.783	1394.830	1313.305
730.050	18.758	1394.008	1312.176
731.065	18.829	1392.709	1311.341
732.079	18.748	1392.203	1310.085
733.094	18.847	1390.555	1309.144
734.108	18.837	1389.311	1307.732
735.123	18.723	1388.253	1305.714
736.138	18.586	1387.114	1303.435
737.152	18.776	1386.221	1303.896
738.167	18.753	1385.533	1302.916
739.181	18.881	1384.498	1302.760
740.196	18.772	1384.341	1301.625
741.211	18.627	1383.403	1299.487
742.225	18.728	1381.878	1298.662
743.240	18.819	1379.684	1297.138
744.254	18.760	1379.176	1296.058
745.269	18.632	1378.402	1294.207
746.284	18.697	1377.719	1293.901
747.298	18.715	1376.588	1292.821
748.313	18.681	1374.560	1290.505
749.327	18.442	1373.953	1287.975
750.342	18.606	1373.670	1288.789
751.356	18.429	1372.541	1286.245
752.371	18.519	1370.612	1284.957
753.386	18.587	1370.070	1284.809
754.400	18.656	1369.045	1284.212
755.415	18.908	1368.049	1285.018
756.429	18.813	1367.133	1283.291
757.444	18.792	1366.007	1281.926
758.459	18.712	1365.390	1280.591
759.473	18.791	1364.227	1279.943
760.488	18.857	1363.149	1279.267
761.502	18.975	1362.491	1279.383
762.517	18.759	1361.193	1276.392
763.532	18.866	1358.944	1274.931
764.546	18.919	1357.904	1274.200
765.561	18.688	1357.720	1272.149
766.575	18.686	1356.719	1271.050
767.590	18.582	1355.361	1268.851
768.605	18.650	1354.327	1268.236
769.619	18.824	1352.606	1267.764
770.634	18.788	1352.080	1266.849
771.648	18.941	1351.428	1267.225
772.663	18.822	1350.573	1265.385
773.678	18.811	1349.948	1264.571
774.692	18.732	1349.229	1263.163
775.707	18.800	1349.262	1263.544
776.721	18.919	1348.109	1263.190
777.736	18.959	1346.245	1261.585
778.751	18.909	1345.158	1260.051
779.765	18.695	1344.239	1257.458
780.780	18.757	1343.697	1257.259
781.794	18.864	1342.428	1256.706
782.809	18.847	1340.850	1254.954
783.824	18.769	1339.493	1252.960
784.838	18.537	1338.340	1250.032
785.853	18.376	1337.600	1248.017
786.867	18.347	1337.763	1247.809
787.882	18.561	1336.546	1248.090
788.897	18.498	1336.066	1247.025
789.911	18.608	1334.894	1246.587
790.926	18.686	1333.003	1245.242
791.940	18.702	1332.229	1244.490
792.955	18.850	1330.420	1243.723
793.969	18.765	1329.520	1242.116
794.984	18.760	1329.375	1241.800
795.999	18.688	1328.506	1240.310
797.013	18.812	1326.822	1239.495
798.028	18.550	1326.277	1236.933
799.042	18.893	1325.117	1238.186
800.057	18.944	1323.552	1236.948
801.072	18.933	1322.072	1235.340
802.086	18.824	1321.452	1233.821
803.101	18.756	1320.621	1232.412
804.115	18.856	1319.360	1231.807
805.130	18.783	1318.051	1229.913
806.145	18.988	1317.112	1230.360
807.159	18.957	1314.980	1227.999
808.174	19.040	1313.543	1227.108
809.188	18.902	1313.163	1225.618
810.203	18.735	1311.790	1222.994
811.218	18.736	1310.500	1221.652
812.232	18.679	1309.052	1219.749
813.247	18.832	1308.313	1220.003
814.261	18.596	1308.338	1218.197
815.276	18.967	1306.494	1218.975
816.291	18.787	1305.845	1216.947
817.305	18.806	1305.421	1216.536
818.320	18.929	1303.736	1215.698
819.334	18.893	1302.608	1214.246
820.349	18.889	1301.150	1212.714
821.364	18.909	1299.526	1211.197
822.378	18.705	1298.926	1209.048
823.393	18.851	1296.560	1207.730
824.407	18.835	1295.649	1206.627
825.422	18.814	1295.349	1206.056
826.437	18.740	1293.861	1204.000
827.451	18.832	1291.836	1202.622
828.466	18.530	1291.117	1199.683
829.480	18.607	1288.971	1198.089
830.495	18.638	1287.695	1196.977
831.509	18.717	1286.845	1196.591
832.524	18.611	1286.469	1195.360
833.539	18.735	1285.579	1195.260
834.553	18.854	1284.000	1194.474
835.568	18.889	1283.053	1193.699
836.582	18.806	1282.693	1192.638
837.597	19.034	1280.325	1191.887
838.612	19.030	1278.937	1190.421
839.626	18.946	1278.007	1188.830
840.641	18.825	1277.685	1187.547
841.655	18.812	1276.795	1186.489
842.670	18.824	1275.446	1185.173
843.685	19.034	1273.871	1185.022
844.699	18.904	1272.719	1182.915
845.714	18.813	1272.213	1181.669
846.728	18.758	1271.807	1180.772
847.743	18.870	1270.472	1180.164
848.758	18.820	1269.594	1178.862
849.772	18.889	1267.729	1177.467
850.787	19.012	1266.198	1176.745
851.801	19.019	1265.136	1175.670
852.816	18.877	1263.906	1173.410
853.831	18.902	1261.966	1171.637
854.845	18.844	1260.501	1169.744
855.860	18.723	1259.543	1167.885
856.874	18.707	1258.332	1166.517
857.889	18.671	1257.309	1165.183
858.904	18.538	1255.600	1162.550
859.918	18.580	1254.042	1161.255
860.933	18.434	1253.304	1159.443
861.947	18.749	1252.483	1160.680
862.962	18.540	1251.018	1157.768
863.977	18.735	1250.077	1158.080
864.991	18.556	1250.104	1156.753
866.006	18.738	1249.416	1157.208
867.020	18.816	1247.689	1156.001
868.035	18.793	1247.009	1155.078
869.049	18.934	1245.755	1154.729
870.064	19.055	1244.438	1154.188
871.079	18.990	1243.743	1152.966
872.093	19.022	1243.142	1152.485
873.108	19.020	1242.593	1151.823
874.122	19.012	1241.286	1150.421
875.137	18.829	1240.556	1148.381
876.152	18.924	1239.171	1147.593
877.166	18.918	1237.682	1146.040
878.181	18.943	1236.918	1145.365
879.195	19.068	1236.794	1145.948
880.210	18.881	1235.653	1143.500
881.225	18.953	1234.298	1142.595
882.239	19.093	1233.288	1142.456
883.254	18.976	1232.502	1140.808
884.268	18.994	1232.110	1140.428
885.283	18.972	1230.635	1138.783
886.298	18.936	1228.458	1136.395
887.312	18.955	1228.290	1136.228
888.327	19.074	1226.808	1135.507
889.341	19.194	1224.851	1134.358
890.356	19.013	1224.494	1132.691
891.371	18.743	1224.808	1131.057
892.385	18.921	1223.807	1131.180
893.400	18.977	1222.663	1130.354
894.414	18.818	1221.515	1128.108
895.429	18.801	1219.706	1126.190
896.444	18.665	1218.653	1124.191
897.458	18.551	1216.880	1121.670
898.473	18.635	1216.504	1121.742
899.487	18.841	1215.971	1122.466
900.502	19.041	1214.288	1122.087
901.517	18.955	1213.868	1121.003
902.531	19.088	1213.264	1121.183
903.546	19.147	1212.280	1120.526
904.560	19.099	1212.304	1120.101
905.575	18.956	1211.710	1118.481
906.589	19.174	1209.754	1117.967
907.604	19.189	1209.233	1117.450
