DTS Sentinel unit serial number:	SN409020Multiplexer serial number:	ORYXHardware model number:	OX4-SRSoftware version number:	ORYX F/W v3.00 Oryx Data Collector v3.7.2.0data status	okinstallation	HaddamTimeLapsedifferential loss correction	single-endedforward channel	channel 3reverse channel	N/Adate	2011/06/21time	19:56:16forward acquisition time	30.00reverse acquisition time	0.00gamma	498.7831k internal	0.1789k external	0.1789temperature offset calibration	1.0074default loss term (dB/km)	0.3790temperature slope calibration	1.3530multiplexer offset coefficient	1.0000multiplexer slope coefficient	1.0000fibre end	0.00T internal ref (°C)	32.72T ext. ref 1 (°C)	24.25T ext. ref 2 (°C)	0.02length (m)	temperature (°C)	Stokes	anti-Stokes-747.200	800.000	-0.089	-0.335
-746.185	800.000	-0.088	-0.327
-745.171	-44.171	-0.384	-0.250
-744.156	-5.651	-0.210	-0.187
-743.142	6.081	-0.196	-0.189
-742.127	-200.000	0.023	0.153
-741.112	2.402	0.267	-0.251
-740.098	377.339	0.160	0.427
-739.083	290.005	0.249	-0.589
-738.069	-200.000	0.039	0.487
-737.054	78.044	0.309	-0.429
-736.039	752.197	-0.092	-0.326
-735.025	-81.319	0.371	0.158
-734.010	-36.859	0.106	-0.074
-732.996	383.111	0.110	-0.296
-731.981	-127.250	0.213	0.040
-730.966	115.286	-0.194	-0.308
-729.952	-83.184	-0.119	-0.050
-728.937	-93.539	0.619	-0.221
-727.923	-71.386	-0.656	0.318
-726.908	-53.977	-0.272	0.160
-725.894	800.000	-0.026	0.102
-724.879	-102.547	0.579	-0.179
-723.864	139.186	0.048	0.082
-722.850	355.174	0.105	-0.274
-721.835	43.281	-0.355	0.422
-720.821	-116.975	0.537	-0.127
-719.806	23.633	0.298	0.318
-718.791	611.154	0.143	-0.468
-717.777	-115.398	-0.323	-0.079
-716.762	-33.753	0.195	0.139
-715.748	29.084	0.331	0.365
-714.733	-9.358	0.333	0.288
-713.718	98.776	-0.307	-0.461
-712.704	-179.878	-0.205	-0.006
-711.689	-200.000	-0.031	-0.275
-710.675	800.000	-0.073	-0.374
-709.660	-138.635	0.316	-0.044
-708.645	-33.869	0.227	0.162
-707.631	-200.000	-0.011	-0.317
-706.616	-116.293	-0.235	-0.056
-705.602	326.774	-0.132	-0.331
-704.587	-148.833	0.365	0.038
-703.572	-125.621	-0.127	0.025
-702.558	-110.181	-0.292	0.079
-701.543	-183.156	0.350	-0.008
-700.529	-79.806	-0.246	-0.107
-699.514	94.914	0.044	0.065
-698.499	178.906	0.201	-0.382
-697.485	655.626	-0.090	-0.302
-696.470	-200.000	0.010	-0.247
-695.456	800.000	-0.052	0.248
-694.441	62.426	0.143	0.186
-693.426	-25.938	0.401	0.306
-692.412	-143.201	0.211	0.026
-691.397	-33.371	0.341	0.244
-690.383	-200.000	0.011	0.130
-689.368	-73.632	0.233	-0.110
-688.354	155.530	0.137	-0.245
-687.339	-72.350	0.287	-0.137
-686.324	-124.121	-0.130	-0.026
-685.310	800.000	0.019	-0.075
-684.295	1.763	0.106	0.099
-683.281	-91.457	-0.465	-0.171
-682.266	-167.380	-0.321	0.016
-681.251	29.505	-0.542	0.597
-680.237	-116.145	0.435	0.104
-679.222	-77.273	0.121	0.054
-678.208	31.025	-0.371	0.412
-677.193	800.000	-0.167	0.667
-676.178	-166.147	0.432	0.023
-675.164	-134.449	0.363	0.057
-674.149	47.585	-0.246	-0.298
-673.135	-200.000	0.028	-0.238
-672.120	227.310	0.166	-0.350
-671.105	-18.361	0.351	-0.284
-670.091	-200.000	0.008	0.221
-669.076	-136.837	0.295	0.044
-668.062	-81.803	-0.087	0.037
-667.047	-24.373	-0.327	-0.253
-666.032	69.771	-0.176	-0.235
-665.018	254.632	0.081	-0.181
-664.003	50.123	0.119	-0.146
-662.989	-200.000	-0.036	0.233
-661.974	800.000	-0.027	-0.134
-660.959	-137.462	-0.096	0.014
-659.945	5.057	0.107	-0.102
-658.930	93.078	-0.222	0.325
-657.916	-39.764	0.385	-0.260
-656.901	-80.203	0.300	-0.130
-655.886	-20.864	-0.295	0.234
-654.872	800.000	-0.059	-0.263
-653.857	98.115	0.016	-0.024
-652.843	113.529	0.144	-0.227
-651.828	-200.000	0.019	-0.362
-650.814	-88.966	0.196	0.075
-649.799	-122.141	0.424	-0.089
-648.784	800.000	0.116	0.636
-647.770	216.511	0.159	-0.328
-646.755	33.696	0.140	-0.157
-645.741	342.721	-0.260	-0.661
-644.726	-200.000	-0.003	0.274
-643.711	-200.000	0.021	0.258
-642.697	578.832	0.155	-0.495
-641.682	6.124	-0.333	0.320
-640.668	96.362	0.071	0.105
-639.653	-56.895	-0.372	-0.212
-638.638	365.047	-0.105	0.276
-637.624	-200.000	0.009	-0.258
-636.609	278.417	0.146	0.337
-635.595	-8.611	-0.459	0.399
-634.580	-80.859	-0.435	-0.186
-633.565	39.641	-0.124	0.144
-632.551	-18.084	-0.159	0.129
-631.536	205.510	-0.094	-0.190
-630.522	-200.000	-0.006	-0.289
-629.507	17.852	-0.323	0.333
-628.492	-0.408	0.242	-0.223
-627.478	510.064	0.076	0.231
-626.463	-200.000	0.002	0.183
-625.449	-151.143	-0.136	-0.013
-624.434	647.054	-0.132	0.438
-623.419	-72.631	0.365	0.173
-622.405	-89.011	0.410	0.156
-621.390	-157.336	0.240	-0.018
-620.376	-137.973	0.274	-0.039
-619.361	-161.872	0.545	0.035
-618.346	-200.000	0.086	-0.508
-617.332	61.117	0.202	-0.259
-616.317	30.336	0.202	0.223
-615.303	221.788	0.227	-0.473
-614.288	-159.231	-0.392	-0.028
-613.273	678.167	0.030	0.101
-612.259	134.990	0.317	-0.535
-611.244	552.862	0.180	-0.561
-610.230	800.000	0.013	0.053
-609.215	-0.260	0.121	0.111
-608.201	168.548	0.105	0.193
-607.186	406.244	-0.126	-0.346
-606.171	-111.141	0.276	0.073
-605.157	54.082	-0.054	-0.068
-604.142	33.819	-0.090	-0.101
-603.128	-200.000	-0.037	0.322
-602.113	800.000	0.117	0.431
-601.098	-55.897	-0.383	-0.220
-600.084	55.253	-0.128	-0.160
-599.069	127.284	0.376	0.618
-598.055	362.841	0.103	0.267
-597.040	-200.000	-0.006	-0.224
-596.025	-173.956	-0.298	-0.011
-595.011	304.415	-0.101	0.244
-593.996	643.290	-0.159	-0.527
-592.982	-200.000	0.023	-0.244
-591.967	65.882	-0.305	-0.400
-590.952	586.868	0.037	-0.119
-589.938	240.310	-0.022	-0.048
-588.923	-133.399	-0.425	0.068
-587.909	-77.852	-0.218	-0.097
-586.894	-94.062	0.197	0.069
-585.879	-165.641	-0.190	-0.010
-584.865	-75.176	-0.095	-0.043
-583.850	48.015	0.242	-0.292
-582.836	272.515	-0.191	-0.436
-581.821	-173.545	0.322	-0.012
-580.806	-184.467	-0.504	-0.010
-579.792	49.997	-0.170	-0.207
-578.777	-200.000	0.026	-0.352
-577.763	-156.025	-0.576	0.046
-576.748	-200.000	-0.030	-0.172
-575.733	-139.848	0.215	-0.029
-574.719	-74.592	-0.115	0.053
-573.704	321.805	0.121	-0.299
-572.690	499.241	-0.132	0.396
-571.675	-117.049	0.256	0.060
-570.661	354.857	-0.080	-0.206
-569.646	-79.385	0.064	-0.028
-568.631	137.923	0.417	-0.706
-567.617	256.720	-0.186	-0.414
-566.602	-27.422	0.607	0.455
-565.588	-92.525	-0.447	-0.161
-564.573	-200.000	-0.029	0.196
-563.558	-200.000	0.073	0.499
-562.544	151.711	0.147	0.259
-561.529	234.881	0.177	0.378
-560.515	-79.825	-0.130	0.056
-559.500	679.662	-0.136	-0.459
-558.485	-92.806	0.385	0.138
-557.471	-85.245	-0.336	-0.135
-556.456	-107.609	0.312	-0.087
-555.442	-27.318	-0.220	-0.165
-554.427	-200.000	-0.014	0.356
-553.412	47.948	0.064	0.077
-552.398	-104.519	-0.363	-0.108
-551.383	-113.491	-0.293	-0.074
-550.369	155.739	-0.235	0.419
-549.354	-129.269	0.168	0.030
-548.339	-200.000	-0.007	0.364
-547.325	-72.167	-0.291	0.139
-546.310	-127.593	-0.479	0.089
-545.296	800.000	0.024	-0.093
-544.281	289.968	-0.042	-0.099
-543.266	-200.000	-0.008	0.074
-542.252	-109.859	0.147	-0.040
-541.237	299.983	-0.139	-0.332
-540.223	302.093	0.110	0.263
-539.208	-125.748	-0.201	0.039
-538.193	-90.310	0.079	0.029
-537.179	52.689	-0.055	0.068
-536.164	800.000	0.022	0.111
-535.150	-55.445	0.144	-0.083
-534.135	66.402	-0.181	-0.237
-533.121	-85.971	-0.417	-0.165
-532.106	-83.726	-0.543	-0.222
-531.091	-15.125	0.082	-0.068
-530.077	44.055	-0.178	0.211
-529.062	-107.334	-0.452	-0.127
-528.048	-200.000	0.027	-0.418
-527.033	-200.000	-0.034	0.288
-526.018	28.195	0.210	0.228
-525.004	270.643	-0.115	-0.262
-523.989	88.120	0.187	0.268
-522.975	-122.697	-0.292	0.060
-521.960	-200.000	0.011	0.098
-520.945	-52.796	0.223	0.132
-519.931	-193.542	-0.245	-0.003
-518.916	309.649	-0.113	0.274
-517.902	-184.045	-0.343	0.007
-516.887	-3.186	0.041	0.036
-515.872	46.062	-0.085	-0.101
-514.858	244.392	0.144	0.312
-513.843	-77.396	-0.377	0.168
-512.829	-0.769	-0.374	-0.342
-511.814	-200.000	-0.001	0.259
-510.799	-147.479	0.446	0.048
-509.785	-134.888	0.317	0.049
-508.770	-9.601	0.065	0.056
-507.756	-185.502	0.402	0.008
-506.741	355.357	0.029	-0.076
-505.726	800.000	0.041	-0.227
-504.712	42.952	0.091	0.107
-503.697	-39.987	0.276	-0.185
-502.683	-78.053	-0.160	-0.071
-501.668	390.988	0.124	0.334
-500.653	-200.000	0.001	0.619
-499.639	-200.000	0.056	-0.466
-498.624	58.910	0.199	-0.252
-497.610	-53.480	0.233	0.137
-496.595	-16.226	0.290	0.237
-495.581	95.454	0.347	0.510
-494.566	-200.000	-0.002	0.068
-493.551	-200.000	-0.044	-0.347
-492.537	-68.099	0.229	-0.114
-491.522	24.773	0.260	-0.277
-490.508	172.989	-0.113	0.211
-489.493	204.999	0.168	-0.337
-488.478	-190.281	-0.492	0.007
-487.464	554.591	-0.128	0.400
-486.449	-200.000	-0.034	0.430
-485.435	96.025	-0.262	0.386
-484.420	9.339	0.242	-0.235
-483.405	109.520	0.186	0.288
-482.391	-87.058	0.362	-0.141
-481.376	-139.403	0.056	-0.008
-480.362	61.276	0.331	-0.424
-479.347	-70.539	-0.685	0.332
-478.332	-19.085	0.206	0.164
-477.318	-200.000	-0.012	0.080
-476.303	-169.176	0.134	0.006
-475.289	800.000	0.049	0.211
-474.274	9.054	0.182	0.176
-473.259	-12.395	-0.177	-0.148
-472.245	-92.156	-0.512	-0.185
-471.230	-80.621	-0.173	-0.074
-470.216	296.976	0.037	0.089
-469.201	-200.000	0.033	0.204
-468.186	94.785	-0.216	0.316
-467.172	-120.580	0.324	-0.070
-466.157	89.737	-0.166	0.238
-465.143	-33.342	-0.371	0.264
-464.128	133.963	-0.145	0.242
-463.113	158.894	0.217	-0.390
-462.099	-105.086	0.270	-0.079
-461.084	-134.126	-0.245	0.039
-460.070	-68.263	-0.122	-0.061
-459.055	-16.740	0.265	-0.215
-458.040	800.000	-0.075	0.371
-457.026	30.596	-0.055	-0.061
-456.011	238.657	-0.158	-0.339
-454.997	-200.000	-0.055	0.321
-453.982	-16.824	0.240	0.194
-452.968	-158.525	-0.155	-0.011
-451.953	-36.886	-0.398	-0.274
-450.938	33.210	0.127	-0.142
-449.924	247.196	0.053	0.115
-448.909	-59.606	0.230	-0.126
-447.895	86.323	0.282	-0.400
-446.880	-123.080	0.081	0.017
-445.865	-83.657	0.245	0.100
-444.851	-200.000	0.026	-0.357
-443.836	208.754	0.168	0.338
-442.822	49.032	0.270	-0.326
-441.807	568.217	0.057	-0.179
-440.792	-103.732	0.269	0.080
-439.778	28.787	0.373	0.406
-438.763	9.308	-0.173	0.168
-437.749	-100.640	-0.064	0.020
-436.734	27.208	0.144	0.155
-435.719	309.528	-0.224	0.541
-434.705	800.000	-0.033	0.138
-433.690	800.000	0.034	0.148
-432.676	504.622	-0.037	-0.111
-431.661	536.138	-0.093	0.284
-430.646	-200.000	0.005	-0.368
-429.632	-44.692	-0.038	0.024
-428.617	-138.647	0.548	-0.076
-427.603	-33.058	0.116	0.082
-426.588	87.291	0.132	0.188
-425.573	551.305	-0.071	0.219
-424.559	-134.242	-0.804	0.126
-423.544	-183.816	0.175	-0.004
-422.530	-130.565	-0.244	0.042
-421.515	93.058	0.100	0.146
-420.500	479.920	0.089	-0.259
-419.486	-133.401	-0.505	0.081
-418.471	-99.857	-0.026	0.008
-417.457	-200.000	-0.027	-0.390
-416.442	-157.411	0.097	0.007
-415.428	-148.891	0.587	0.060
-414.413	-200.000	0.087	0.569
-413.398	-10.518	0.251	-0.213
-412.384	-54.791	0.286	0.165
-411.369	87.507	-0.158	0.224
-410.355	267.023	-0.184	-0.415
-409.340	9.878	0.030	-0.029
-408.325	464.567	-0.019	-0.055
-407.311	-129.135	0.282	0.050
-406.296	151.822	0.258	0.453
-405.282	-8.238	-0.197	0.170
-404.267	-125.264	0.107	-0.021
-403.252	-169.584	-0.160	-0.007
-402.238	50.336	-0.105	-0.127
-401.223	-146.355	0.634	-0.070
-400.209	272.345	0.073	-0.166
-399.194	29.196	0.113	0.123
-398.179	-88.595	0.127	0.048
-397.165	800.000	-0.113	-0.588
-396.150	-70.297	0.131	-0.064
-395.136	-70.688	0.122	0.059
-394.121	-200.000	0.001	-0.127
-393.106	-200.000	0.007	0.186
-392.092	-170.974	0.429	0.018
-391.077	20.468	0.412	-0.427
-390.063	15.471	0.147	-0.148
-389.048	19.793	0.218	0.225
-388.033	-77.775	0.046	0.020
-387.019	399.304	0.159	-0.429
-386.004	-114.102	0.506	-0.125
-384.990	288.682	0.088	-0.206
-383.975	-29.427	0.425	-0.311
-382.960	-168.711	0.287	0.014
-381.946	-72.592	0.458	-0.216
-380.931	-32.799	-0.093	-0.066
-379.917	-200.000	-0.015	0.261
-378.902	-172.166	-0.620	-0.025
-377.888	-26.531	0.305	0.229
-376.873	248.273	-0.045	0.097
-375.858	35.678	-0.153	0.173
-374.844	-200.000	-0.006	-0.410
-373.829	206.356	-0.151	0.302
-372.815	-200.000	-0.054	-0.402
-371.800	-200.000	0.014	-0.143
-370.785	-54.113	-0.300	0.174
-369.771	-121.879	0.207	-0.043
-368.756	-130.288	0.344	0.059
-367.742	-71.745	0.116	-0.055
-366.727	-200.000	0.025	0.221
-365.712	152.480	-0.111	-0.195
-364.698	532.407	0.170	-0.518
-363.683	172.847	0.084	-0.156
-362.669	-59.282	0.430	0.236
-361.654	258.533	0.112	0.248
-360.639	126.817	-0.285	0.463
-359.625	179.621	0.068	0.127
-358.610	70.500	0.157	0.208
-357.596	268.138	0.147	-0.332
-356.581	-130.721	-0.160	0.027
-355.566	-165.726	0.387	0.021
-354.552	-9.986	0.064	-0.054
-353.537	20.970	-0.080	0.083
-352.523	-115.054	0.246	0.059
-351.508	-131.394	0.355	0.059
-350.493	-149.230	-0.353	-0.036
-349.479	46.645	0.281	-0.334
-348.464	696.870	0.020	-0.068
-347.450	161.748	0.209	-0.375
-346.435	-45.559	0.333	-0.210
-345.420	-137.924	-0.268	0.038
-344.406	800.000	-0.132	0.570
-343.391	70.712	-0.187	0.248
-342.377	-68.959	-0.447	0.220
-341.362	-147.450	-0.337	-0.036
-340.348	-22.909	-0.319	0.246
-339.333	-200.000	0.037	0.515
-338.318	-200.000	-0.024	0.832
-337.304	-41.983	-0.446	0.291
-336.289	800.000	-0.047	-0.244
-335.275	74.302	0.201	-0.270
-334.260	23.962	-0.169	-0.178
-333.245	800.000	0.049	-0.234
-332.231	-78.793	0.412	0.179
-331.216	-200.000	0.041	-0.387
-330.202	152.215	0.188	0.328
-329.187	190.927	-0.115	0.222
-328.172	-99.989	-0.404	-0.128
-327.158	-29.558	-0.528	-0.385
-326.143	-33.894	-0.189	0.133
-325.129	-171.034	-0.505	-0.022
-324.114	-138.276	-0.770	0.108
-323.099	-10.180	-0.264	-0.224
-322.085	163.269	0.070	0.126
-321.070	-70.717	-0.320	-0.154
-320.056	187.250	-0.134	-0.256
-319.041	73.897	-0.137	0.184
-318.026	-155.771	-0.608	-0.049
-317.012	-22.380	-0.457	-0.353
-315.997	-86.279	-0.408	-0.160
-314.983	-143.805	0.409	0.049
-313.968	-192.510	-0.174	0.002
-312.953	-52.163	-0.154	-0.091
-311.939	-179.749	-0.336	0.009
-310.924	-133.682	-0.108	-0.017
-309.910	5.506	0.355	-0.335
-308.895	-16.488	-0.023	-0.018
-307.880	362.715	-0.152	0.391
-306.866	800.000	-0.069	0.272
-305.851	106.756	0.242	-0.367
-304.837	165.056	-0.138	-0.250
-303.822	-104.364	0.322	0.095
-302.807	-112.276	-0.579	-0.147
-301.793	-23.177	0.149	-0.114
-300.778	-10.352	0.501	0.424
-299.764	-200.000	0.006	0.330
-298.749	-4.922	-0.091	-0.080
-297.735	76.618	0.259	-0.352
-296.720	800.000	0.034	0.155
-295.705	199.631	-0.015	-0.029
-294.691	-78.514	-0.290	-0.126
-293.676	-54.591	-0.199	0.115
-292.662	55.464	0.075	0.093
-291.647	-13.798	-0.126	0.104
-290.632	-9.734	-0.253	0.215
-289.618	-18.461	-0.271	-0.216
-288.603	4.026	0.305	0.285
-287.589	-141.068	0.053	0.007
-286.574	-67.452	0.168	-0.084
-285.559	-116.094	-0.031	-0.007
-284.545	-113.143	0.045	-0.011
-283.530	772.572	0.195	0.683
-282.516	-96.820	-0.264	0.088
-281.501	101.388	-0.022	-0.033
-280.486	220.661	0.248	-0.509
-279.472	-8.499	0.289	0.248
-278.457	-186.023	-0.081	-0.001
-277.443	-170.853	-0.427	-0.018
-276.428	6.592	-0.378	-0.358
-275.413	66.337	0.261	0.339
-274.399	-106.038	-0.305	0.087
-273.384	269.714	-0.203	0.457
-272.370	-104.862	0.595	0.173
-271.355	-160.751	0.508	-0.034
-270.340	-45.397	0.267	-0.168
-269.326	-99.913	-0.347	0.110
-268.311	86.025	0.162	-0.228
-267.297	281.288	0.213	-0.489
-266.282	5.552	-0.168	0.159
-265.267	24.131	-0.183	0.192
-264.253	-116.148	-0.679	-0.160
-263.238	5.203	0.047	0.044
-262.224	-141.224	0.405	-0.052
-261.209	-87.580	0.213	0.082
-260.195	-200.000	0.030	0.209
-259.180	-168.353	0.432	-0.021
-258.165	-133.019	0.192	0.031
-257.151	-40.375	0.218	0.144
-256.136	285.605	0.101	-0.233
-255.122	-50.440	-0.323	-0.194
-254.107	-200.000	-0.063	-0.361
-253.092	-112.530	0.371	0.094
-252.078	-78.030	0.168	-0.074
-251.063	329.475	0.037	-0.091
-250.049	322.289	-0.025	-0.060
-249.034	800.000	-0.049	0.223
-248.019	133.802	0.111	0.183
-247.005	-19.346	-0.026	-0.020
-245.990	-200.000	0.004	0.221
-244.976	-74.095	0.315	0.145
-243.961	-200.000	-0.013	-0.272
-242.946	-115.018	0.455	0.109
-241.932	95.137	0.244	0.355
-240.917	-116.570	-0.270	-0.063
-239.903	-94.553	-0.417	-0.144
-238.888	-137.026	0.041	0.006
-237.873	320.795	-0.064	-0.155
-236.859	67.396	0.065	0.085
-235.844	-18.598	0.233	-0.185
-234.830	-121.090	-0.119	-0.025
-233.815	-36.983	-0.223	0.152
-232.800	-121.184	-0.364	-0.077
-231.786	-25.493	0.495	0.372
-230.771	-82.822	-0.258	-0.106
-229.757	800.000	0.083	0.382
-228.742	-130.815	0.129	0.022
-227.727	800.000	0.049	0.277
-226.713	-32.386	-0.124	0.088
-225.698	-200.000	-0.058	-0.447
-224.684	221.581	-0.060	0.122
-223.669	-93.539	-0.275	-0.096
-222.655	267.793	-0.061	-0.136
-221.640	-84.668	-0.218	-0.087
-220.625	-200.000	0.021	-0.294
-219.611	-200.000	-0.041	-0.326
-218.596	88.430	0.316	-0.447
-217.582	178.729	0.176	0.328
-216.567	144.456	-0.062	-0.107
-215.552	-112.396	0.394	-0.100
-214.538	-58.538	0.373	-0.206
-213.523	800.000	-0.048	0.213
-212.509	-61.038	0.138	0.074
-211.494	381.178	-0.097	-0.254
-210.479	-94.415	0.340	-0.118
-209.465	-83.173	0.267	-0.109
-208.450	39.539	-0.145	-0.165
-207.436	-42.465	0.110	-0.071
-206.421	-31.753	-0.305	-0.217
-205.406	-129.105	-0.278	-0.049
-204.392	119.536	-0.256	0.404
-203.377	800.000	-0.112	0.483
-202.363	99.905	0.156	-0.231
-201.348	-137.694	-0.500	-0.071
-200.333	-58.344	-0.471	-0.260
-199.319	-53.840	0.179	-0.104
-198.304	105.648	-0.072	-0.108
-197.290	-200.000	0.009	-0.164
-196.275	62.095	-0.157	0.199
-195.260	35.567	-0.298	0.333
-194.246	-200.000	-0.009	-0.295
-193.231	312.418	-0.057	-0.138
-192.217	-200.000	0.035	-0.199
-191.202	-46.429	-0.290	0.181
-190.187	29.510	0.348	0.376
-189.173	154.526	-0.031	0.054
-188.158	2.358	-0.006	0.006
-187.144	-74.999	-0.081	0.037
-186.129	287.762	0.073	-0.169
-185.114	-200.000	-0.020	0.161
-184.100	-99.879	-0.234	-0.074
-183.085	493.635	0.067	0.196
-182.071	120.893	-0.254	0.402
-181.056	-107.488	-0.180	0.050
-180.042	-89.128	0.361	-0.135
-179.027	196.143	-0.186	0.360
-178.012	99.733	-0.205	-0.303
-176.998	584.253	0.073	0.230
-175.983	-53.123	-0.190	0.111
-174.969	-42.663	-0.110	-0.071
-173.954	265.556	-0.136	-0.302
-172.939	617.169	-0.191	-0.613
-171.925	-200.000	-0.010	-0.351
-170.910	-149.739	-0.099	-0.010
-169.896	-74.350	0.442	-0.202
-168.881	-114.881	0.088	0.021
-167.866	-36.393	0.169	0.115
-166.852	-117.796	-0.142	0.032
-165.837	-59.366	-0.354	0.193
-164.823	-97.510	-0.377	-0.124
-163.808	800.000	0.067	-0.334
-162.793	56.230	-0.178	0.220
-161.779	-36.209	-0.431	-0.295
-160.764	326.011	0.106	0.260
-159.750	-77.492	0.394	0.173
-158.735	-200.000	0.040	0.240
-157.720	-200.000	-0.023	-0.551
-156.706	4.847	-0.041	0.038
-155.691	-200.000	0.057	-0.350
-154.677	-127.834	0.429	0.078
-153.662	-101.122	0.340	-0.105
-152.647	-14.052	0.139	-0.114
-151.633	-134.354	0.222	0.034
-150.618	-200.000	0.005	-0.066
-149.604	173.398	0.127	0.233
-148.589	-181.544	-0.115	0.003
-147.574	-59.674	-0.107	0.058
-146.560	-43.102	0.310	-0.199
-145.545	-22.835	-0.476	-0.364
-144.531	22.937	-0.543	0.565
-143.516	-200.000	-0.009	-0.119
-142.502	199.672	0.247	0.482
-141.487	-103.775	-0.192	0.057
-140.472	-173.892	0.442	0.016
-139.458	-99.263	0.263	-0.084
-138.443	229.531	-0.181	0.376
-137.429	-85.440	-0.241	-0.095
-136.414	72.652	-0.203	0.270
-135.399	248.380	0.045	0.096
-134.385	-89.838	-0.533	-0.197
-133.370	-56.954	0.212	0.118
-132.356	-200.000	-0.046	0.292
-131.341	-121.091	-0.189	-0.040
-130.326	-179.178	1.014	0.028
-129.312	-200.000	-0.008	0.311
-128.297	49.067	-0.305	0.364
-127.283	-82.025	-0.134	-0.055
-126.268	11.374	0.072	-0.070
-125.253	134.906	-0.178	-0.294
-124.239	-46.398	-0.130	0.081
-123.224	-200.000	0.008	-0.270
-122.210	-200.000	0.031	0.383
-121.195	-7.608	-0.305	0.261
-120.180	-56.325	0.111	-0.063
-119.166	120.819	0.302	0.478
-118.151	283.140	-0.017	0.038
-117.137	50.864	-0.388	-0.467
-116.122	-149.626	0.713	0.070
-115.107	-200.000	0.010	-0.596
-114.093	-15.721	-0.331	0.267
-113.078	-44.641	0.292	0.184
-112.064	-130.775	0.329	0.055
-111.049	7.034	0.164	-0.155
-110.034	209.416	0.277	0.552
-109.020	527.479	-0.104	-0.312
-108.005	-60.441	-0.276	-0.148
-106.991	51.410	-0.194	-0.233
-105.976	186.772	0.213	0.404
-104.962	-45.638	-0.399	-0.250
-103.947	-47.375	0.341	0.210
-102.932	-155.297	0.396	-0.032
-101.918	136.204	-0.275	0.455
-100.903	-200.000	0.007	0.282
-99.889	102.607	-0.042	-0.063
-98.874	247.121	-0.075	0.162
-97.859	-149.211	0.260	0.026
-96.845	-112.424	0.087	-0.022
-95.830	72.864	0.178	0.236
-94.816	-65.886	0.087	0.044
-93.801	800.000	0.089	-0.371
-92.786	396.733	-0.121	0.322
-91.772	-172.585	0.382	-0.015
-90.757	-11.624	0.109	0.090
-89.743	800.000	-0.037	0.151
-88.728	23.488	-0.185	-0.193
-87.713	155.583	0.087	0.152
-86.699	-47.056	0.374	0.231
-85.684	-122.311	-0.418	-0.086
-84.670	-140.664	-0.196	-0.025
-83.655	273.489	0.007	0.016
-82.640	-200.000	-0.034	-0.362
-81.626	-80.827	-0.327	0.137
-80.611	-119.886	0.456	-0.099
-79.597	-200.000	-0.088	0.553
-78.582	287.738	-0.064	-0.148
-77.567	143.917	0.162	0.274
-76.553	-96.748	0.062	-0.021
-75.538	268.895	-0.094	0.211
-74.524	-200.000	-0.022	0.175
-73.509	-137.058	0.227	-0.032
-72.494	796.288	0.051	-0.179
-71.480	-200.000	-0.071	0.428
-70.465	-171.283	0.546	-0.023
-69.451	7.074	-0.016	0.015
-68.436	-122.627	0.287	0.058
-67.422	800.000	0.185	-0.675
-66.407	320.294	0.034	0.082
-65.392	-187.798	-0.285	-0.005
-64.378	-71.490	-0.298	0.140
-63.363	646.862	0.161	0.523
-62.349	302.242	-0.085	0.200
-61.334	48.926	-1.532	-1.821
-60.319	99.577	0.685	1.005
-59.305	296.432	-2.864	-6.673
-58.290	28.676	3.354	3.593
-57.276	347.561	4.107	10.283
-56.261	-200.000	16.751	253.187
-55.246	422.182	1217.188	3321.945
-54.232	57.918	2847.584	3529.590
-53.217	65.822	2727.694	3501.722
-52.203	38.924	2457.258	2778.694
-51.188	38.937	2109.182	2385.146
-50.173	35.041	1982.687	2197.170
-49.159	33.457	1971.887	2166.922
-48.144	33.110	1967.911	2158.487
-47.130	33.114	1964.609	2154.824
-46.115	33.047	1963.768	2153.051
-45.100	32.994	1962.131	2150.564
-44.086	33.121	1959.866	2149.439
-43.071	33.018	1959.800	2148.104
-42.057	32.974	1957.789	2145.321
-41.042	32.899	1956.385	2142.837
-40.027	32.930	1954.904	2141.481
-39.013	32.943	1953.171	2139.646
-37.998	32.881	1951.228	2136.731
-36.984	32.846	1950.310	2135.240
-35.969	32.933	1949.547	2135.311
-34.954	32.894	1947.722	2132.783
-33.940	32.951	1946.566	2132.083
-32.925	33.057	1945.126	2131.626
-31.911	32.862	1943.983	2128.070
-30.896	32.867	1943.186	2127.168
-29.881	32.871	1940.994	2124.734
-28.867	32.793	1940.174	2122.870
-27.852	32.708	1938.691	2120.204
-26.838	32.773	1937.277	2119.306
-25.823	32.821	1935.986	2118.353
-24.809	32.703	1935.148	2116.020
-23.794	32.723	1933.625	2114.490
-22.779	32.831	1931.805	2113.639
-21.765	32.637	1930.850	2110.325
-20.750	32.743	1928.860	2109.257
-19.736	32.689	1928.345	2108.000
-18.721	32.621	1927.367	2106.083
-17.706	32.625	1926.001	2104.558
-16.692	32.685	1924.482	2103.485
-15.677	32.532	1924.757	2101.985
-14.663	32.522	1923.169	2100.059
-13.648	32.587	1920.916	2098.238
-12.633	32.634	1919.958	2097.642
-11.619	32.599	1918.613	2095.692
-10.604	32.508	1917.720	2093.619
-9.590	32.574	1916.330	2092.752
-8.575	32.648	1914.439	2091.426
-7.560	32.492	1913.462	2088.546
-6.546	32.580	1912.277	2088.148
-5.531	32.527	1910.869	2085.932
-4.517	32.576	1909.712	2085.137
-3.502	32.591	1908.237	2083.603
-2.487	32.676	1907.428	2083.583
-1.473	32.622	1904.164	2079.334
-0.458	32.120	1882.294	2049.872
0.556	27.109	2017.743	2125.768
1.571	24.779	2230.678	2319.488
2.586	25.921	2275.076	2380.540
3.600	26.012	2278.085	2384.610
4.615	26.119	2276.931	2384.540
5.629	25.869	2275.415	2379.354
6.644	25.970	2273.218	2378.106
7.659	26.082	2270.551	2376.524
8.673	26.286	2269.698	2378.035
9.688	25.752	2274.823	2376.041
10.702	23.290	2350.335	2420.830
11.717	20.618	2415.695	2450.076
12.731	10.617	2391.390	2284.275
13.746	1.755	2366.351	2135.585
14.761	0.489	2360.223	2111.996
15.775	0.193	2359.883	2107.271
16.790	0.154	2357.779	2104.584
17.804	0.143	2356.815	2103.328
18.819	0.070	2356.004	2101.321
19.834	0.130	2354.193	2100.293
20.848	0.154	2352.976	2099.293
21.863	0.135	2350.718	2096.765
22.877	0.176	2348.870	2095.434
23.892	0.072	2346.715	2091.811
24.907	0.208	2344.265	2091.279
25.921	0.138	2342.524	2088.505
26.936	0.107	2340.570	2086.077
27.950	0.008	2338.023	2082.176
28.965	0.001	2336.019	2080.052
29.980	0.176	2334.272	2080.676
30.994	0.278	2332.606	2080.354
32.009	5.956	2351.728	2176.444
33.023	17.426	2384.870	2368.153
34.038	21.471	2391.989	2431.569
35.053	21.631	2388.721	2430.194
36.067	21.614	2385.789	2426.683
37.082	21.552	2384.012	2423.721
38.096	21.536	2382.814	2421.989
39.111	21.714	2379.526	2420.834
40.126	21.871	2377.687	2420.847
41.140	21.888	2376.755	2419.847
42.155	21.965	2375.543	2419.384
43.169	21.758	2373.645	2414.300
44.184	21.818	2369.030	2410.136
45.199	21.777	2367.085	2407.307
46.213	21.802	2367.214	2407.502
47.228	21.908	2365.449	2406.872
48.242	21.946	2363.321	2404.943
49.257	22.005	2361.926	2404.050
50.271	22.138	2360.173	2403.802
51.286	21.924	2357.595	2397.954
52.301	21.732	2355.136	2392.534
53.315	22.488	2357.694	2405.230
54.330	24.711	2364.029	2441.956
55.344	26.162	2364.449	2462.001
56.359	26.416	2361.414	2462.020
57.374	26.386	2360.683	2460.560
58.388	26.444	2357.097	2457.317
59.403	26.267	2352.837	2450.165
60.417	25.930	2349.102	2441.397
61.432	25.990	2348.111	2440.894
62.447	26.180	2345.743	2440.715
63.461	26.306	2344.579	2440.932
64.476	26.289	2343.109	2438.869
65.490	26.243	2341.443	2436.230
66.505	25.609	2337.620	2423.368
67.520	23.921	2331.624	2394.049
68.534	22.408	2324.490	2366.007
69.549	21.872	2319.190	2353.108
70.563	21.599	2317.317	2347.251
71.578	21.579	2315.030	2344.379
72.593	21.638	2313.259	2343.097
73.607	21.655	2312.208	2341.988
74.622	21.792	2310.312	2341.627
75.636	21.901	2306.867	2339.310
76.651	21.776	2305.419	2335.893
77.666	21.838	2302.825	2333.815
78.680	21.667	2300.730	2329.121
79.695	21.513	2298.528	2324.564
80.709	21.409	2297.345	2321.697
81.724	21.299	2294.697	2317.272
82.739	21.365	2292.584	2315.746
83.753	21.555	2290.972	2316.371
84.768	21.593	2288.696	2314.291
85.782	21.530	2287.849	2312.325
86.797	21.542	2285.817	2310.152
87.812	21.510	2282.845	2306.451
88.826	21.651	2281.598	2306.780
89.841	21.636	2279.391	2304.069
90.855	21.624	2277.642	2301.872
91.870	21.537	2276.029	2298.818
92.884	21.614	2273.537	2297.035
93.899	21.461	2272.900	2294.103
94.914	21.997	2273.665	2301.666
95.928	23.796	2281.006	2332.580
96.943	24.709	2278.479	2341.750
97.957	23.022	2270.394	2311.012
98.972	21.729	2265.543	2288.834
99.987	21.652	2262.193	2284.160
101.001	21.728	2258.724	2281.387
102.016	21.745	2256.763	2279.350
103.030	21.463	2255.107	2273.715
104.045	21.489	2252.102	2270.758
105.060	21.480	2250.120	2268.370
106.074	21.526	2248.820	2267.392
107.089	21.444	2246.920	2264.130
108.103	21.355	2246.234	2262.015
109.118	21.505	2244.447	2261.887
110.133	21.526	2243.369	2260.812
111.147	21.573	2240.659	2258.416
112.162	21.699	2238.996	2258.107
113.176	21.727	2236.344	2255.515
114.191	21.696	2234.858	2253.352
115.206	21.524	2233.485	2249.478
116.220	21.645	2231.273	2248.542
117.235	21.747	2229.571	2247.875
118.249	21.730	2227.944	2245.742
119.264	21.570	2226.415	2241.877
120.279	21.521	2225.217	2239.762
121.293	21.683	2222.980	2239.321
122.308	21.694	2221.650	2237.867
123.322	21.643	2220.321	2235.605
124.337	21.647	2220.757	2235.822
125.352	23.853	2225.530	2268.691
126.366	24.776	2225.399	2280.113
127.381	22.922	2216.081	2246.623
128.395	21.915	2211.396	2228.757
129.410	21.712	2209.139	2223.623
130.424	21.763	2207.874	2222.738
131.439	21.872	2206.341	2222.311
132.454	21.805	2204.853	2219.700
133.468	21.927	2202.171	2218.278
134.483	21.928	2200.430	2216.275
135.497	21.944	2198.786	2214.554
136.512	21.948	2196.219	2211.756
137.527	21.865	2194.513	2208.721
138.541	21.832	2193.100	2206.623
139.556	21.707	2193.304	2204.978
140.570	21.860	2190.865	2204.193
141.585	21.650	2188.224	2198.626
142.600	21.588	2186.920	2196.273
143.614	21.555	2185.333	2193.995
144.629	21.562	2183.192	2191.675
145.643	21.513	2181.942	2189.539
146.658	21.499	2180.247	2187.404
147.673	21.371	2177.656	2182.932
148.687	21.379	2176.335	2181.449
149.702	21.426	2176.298	2181.743
150.716	21.635	2174.703	2182.498
151.731	21.785	2173.075	2182.482
152.746	21.620	2172.281	2179.352
153.760	22.014	2174.886	2186.640
154.775	23.961	2179.946	2215.866
155.789	24.938	2178.184	2226.022
156.804	23.147	2169.318	2194.396
157.819	21.725	2162.561	2169.613
158.833	21.478	2159.927	2163.635
159.848	21.630	2157.225	2162.565
160.862	21.598	2157.139	2161.822
161.877	21.722	2155.566	2161.527
162.892	21.549	2155.366	2158.922
163.906	21.738	2153.802	2159.438
164.921	21.609	2151.255	2155.023
165.935	21.567	2148.836	2151.831
166.950	21.618	2147.913	2151.270
167.964	21.673	2145.413	2149.186
168.979	21.544	2143.876	2145.800
169.994	21.624	2141.694	2144.353
171.008	21.576	2139.539	2141.337
172.023	21.468	2138.970	2139.190
173.037	21.603	2138.008	2139.629
174.052	21.656	2136.372	2138.389
175.067	21.627	2134.831	2136.232
176.081	21.689	2132.824	2134.728
177.096	21.761	2132.714	2135.245
178.110	21.842	2130.838	2134.095
179.125	21.905	2128.859	2132.634
180.140	21.841	2128.034	2130.772
181.154	21.901	2126.546	2129.762
182.169	21.910	2126.429	2129.494
183.183	22.519	2127.449	2137.695
184.198	24.615	2132.106	2167.706
185.213	25.071	2130.798	2171.666
186.227	22.993	2122.777	2137.999
187.242	21.947	2117.936	2120.170
188.256	21.731	2116.275	2115.637
189.271	21.642	2114.898	2112.922
190.286	21.649	2112.732	2110.595
191.300	21.588	2110.585	2107.451
192.315	21.675	2108.848	2106.523
193.329	21.825	2107.476	2106.705
194.344	21.995	2106.849	2107.885
195.359	21.937	2105.679	2105.758
196.373	21.985	2102.219	2102.623
197.388	21.758	2100.018	2097.446
198.402	21.779	2097.937	2095.363
199.417	21.703	2097.382	2093.649
200.432	21.720	2093.941	2090.163
201.446	21.584	2093.783	2088.127
202.461	21.639	2091.145	2085.902
203.475	21.526	2090.336	2083.496
204.490	21.484	2087.816	2080.236
205.504	21.536	2085.283	2078.074
206.519	21.515	2083.783	2076.081
207.534	21.607	2081.009	2074.170
208.548	21.600	2080.493	2073.329
209.563	21.582	2079.319	2071.696
210.577	21.825	2077.968	2072.980
211.592	21.801	2077.249	2071.731
212.607	22.525	2081.092	2083.935
213.621	24.651	2086.001	2113.899
214.636	24.590	2081.682	2108.549
215.650	22.643	2075.446	2078.925
216.665	21.856	2071.129	2065.044
217.680	21.730	2068.081	2060.272
218.694	21.625	2066.604	2057.316
219.709	21.482	2064.780	2053.564
220.723	21.588	2063.277	2053.075
221.738	21.778	2061.896	2053.691
222.753	21.807	2059.930	2051.832
223.767	21.706	2058.550	2049.018
224.782	21.710	2057.270	2047.549
225.796	21.822	2054.941	2046.294
226.811	21.784	2053.199	2043.870
227.826	21.733	2052.023	2041.865
228.840	21.627	2050.193	2038.560
229.855	21.676	2049.083	2037.782
230.869	21.841	2047.841	2038.232
231.884	21.760	2046.496	2035.697
232.899	21.845	2045.417	2035.380
233.913	21.693	2044.891	2032.837
234.928	21.808	2042.689	2031.745
235.942	21.625	2040.799	2027.485
236.957	21.628	2039.092	2025.588
237.972	21.654	2038.372	2024.934
238.986	21.707	2037.302	2024.244
240.001	21.480	2035.795	2019.871
241.015	21.657	2034.060	2019.959
242.030	22.336	2036.426	2029.936
243.045	24.341	2040.294	2056.814
244.059	24.872	2037.949	2060.351
245.074	22.972	2030.070	2030.230
246.088	21.989	2025.382	2013.964
247.103	21.985	2024.112	2012.415
248.117	22.185	2023.364	2013.732
249.132	22.011	2021.388	2009.523
250.147	21.855	2018.998	2005.116
251.161	21.710	2017.349	2001.575
252.176	21.886	2015.547	2001.566
253.190	21.877	2013.190	1998.874
254.205	21.605	2012.326	1994.669
255.220	21.585	2010.963	1992.843
256.234	21.510	2009.091	1989.903
257.249	21.492	2008.354	1988.720
258.263	21.482	2007.077	1987.107
259.278	21.579	2005.724	1986.640
260.293	21.474	2004.560	1984.054
261.307	21.575	2002.504	1982.926
262.322	21.615	2001.380	1982.037
263.336	21.551	1998.872	1978.585
264.351	21.471	1997.168	1975.752
265.366	21.554	1995.233	1974.543
266.380	21.571	1994.969	1974.237
267.395	21.595	1992.876	1972.204
268.409	21.637	1992.581	1972.150
269.424	21.623	1991.079	1970.263
270.439	21.463	1990.453	1967.606
271.453	22.409	1992.163	1979.753
272.468	24.568	1995.235	2006.989
273.482	24.775	1992.397	2006.226
274.497	22.735	1983.893	1974.498
275.512	21.797	1979.547	1959.398
276.526	21.579	1977.802	1954.993
277.541	21.513	1975.597	1951.843
278.555	21.327	1974.937	1948.875
279.570	21.419	1973.118	1947.876
280.585	21.508	1971.595	1947.134
281.599	21.582	1970.304	1946.447
282.614	21.689	1968.816	1945.939
283.628	21.904	1967.788	1947.097
284.643	21.695	1967.505	1944.250
285.657	21.797	1965.225	1942.896
286.672	21.742	1964.130	1940.967
287.687	21.739	1961.618	1938.222
288.701	21.590	1960.737	1935.467
289.716	21.636	1958.097	1933.136
290.730	21.574	1956.811	1930.944
291.745	21.747	1956.429	1932.259
292.760	21.850	1956.030	1932.776
293.774	21.495	1954.910	1927.503
294.789	21.617	1953.524	1927.258
295.803	21.645	1951.375	1925.214
296.818	21.598	1951.136	1924.228
297.833	21.864	1949.551	1925.378
298.847	21.769	1947.608	1922.174
299.862	21.701	1945.870	1919.486
300.876	22.282	1947.754	1927.514
301.891	24.567	1952.353	1957.033
302.906	25.098	1950.450	1960.724
303.920	22.838	1943.092	1928.316
304.935	21.933	1938.681	1913.789
305.949	21.847	1936.343	1910.310
306.964	21.856	1935.550	1909.402
307.979	21.720	1932.385	1904.564
308.993	21.458	1931.027	1900.132
310.008	21.182	1928.423	1894.340
311.022	21.041	1927.139	1891.311
312.037	21.106	1925.614	1890.299
313.052	21.072	1924.249	1888.358
314.066	21.049	1921.851	1885.535
315.081	21.024	1921.108	1884.307
316.095	20.991	1919.043	1881.694
317.110	20.818	1917.493	1878.075
318.125	20.834	1915.321	1875.895
319.139	20.631	1915.185	1873.341
320.154	20.977	1913.568	1875.273
321.168	20.986	1912.216	1873.825
322.183	21.170	1912.018	1875.392
323.197	21.502	1912.009	1878.743
324.212	21.490	1909.316	1875.742
325.227	21.380	1907.987	1873.023
326.241	21.555	1906.231	1872.969
327.256	21.719	1905.119	1873.406
328.270	21.532	1903.683	1869.761
329.285	21.488	1903.645	1869.031
330.300	22.126	1906.501	1878.470
331.314	24.656	1909.794	1908.682
332.329	24.835	1905.969	1906.548
333.343	22.543	1899.475	1875.335
334.358	21.574	1895.943	1861.270
335.373	21.452	1893.907	1857.745
336.387	21.559	1891.377	1856.186
337.402	21.545	1890.965	1855.408
338.416	21.605	1889.568	1854.460
339.431	21.690	1888.207	1853.801
340.446	21.613	1886.326	1850.918
341.460	21.479	1884.617	1847.597
342.475	21.411	1882.294	1844.374
343.489	21.096	1880.453	1839.010
344.504	20.861	1879.556	1835.424
345.519	20.950	1877.424	1834.073
346.533	20.930	1875.625	1831.880
347.548	21.053	1874.928	1832.278
348.562	21.046	1873.001	1830.103
349.577	21.038	1873.291	1830.084
350.592	21.128	1872.057	1829.609
351.606	21.227	1870.810	1829.214
352.621	21.173	1867.991	1825.664
353.635	21.041	1867.700	1823.780
354.650	21.312	1867.335	1826.055
355.665	21.573	1865.702	1826.970
356.679	21.680	1864.405	1826.609
357.694	21.766	1863.165	1826.068
358.708	21.805	1862.824	1825.931
359.723	22.606	1864.577	1835.817
360.738	24.842	1868.864	1863.248
361.752	24.792	1865.365	1859.013
362.767	22.808	1858.853	1831.632
363.781	22.070	1855.312	1820.240
364.796	21.834	1853.389	1815.681
365.810	21.733	1852.364	1813.405
366.825	21.660	1850.336	1810.447
367.840	21.202	1848.055	1803.244
368.854	20.865	1846.164	1797.685
369.869	20.858	1844.963	1796.233
370.883	20.908	1843.868	1795.466
371.898	21.293	1842.365	1797.771
372.913	21.132	1840.962	1794.518
373.927	20.763	1839.888	1789.448
374.942	20.907	1838.894	1789.754
375.956	21.269	1838.109	1792.506
376.971	21.391	1836.802	1792.278
377.986	21.400	1834.786	1790.194
379.000	21.382	1832.989	1788.037
380.015	21.387	1831.526	1786.445
381.029	21.426	1830.789	1785.909
382.044	21.408	1829.256	1784.020
383.059	21.516	1827.149	1782.863
384.073	21.659	1826.694	1783.665
385.088	21.690	1826.291	1783.370
386.102	21.678	1823.940	1780.739
387.117	21.595	1822.071	1777.861
388.132	21.519	1822.047	1776.843
389.146	22.168	1825.470	1786.600
390.161	24.454	1828.179	1812.405
391.175	24.562	1823.605	1808.754
392.190	22.522	1815.507	1779.811
393.205	21.895	1812.608	1770.393
394.219	21.590	1810.510	1765.047
395.234	21.468	1809.924	1763.024
396.248	21.582	1807.052	1761.168
397.263	21.544	1805.567	1759.128
398.278	21.683	1803.840	1758.641
399.292	21.526	1802.901	1755.936
400.307	21.519	1800.969	1753.767
401.321	21.526	1800.187	1752.867
402.336	21.562	1799.989	1752.832
403.350	21.436	1798.409	1749.807
404.365	21.558	1796.673	1749.142
405.380	21.452	1794.430	1745.687
406.394	21.016	1792.993	1739.703
407.409	20.890	1792.253	1737.519
408.423	20.967	1790.770	1736.636
409.438	20.929	1789.122	1734.455
410.453	20.983	1786.828	1732.562
411.467	21.060	1786.022	1732.347
412.482	21.105	1786.216	1732.775
413.496	21.434	1785.357	1735.012
414.511	21.727	1783.552	1735.970
415.526	21.765	1780.942	1733.597
416.540	21.684	1779.375	1731.064
417.555	21.619	1780.162	1730.970
418.569	21.912	1780.440	1733.946
419.584	21.847	1779.776	1732.447
420.599	21.872	1778.910	1731.645
421.613	22.024	1776.872	1730.959
422.628	21.934	1775.668	1728.692
423.642	21.685	1773.158	1723.577
424.657	21.551	1772.007	1720.926
425.672	21.629	1770.873	1720.387
426.686	21.655	1769.561	1719.167
427.701	21.582	1768.442	1717.154
428.715	21.579	1766.706	1715.231
429.730	21.839	1765.218	1716.139
430.745	21.925	1763.929	1715.528
431.759	21.934	1764.154	1715.630
432.774	22.118	1764.387	1717.460
433.788	22.324	1762.992	1717.921
434.803	22.193	1761.734	1715.199
435.818	22.051	1762.077	1713.937
436.832	22.151	1760.519	1713.199
437.847	21.660	1754.655	1702.486
438.861	13.570	1731.783	1601.777
439.876	2.913	1711.146	1479.716
440.890	0.552	1705.910	1452.204
441.905	0.421	1704.291	1449.379
442.920	0.132	1703.977	1446.152
443.934	0.125	1702.236	1444.434
444.949	0.254	1700.646	1444.159
445.963	0.248	1699.899	1443.287
446.978	0.173	1699.376	1441.952
447.993	0.126	1698.043	1440.199
449.007	0.232	1694.979	1438.443
450.022	0.298	1692.920	1437.156
451.036	0.244	1691.798	1435.510
452.051	1.825	1698.514	1456.239
453.066	11.997	1721.991	1574.866
454.080	20.961	1736.279	1674.688
455.095	23.333	1741.616	1702.581
456.109	24.912	1743.689	1719.663
457.124	25.539	1743.388	1725.204
458.139	25.399	1742.709	1722.973
459.153	25.248	1741.794	1720.408
460.168	25.281	1739.096	1717.854
461.182	25.410	1737.689	1717.503
462.197	25.378	1736.775	1716.084
463.212	25.294	1734.250	1712.581
464.226	25.311	1733.393	1711.693
465.241	25.729	1733.107	1715.209
466.255	25.866	1732.182	1715.397
467.270	25.973	1730.768	1714.813
468.285	25.716	1728.648	1710.051
469.299	25.517	1727.951	1707.263
470.314	25.796	1726.196	1707.982
471.328	25.860	1725.331	1707.530
472.343	25.855	1724.016	1705.977
473.358	25.865	1722.608	1704.478
474.372	25.901	1721.387	1703.411
475.387	25.896	1719.744	1701.526
476.401	25.752	1717.853	1698.090
477.416	25.521	1717.194	1695.049
478.430	25.847	1715.995	1696.749
479.445	25.548	1714.785	1692.515
480.460	25.448	1712.736	1689.347
481.474	25.487	1712.294	1689.082
482.489	26.055	1711.888	1693.834
483.503	26.352	1710.136	1694.703
484.518	26.406	1709.520	1694.395
485.533	26.327	1707.743	1691.687
486.547	26.359	1706.490	1690.548
487.562	26.625	1705.981	1692.336
488.576	26.620	1705.131	1691.246
489.591	26.558	1703.299	1688.644
490.606	26.534	1700.998	1685.939
491.620	26.489	1699.275	1683.605
492.635	26.789	1698.715	1685.659
493.649	26.934	1696.871	1684.979
494.664	26.210	1694.732	1675.897
495.679	25.383	1692.835	1666.119
496.693	25.787	1691.360	1668.228
497.708	26.163	1691.919	1672.081
498.722	26.495	1692.010	1675.064
499.737	26.576	1689.946	1673.568
500.752	26.431	1687.793	1669.891
501.766	26.191	1686.135	1665.823
502.781	26.377	1684.926	1666.156
503.795	26.348	1682.724	1663.512
504.810	26.195	1682.354	1661.529
505.825	26.515	1681.972	1663.910
506.839	26.405	1680.509	1661.249
507.854	26.356	1679.011	1659.122
508.868	26.242	1677.392	1656.271
509.883	26.163	1676.060	1654.027
510.898	26.293	1675.481	1654.451
511.912	26.025	1672.692	1649.038
512.927	25.641	1670.037	1642.700
513.941	25.728	1668.416	1641.710
514.956	25.637	1668.840	1641.091
515.971	25.947	1667.768	1642.682
516.985	25.834	1666.497	1640.203
518.000	25.807	1665.608	1638.885
519.014	26.045	1664.621	1639.893
520.029	26.109	1663.417	1639.090
521.043	26.051	1662.280	1637.250
522.058	26.056	1660.619	1635.462
523.073	26.178	1660.220	1635.986
524.087	26.509	1660.731	1639.306
525.102	26.696	1658.320	1638.432
526.116	26.330	1656.184	1632.797
527.131	26.221	1654.668	1630.122
528.146	26.863	1655.081	1636.153
529.160	27.039	1654.528	1637.010
530.175	27.088	1653.993	1636.727
531.189	27.175	1652.756	1636.096
532.204	27.368	1650.734	1635.638
533.219	26.868	1649.201	1629.412
534.233	26.316	1647.735	1622.790
535.248	26.550	1647.006	1623.989
536.262	27.167	1646.833	1629.184
537.277	27.235	1646.466	1629.240
538.292	27.061	1644.273	1625.304
539.306	26.887	1641.828	1621.133
540.321	27.047	1639.225	1619.804
541.335	26.725	1638.520	1616.023
542.350	26.853	1637.918	1616.384
543.365	27.316	1637.044	1619.471
544.379	27.366	1635.976	1618.673
545.394	27.420	1635.218	1618.212
546.408	26.889	1632.292	1610.386
547.423	26.329	1629.514	1602.465
548.438	26.164	1628.938	1600.231
549.452	26.618	1627.903	1603.064
550.467	26.799	1627.151	1603.746
551.481	26.938	1626.316	1603.960
552.496	27.285	1626.440	1606.972
553.511	27.497	1626.649	1608.871
554.525	27.554	1624.583	1607.138
555.540	27.530	1623.977	1606.132
556.554	27.506	1622.468	1604.240
557.569	27.404	1620.746	1601.444
558.583	27.026	1618.890	1596.081
559.598	26.970	1617.093	1593.617
560.613	26.981	1616.204	1592.648
561.627	27.000	1615.292	1591.728
562.642	26.947	1614.235	1590.034
563.656	27.140	1612.597	1589.919
564.671	27.057	1611.074	1587.506
565.686	27.031	1609.299	1585.340
566.700	26.674	1607.812	1580.549
567.715	26.519	1606.003	1577.227
568.729	26.354	1604.342	1573.964
569.744	26.345	1602.864	1572.241
570.759	26.594	1602.217	1573.598
571.773	26.547	1600.814	1571.620
572.788	26.830	1599.914	1573.015
573.802	26.728	1598.594	1570.643
574.817	26.902	1597.735	1571.127
575.832	27.059	1596.620	1571.203
576.846	27.311	1596.039	1572.639
577.861	27.193	1595.072	1570.469
578.875	27.317	1595.402	1571.682
579.890	27.632	1594.416	1573.255
580.905	27.796	1593.269	1573.358
581.919	27.888	1593.070	1573.770
582.934	28.200	1592.040	1575.263
583.948	28.043	1591.164	1572.852
584.963	27.889	1589.237	1569.428
585.978	27.524	1586.244	1563.134
586.992	27.632	1585.549	1563.197
588.007	27.750	1585.798	1564.269
589.021	27.286	1582.250	1556.590
590.036	26.363	1580.299	1546.553
591.051	27.053	1580.673	1552.666
592.065	27.613	1580.083	1556.712
593.080	28.009	1578.487	1558.346
594.094	28.126	1577.134	1557.826
595.109	27.570	1574.381	1550.171
596.123	27.053	1571.967	1543.193
597.138	27.460	1572.531	1547.041
598.153	27.772	1571.221	1548.223
599.167	27.681	1570.139	1546.201
600.182	27.484	1570.510	1544.700
601.196	27.810	1568.238	1545.051
602.211	27.703	1567.927	1543.650
603.226	28.061	1566.267	1544.878
604.240	28.175	1565.577	1544.976
605.255	28.114	1564.907	1543.614
606.269	28.236	1563.949	1543.512
607.284	28.119	1562.393	1540.802
608.299	28.153	1560.967	1539.502
609.313	27.957	1558.546	1535.279
610.328	27.725	1557.867	1532.462
611.342	27.769	1556.675	1531.482
612.357	28.101	1555.786	1533.220
613.372	28.064	1554.105	1531.069
614.386	27.788	1553.169	1527.642
615.401	27.860	1552.498	1527.405
616.415	27.765	1551.750	1525.685
617.430	27.643	1550.644	1523.394
618.445	27.636	1549.123	1521.658
619.459	27.538	1547.120	1518.688
620.474	27.181	1545.827	1514.243
621.488	26.902	1544.119	1510.055
622.503	26.689	1543.119	1507.118
623.518	27.115	1541.932	1509.339
624.532	27.411	1541.629	1511.326
625.547	27.480	1540.471	1510.589
626.561	27.753	1540.401	1512.612
627.576	27.924	1539.447	1512.918
628.591	27.496	1536.792	1506.572
629.605	27.426	1536.337	1505.360
630.620	27.383	1534.443	1502.967
631.634	27.203	1533.029	1499.916
632.649	27.340	1532.646	1500.492
633.663	27.677	1530.984	1501.476
634.678	27.772	1530.502	1501.611
635.693	27.830	1529.447	1500.878
636.707	27.840	1527.943	1499.305
637.722	28.016	1527.388	1500.029
638.736	28.346	1526.350	1501.550
639.751	28.517	1525.614	1502.057
640.766	28.392	1524.847	1500.094
641.780	28.313	1523.044	1497.486
642.795	28.401	1522.344	1497.349
643.809	28.648	1522.024	1498.878
644.824	28.697	1520.948	1498.040
645.839	28.547	1519.930	1495.633
646.853	28.616	1518.818	1494.925
647.868	28.513	1517.098	1492.208
648.882	28.402	1515.324	1489.379
649.897	28.359	1513.676	1487.232
650.912	28.131	1512.976	1484.503
651.926	28.316	1511.752	1484.629
652.941	28.218	1509.952	1481.888
653.955	27.648	1507.506	1474.680
654.970	26.958	1504.762	1466.216
655.985	26.974	1502.620	1464.085
656.999	26.867	1502.275	1462.704
658.014	27.255	1501.819	1465.232
659.028	27.909	1501.785	1470.316
660.043	28.342	1502.058	1473.908
661.058	28.519	1500.713	1473.845
662.072	28.422	1499.681	1471.873
663.087	28.424	1498.009	1470.066
664.101	28.316	1496.919	1467.954
665.116	28.327	1497.247	1468.192
666.131	28.376	1495.903	1467.090
667.145	28.652	1494.494	1467.753
668.160	28.698	1493.100	1466.573
669.174	28.834	1491.634	1466.048
670.189	28.869	1490.397	1464.938
671.204	28.706	1490.423	1463.482
672.218	28.595	1489.280	1461.295
673.233	28.887	1488.436	1462.633
674.247	29.083	1487.270	1462.873
675.262	29.051	1486.435	1461.619
676.276	28.948	1484.925	1459.138
677.291	28.823	1483.463	1456.536
678.306	28.653	1481.784	1453.357
679.320	28.413	1480.917	1450.428
680.335	28.412	1480.906	1450.236
681.349	28.712	1480.135	1451.687
682.364	28.728	1478.777	1450.310
683.379	28.585	1477.660	1447.907
684.393	28.473	1475.882	1445.100
685.408	28.552	1474.260	1443.964
686.422	28.411	1473.414	1441.854
687.437	28.176	1472.754	1439.176
688.452	28.280	1471.578	1438.673
689.466	28.139	1469.975	1435.822
690.481	28.092	1468.492	1433.834
691.495	27.942	1467.423	1431.439
692.510	27.884	1465.506	1428.940
693.525	27.545	1464.139	1424.769
694.539	27.697	1463.438	1425.111
695.554	28.086	1463.044	1427.609
696.568	28.233	1461.843	1427.418
697.583	28.162	1461.376	1426.240
698.598	28.358	1461.106	1427.334
699.612	28.602	1459.806	1427.805
700.627	28.621	1459.185	1427.172
701.641	28.870	1457.992	1427.783
702.656	28.880	1456.824	1426.545
703.671	29.102	1456.911	1428.193
704.685	29.096	1456.299	1427.375
705.700	29.159	1454.042	1425.478
706.714	28.697	1452.014	1419.730
707.729	28.555	1450.134	1416.621
708.744	28.485	1449.469	1415.263
709.758	28.524	1447.568	1413.539
710.773	27.979	1445.250	1406.886
711.787	27.760	1444.559	1404.350
712.802	28.263	1444.058	1407.588
713.816	28.506	1443.960	1409.197
714.831	28.761	1443.429	1410.483
715.846	28.940	1441.789	1410.086
716.860	29.065	1440.434	1409.560
717.875	28.815	1439.865	1406.908
718.889	28.740	1438.342	1404.678
719.904	28.757	1437.315	1403.633
720.919	28.747	1436.849	1402.933
721.933	28.796	1435.627	1401.950
722.948	28.894	1434.614	1401.544
723.962	28.789	1433.811	1399.787
724.977	28.891	1432.651	1399.266
725.992	29.056	1431.899	1399.628
727.006	29.049	1431.194	1398.717
728.021	28.939	1430.249	1396.787
729.035	29.066	1429.072	1396.440
730.050	29.151	1427.394	1395.278
731.065	29.183	1425.686	1393.686
732.079	28.981	1424.645	1390.965
733.094	29.073	1423.515	1390.395
734.108	29.057	1422.231	1388.851
735.123	29.073	1419.869	1386.501
736.138	28.887	1419.529	1384.597
737.152	28.979	1418.853	1384.466
738.167	29.251	1417.726	1385.257
739.181	29.435	1416.847	1385.617
740.196	29.144	1416.353	1382.779
741.211	29.026	1416.052	1381.424
742.225	28.933	1414.757	1379.299
743.240	28.958	1412.132	1376.757
744.254	28.911	1410.453	1374.602
745.269	28.678	1409.934	1372.187
746.284	28.353	1409.101	1368.770
747.298	28.380	1407.163	1366.928
748.313	28.344	1405.310	1364.689
749.327	28.093	1404.724	1362.078
750.342	27.851	1403.720	1359.130
751.356	27.707	1402.532	1356.742
752.371	27.740	1401.942	1356.260
753.386	28.126	1401.424	1358.477
754.400	28.586	1401.567	1361.883
755.415	29.150	1400.680	1365.062
756.429	29.146	1399.931	1364.142
757.444	29.189	1398.925	1363.317
758.459	29.289	1397.359	1362.373
759.473	29.323	1395.846	1360.987
760.488	28.998	1394.827	1357.415
761.502	28.823	1393.947	1355.105
762.517	28.859	1392.823	1354.116
763.532	29.091	1391.340	1354.227
764.546	28.794	1389.500	1350.081
765.561	28.150	1387.492	1343.218
766.575	27.276	1385.584	1334.762
767.590	27.266	1384.575	1333.559
768.605	28.250	1384.379	1340.458
769.619	28.590	1383.838	1342.277
770.634	28.793	1383.486	1343.266
771.648	28.834	1382.397	1342.343
772.663	28.853	1382.023	1341.964
773.678	29.050	1381.420	1342.658
774.692	29.114	1380.933	1342.493
775.707	29.261	1380.468	1342.961
776.721	29.329	1379.764	1342.609
777.736	29.205	1378.213	1340.038
778.751	29.235	1376.800	1338.722
779.765	29.209	1376.070	1337.660
780.780	29.182	1375.672	1336.913
781.794	29.205	1374.149	1335.445
782.809	28.807	1372.164	1330.459
783.824	28.488	1370.862	1326.720
784.838	28.262	1368.546	1322.675
785.853	28.007	1367.998	1320.135
786.867	27.993	1367.843	1319.730
787.882	28.074	1367.539	1319.861
788.897	28.326	1366.081	1320.124
789.911	28.217	1364.955	1318.090
790.926	28.366	1364.027	1318.115
791.940	28.457	1363.377	1317.989
792.955	28.740	1361.991	1318.533
793.969	28.693	1360.622	1316.709
794.984	28.778	1360.715	1317.255
795.999	28.938	1359.701	1317.265
797.013	29.277	1358.174	1318.065
798.028	29.117	1356.749	1315.374
799.042	29.193	1356.354	1315.379
800.057	29.231	1355.494	1314.660
801.072	29.367	1353.089	1313.143
802.086	29.188	1352.554	1311.191
803.101	29.164	1351.297	1309.639
804.115	29.250	1350.430	1309.260
805.130	29.209	1349.842	1308.241
806.145	29.055	1348.604	1305.787
807.159	28.859	1346.839	1302.523
808.174	28.971	1345.818	1302.176
809.188	28.911	1344.266	1300.095
810.203	28.670	1342.551	1296.570
811.218	28.544	1340.256	1293.304
812.232	28.131	1337.826	1287.882
813.247	27.658	1337.039	1283.626
814.261	28.236	1338.518	1288.983
815.276	28.744	1338.159	1292.077
816.291	28.839	1336.702	1291.187
817.305	28.859	1335.633	1290.143
818.320	28.975	1334.512	1289.720
819.334	29.047	1333.349	1288.948
820.349	29.193	1332.183	1288.694
821.364	29.258	1330.911	1287.769
822.378	29.304	1329.377	1286.452
823.393	29.081	1328.422	1283.811
824.407	29.134	1326.737	1282.402
825.422	29.148	1326.205	1281.828
826.437	28.921	1325.386	1279.299
827.451	28.641	1323.016	1274.899
828.466	28.209	1320.684	1269.492
829.480	28.116	1319.487	1267.542
830.495	28.170	1317.685	1266.035
831.509	28.231	1317.876	1266.487
832.524	28.549	1317.299	1267.993
833.539	28.870	1316.952	1269.736
834.553	28.976	1315.641	1269.053
835.568	28.990	1314.619	1268.018
836.582	29.117	1312.806	1266.991
837.597	29.229	1311.511	1266.365
838.612	29.037	1310.052	1263.482
839.626	28.813	1308.867	1260.640
840.641	28.915	1307.297	1259.682
841.655	28.536	1306.372	1256.033
842.670	27.827	1304.629	1249.328
843.685	27.159	1303.166	1243.189
844.699	28.030	1302.777	1248.650
845.714	28.555	1301.817	1251.185
846.728	28.751	1300.806	1251.400
847.743	28.752	1300.953	1251.399
848.758	28.771	1299.842	1250.316
849.772	28.988	1299.164	1250.991
850.787	28.950	1297.658	1249.132
851.801	28.872	1296.666	1247.499
852.816	28.858	1295.419	1246.057
853.831	28.950	1293.303	1244.495
854.845	28.697	1291.787	1241.169
855.860	28.453	1290.351	1237.988
856.874	28.255	1289.220	1235.409
857.889	28.227	1287.811	1233.718
858.904	28.141	1286.215	1231.462
859.918	28.178	1284.498	1229.918
860.933	28.027	1282.940	1227.263
861.947	28.111	1281.999	1226.785
862.962	28.187	1281.053	1226.246
863.977	28.272	1280.564	1226.200
864.991	28.350	1280.252	1226.282
866.006	28.565	1279.516	1226.875
867.020	28.589	1278.871	1226.269
868.035	28.912	1277.529	1227.004
869.049	28.961	1276.481	1226.176
870.064	29.128	1275.880	1226.572
871.079	29.023	1275.126	1224.997
872.093	28.827	1274.232	1222.684
873.108	28.712	1272.958	1220.541
874.122	28.383	1271.346	1216.659
875.137	28.010	1270.602	1213.314
876.152	28.070	1269.008	1212.044
877.166	28.061	1267.535	1210.434
878.181	28.307	1266.575	1211.005
879.195	28.415	1266.267	1211.286
880.210	28.586	1266.169	1212.177
881.225	28.735	1264.813	1211.726
882.239	28.886	1263.899	1211.702
883.254	28.966	1263.203	1211.425
884.268	28.922	1262.418	1210.232
885.283	28.836	1261.054	1208.211
886.298	28.849	1259.078	1206.260
887.312	28.776	1258.353	1204.937
888.327	28.871	1257.599	1204.702
889.341	28.860	1256.057	1203.005
890.356	28.612	1255.396	1200.600
891.371	28.608	1254.872	1199.929
892.385	28.637	1253.694	1198.849
893.400	28.335	1253.034	1196.092
894.414	28.322	1251.740	1194.630
895.429	28.163	1249.306	1191.118
896.444	28.044	1246.797	1187.812
897.458	27.652	1246.417	1184.743
898.473	27.857	1245.919	1185.469
899.487	28.230	1244.895	1186.786
900.502	28.303	1243.984	1186.247
901.517	28.438	1242.952	1186.001
902.531	28.727	1242.161	1186.982
903.546	28.932	1241.863	1187.888
904.560	28.745	1241.773	1186.445
905.575	28.726	1240.782	1185.230
906.589	28.710	1239.275	1183.544
907.604	28.758	1237.921	1182.424
