DTS Sentinel unit serial number:	SN409020Multiplexer serial number:	ORYXHardware model number:	OX4-SRSoftware version number:	ORYX F/W v3.00 Oryx Data Collector v3.7.2.0data status	okinstallation	HaddamTimeLapsedifferential loss correction	single-endedforward channel	channel 3reverse channel	N/Adate	2011/06/22time	02:16:17forward acquisition time	30.00reverse acquisition time	0.00gamma	498.7831k internal	0.1750k external	0.1750temperature offset calibration	1.0074default loss term (dB/km)	0.3790temperature slope calibration	1.3530multiplexer offset coefficient	1.0000multiplexer slope coefficient	1.0000fibre end	0.00T internal ref (°C)	22.34T ext. ref 1 (°C)	17.50T ext. ref 2 (°C)	0.02length (m)	temperature (°C)	Stokes	anti-Stokes-747.200	123.257	-0.189	0.316
-746.185	-200.000	0.096	0.636
-745.171	-168.319	-0.434	0.022
-744.156	-60.436	0.264	0.148
-743.142	221.351	-0.096	-0.206
-742.127	55.368	-0.230	0.296
-741.112	286.367	0.086	-0.208
-740.098	-141.016	-0.494	0.067
-739.083	65.039	0.186	-0.250
-738.069	-200.000	0.040	0.450
-737.054	48.844	0.155	-0.193
-736.039	-102.946	-0.563	-0.176
-735.025	101.753	-0.175	-0.272
-734.010	523.573	-0.122	0.383
-732.996	-75.290	0.216	0.102
-731.981	168.526	-0.062	-0.118
-730.966	-200.000	-0.003	-0.059
-729.952	-159.051	0.352	0.026
-728.937	-161.890	0.218	0.014
-727.923	28.163	0.245	-0.275
-726.908	103.877	-0.223	-0.349
-725.894	-94.950	0.304	0.108
-724.879	88.053	0.238	-0.351
-723.864	-200.000	0.048	0.317
-722.850	-26.653	-0.279	0.216
-721.835	206.049	0.013	0.026
-720.821	800.000	-0.112	-0.562
-719.806	-200.000	0.023	-0.428
-718.791	-200.000	-0.043	-0.311
-717.777	-23.031	0.118	0.094
-716.762	-11.426	0.246	-0.215
-715.748	97.501	0.322	0.492
-714.733	58.845	0.223	-0.291
-713.718	19.746	-0.313	-0.334
-712.704	-76.118	-0.219	0.102
-711.689	-142.943	-0.379	0.048
-710.675	-61.210	0.117	0.065
-709.660	-200.000	-0.047	0.309
-708.645	703.482	0.017	0.059
-707.631	-72.942	0.339	-0.164
-706.616	-12.841	-0.615	-0.531
-705.602	-35.098	-0.468	0.338
-704.587	34.405	0.273	0.316
-703.572	-145.273	-0.103	-0.012
-702.558	-61.439	0.123	0.068
-701.543	-1.729	-0.437	-0.408
-700.529	-78.692	-0.120	0.054
-699.514	800.000	0.081	-0.306
-698.499	-200.000	-0.034	-0.429
-697.485	92.148	-0.130	-0.194
-696.470	-7.238	0.156	-0.140
-695.456	-68.676	0.088	-0.045
-694.441	590.782	0.233	-0.768
-693.426	-80.258	0.316	0.140
-692.412	376.720	0.112	0.304
-691.397	-2.577	0.293	0.272
-690.383	33.662	-0.332	0.383
-689.368	30.274	-0.158	-0.179
-688.354	-34.536	0.341	-0.247
-687.339	31.957	0.432	-0.494
-686.324	-118.535	0.297	-0.069
-685.310	800.000	0.111	-0.478
-684.295	-200.000	0.000	0.198
-683.281	-67.621	0.052	0.027
-682.266	62.315	-0.298	-0.395
-681.251	800.000	-0.110	0.474
-680.237	-81.953	-0.368	-0.159
-679.222	-163.678	0.395	0.024
-678.208	22.431	0.378	0.410
-677.193	800.000	-0.030	-0.142
-676.178	93.586	0.226	0.340
-675.164	-134.896	0.406	-0.064
-674.149	-16.322	0.078	-0.065
-673.135	60.502	0.090	-0.118
-672.120	-172.409	0.056	0.002
-671.105	219.442	-0.168	-0.358
-670.091	54.403	0.162	-0.207
-669.076	5.386	0.183	-0.179
-668.062	341.018	0.086	0.223
-667.047	-134.165	-0.317	-0.051
-666.032	-200.000	0.003	0.141
-665.018	-88.474	0.069	-0.027
-664.003	-28.798	-0.229	0.174
-662.989	546.270	0.084	-0.268
-661.974	-172.514	-0.348	0.014
-660.959	30.109	0.175	-0.198
-659.945	-97.424	-0.269	-0.092
-658.930	-97.073	0.380	0.131
-657.916	-135.106	-0.111	-0.017
-656.901	-150.030	0.122	0.012
-655.886	-177.164	0.249	0.008
-654.872	-106.359	0.287	-0.084
-653.857	-129.530	-0.372	0.068
-652.843	452.332	0.065	-0.190
-651.828	-200.000	0.048	0.297
-650.814	-113.217	-0.615	0.159
-649.799	-70.170	-0.329	0.165
-648.784	-53.950	-0.362	0.217
-647.770	-160.413	0.186	0.013
-646.755	41.956	-0.097	-0.116
-645.741	-200.000	-0.024	-0.150
-644.726	158.670	0.189	-0.348
-643.711	-70.081	-0.068	-0.034
-642.697	-69.192	-0.173	-0.088
-641.682	-61.892	0.134	0.074
-640.668	-107.333	0.159	-0.046
-639.653	-42.661	-0.279	-0.188
-638.638	-131.782	-0.266	-0.046
-637.624	-39.061	-0.218	-0.151
-636.609	-83.028	0.064	0.027
-635.595	-45.271	-0.547	0.358
-634.580	-44.226	-0.054	0.036
-633.565	-52.116	-0.131	0.080
-632.551	103.148	-0.217	0.338
-631.536	-24.687	-0.213	0.168
-630.522	3.507	-0.253	0.244
-629.507	800.000	0.089	0.360
-628.492	-8.559	0.208	0.184
-627.478	-200.000	-0.060	0.431
-626.463	16.849	-0.323	0.339
-625.449	-75.984	-0.161	-0.075
-624.434	-56.984	-0.199	0.116
-623.419	-91.106	0.435	0.164
-622.405	15.935	0.170	0.177
-621.390	87.321	-0.153	-0.225
-620.376	-100.403	-0.373	0.121
-619.361	-6.903	-0.420	0.377
-618.346	-128.165	-0.555	0.104
-617.332	-127.245	-0.385	0.074
-616.317	16.936	-0.239	-0.250
-615.303	254.468	0.208	-0.473
-614.288	23.546	-0.033	0.035
-613.273	494.253	-0.036	0.111
-612.259	800.000	0.087	0.333
-611.244	-91.809	0.405	-0.151
-610.230	-105.456	0.574	0.171
-609.215	800.000	0.033	0.159
-608.201	-200.000	-0.072	0.491
-607.186	-50.243	-0.186	-0.116
-606.171	208.432	-0.063	0.131
-605.157	-31.262	-0.356	0.265
-604.142	127.814	0.194	-0.327
-603.128	216.031	-0.158	0.333
-602.113	106.865	-0.132	-0.208
-601.098	41.453	0.073	-0.087
-600.084	800.000	-0.062	0.242
-599.069	-84.505	-0.134	0.056
-598.055	60.163	0.222	-0.291
-597.040	608.936	-0.067	0.222
-596.025	14.612	0.271	-0.280
-595.011	-13.465	0.271	-0.232
-593.996	53.370	0.249	0.316
-592.982	-86.045	0.357	0.145
-591.967	-100.960	0.223	0.072
-590.952	-41.574	-0.292	0.198
-589.938	-20.587	-0.283	-0.230
-588.923	-140.805	0.434	0.058
-587.909	332.029	-0.121	0.309
-586.894	-78.738	0.247	-0.111
-585.879	-108.411	0.228	-0.064
-584.865	-6.827	-0.469	0.420
-583.850	287.603	-0.144	0.344
-582.836	239.054	-0.210	-0.463
-581.821	-151.813	-0.287	-0.027
-580.806	-146.595	-0.415	0.047
-579.792	197.844	0.134	0.271
-578.777	-81.951	0.556	-0.239
-577.763	-82.129	0.157	0.067
-576.748	-88.138	0.222	0.087
-575.733	-76.584	0.307	-0.142
-574.719	-45.799	-0.144	0.093
-573.704	-73.235	-0.265	-0.128
-572.690	-57.834	-0.313	-0.180
-571.675	-116.224	0.358	-0.087
-570.661	-200.000	0.064	-0.539
-569.646	-19.606	-0.206	0.168
-568.631	-3.737	0.226	-0.207
-567.617	227.878	0.098	-0.211
-566.602	-84.808	0.223	0.092
-565.588	-12.593	0.167	0.143
-564.573	-90.585	0.323	0.123
-563.558	-93.350	-0.484	-0.176
-562.544	181.404	-0.087	0.169
-561.529	196.103	0.242	0.488
-560.515	-29.751	-0.128	0.096
-559.500	-33.836	-0.408	-0.296
-558.485	-158.206	0.048	-0.004
-557.471	-136.902	0.141	0.021
-556.456	-142.262	0.253	-0.033
-555.442	-44.120	-0.249	0.165
-554.427	-200.000	0.016	0.356
-553.412	-194.606	0.283	0.003
-552.398	-200.000	-0.026	0.175
-551.383	-171.150	-0.291	0.013
-550.369	-37.490	-0.272	0.191
-549.354	-200.000	-0.021	0.123
-548.339	-59.899	0.651	0.366
-547.325	131.159	-0.153	0.260
-546.310	-96.010	-0.337	-0.117
-545.296	78.254	-0.102	0.144
-544.281	-177.552	0.375	0.012
-543.266	-102.995	0.098	-0.031
-542.252	386.728	-0.153	-0.419
-541.237	-90.035	0.409	0.156
-540.223	426.153	-0.134	-0.384
-539.208	-78.183	-0.395	-0.178
-538.193	-34.360	0.468	-0.338
-537.179	-70.166	0.097	0.049
-536.164	-130.450	0.361	-0.064
-535.150	744.154	0.104	0.372
-534.135	-200.000	-0.004	-0.127
-533.121	-9.702	0.394	0.345
-532.106	-7.610	-0.315	0.280
-531.091	-113.076	0.250	-0.064
-530.077	203.691	0.103	0.211
-529.062	-92.336	0.195	0.072
-528.048	-158.056	0.412	0.031
-527.033	302.121	-0.155	-0.380
-526.018	52.314	0.368	0.462
-525.004	91.236	-0.270	0.399
-523.989	800.000	-0.099	0.483
-522.975	-40.195	-0.317	0.217
-521.960	-75.807	0.230	0.107
-520.945	87.493	0.116	0.170
-519.931	-111.447	-0.300	0.080
-518.916	-0.261	0.187	-0.175
-517.902	198.892	0.283	0.574
-516.887	-78.129	-0.079	0.036
-515.872	98.675	-0.175	0.267
-514.858	-143.955	0.525	0.064
-513.843	-139.073	0.592	-0.084
-512.829	-64.614	0.412	-0.219
-511.814	-61.799	-0.407	0.224
-510.799	460.701	-0.097	-0.287
-509.785	-44.954	-0.132	-0.086
-508.770	-79.722	0.068	0.030
-507.756	-155.774	-0.676	-0.056
-506.741	-26.802	-0.116	-0.089
-505.726	-200.000	-0.006	-0.056
-504.712	-0.563	-0.150	0.140
-503.697	800.000	0.071	-0.309
-502.683	402.463	-0.025	-0.068
-501.668	-151.199	-0.186	-0.018
-500.653	164.044	0.105	0.194
-499.639	-55.717	-0.245	0.144
-498.624	-104.242	-0.250	0.076
-497.610	-200.000	-0.020	-0.345
-496.595	-57.359	0.457	-0.263
-495.581	-126.795	0.441	-0.085
-494.566	327.510	-0.076	-0.193
-493.551	5.858	-0.220	0.214
-492.537	-81.816	-0.401	0.172
-491.522	771.175	0.123	0.445
-490.508	-93.416	-0.723	0.262
-489.493	-148.449	-0.470	-0.050
-488.478	-26.861	0.472	-0.362
-487.464	800.000	0.062	0.237
-486.449	-124.181	-0.681	-0.139
-485.435	-200.000	0.041	-0.244
-484.420	-64.774	-0.107	0.057
-483.405	-128.433	-0.420	-0.078
-482.391	-86.353	0.253	-0.102
-481.376	-169.976	-0.175	0.008
-480.362	133.523	0.025	-0.043
-479.347	-200.000	0.040	-0.444
-478.332	-114.815	-0.711	0.177
-477.318	-132.252	-0.544	0.092
-476.303	-82.019	0.227	0.097
-475.289	99.368	-0.396	-0.603
-474.274	45.560	-0.069	0.084
-473.259	-13.578	-0.375	0.319
-472.245	-26.589	0.441	-0.339
-471.230	-200.000	-0.007	-0.137
-470.216	-27.922	0.384	-0.292
-469.201	-101.555	0.378	-0.120
-468.186	-200.000	0.008	0.338
-467.172	-200.000	-0.022	0.324
-466.157	-114.240	0.365	0.092
-465.143	-64.109	0.345	0.184
-464.128	-68.117	0.196	-0.100
-463.113	800.000	0.031	-0.138
-462.099	800.000	0.070	-0.290
-461.084	-62.764	-0.252	0.137
-460.070	-200.000	0.004	-0.170
-459.055	29.615	0.134	-0.150
-458.040	205.766	-0.103	0.212
-457.026	-55.829	0.207	0.121
-456.011	133.104	-0.215	-0.366
-454.997	-200.000	-0.007	0.315
-453.982	762.841	-0.107	-0.383
-452.968	-200.000	-0.088	0.546
-451.953	786.361	-0.074	0.270
-450.938	23.965	-0.411	-0.445
-449.924	515.693	0.067	0.206
-448.909	-95.655	0.307	0.107
-447.895	-155.197	0.143	-0.012
-446.880	-73.153	-0.400	0.192
-445.865	-56.845	-0.516	-0.299
-444.851	21.366	-0.157	-0.168
-443.836	-14.847	0.316	-0.266
-442.822	-200.000	-0.009	-0.308
-441.807	-45.713	-0.051	-0.033
-440.792	-3.209	-0.077	0.070
-439.778	-167.254	0.166	-0.009
-438.763	-200.000	0.013	-0.183
-437.749	-116.514	0.510	-0.122
-436.734	10.828	0.204	-0.205
-435.719	-117.473	-0.172	0.041
-434.705	800.000	0.101	-0.435
-433.690	-12.626	0.302	-0.259
-432.676	-200.000	-0.034	0.244
-431.661	58.481	0.135	0.174
-430.646	711.094	0.073	-0.254
-429.632	-89.779	-0.295	-0.113
-428.617	-181.067	-0.358	-0.009
-427.603	-200.000	0.018	0.350
-426.588	192.931	-0.146	0.290
-425.573	449.815	0.065	0.188
-424.559	-47.484	0.068	-0.043
-423.544	-133.203	0.461	-0.076
-422.530	-54.341	0.073	-0.043
-421.515	-200.000	-0.038	0.356
-420.500	-20.488	0.151	-0.122
-419.486	-138.914	-0.300	0.042
-418.471	-154.498	0.416	0.036
-417.457	-163.010	0.654	0.041
-416.442	-200.000	0.014	0.432
-415.428	671.998	-0.143	0.490
-414.413	-115.195	-0.464	0.114
-413.398	59.018	-0.161	-0.207
-412.384	-56.815	-0.417	-0.241
-411.369	-114.445	-0.147	0.037
-410.355	800.000	-0.074	-0.280
-409.340	-200.000	0.023	-0.221
-408.325	-104.738	0.250	0.075
-407.311	-26.237	0.287	0.221
-406.296	-57.069	0.239	0.138
-405.282	-69.278	-0.208	0.105
-404.267	154.831	0.128	0.231
-403.252	-107.490	-0.310	-0.089
-402.238	497.843	0.112	0.339
-401.223	-200.000	0.002	-0.317
-400.209	-75.364	0.137	0.064
-399.194	-92.302	0.303	0.111
-398.179	147.781	0.098	-0.174
-397.165	-200.000	-0.011	0.405
-396.150	468.948	0.177	-0.524
-395.136	312.431	0.079	-0.195
-394.121	228.172	0.111	0.238
-393.106	-200.000	0.070	-0.438
-392.092	-58.256	0.172	-0.098
-391.077	-200.000	0.004	-0.171
-390.063	349.133	0.116	-0.300
-389.048	78.356	0.338	-0.474
-388.033	-81.662	0.464	0.199
-387.019	-200.000	0.042	-0.656
-386.004	309.212	-0.126	-0.311
-384.990	141.417	0.081	-0.141
-383.975	124.890	0.424	-0.702
-382.960	-28.946	-0.306	-0.230
-381.946	-9.060	0.038	0.033
-380.931	-185.507	0.198	0.004
-379.917	-56.025	-0.137	0.080
-378.902	-104.745	0.264	-0.079
-377.888	335.217	0.190	-0.485
-376.873	127.285	0.393	-0.655
-375.858	-127.263	0.530	-0.100
-374.844	-105.445	0.324	-0.096
-373.829	47.883	-0.069	-0.084
-372.815	800.000	0.028	0.151
-371.800	-136.940	0.471	-0.070
-370.785	-26.464	0.311	-0.239
-369.771	-129.417	-0.193	0.035
-368.756	193.307	0.167	-0.332
-367.742	-161.228	-0.272	0.018
-366.727	101.573	0.261	-0.399
-365.712	-200.000	-0.018	-0.274
-364.698	-42.590	-0.394	-0.262
-363.683	-37.163	-0.409	0.286
-362.669	800.000	-0.077	-0.399
-361.654	-82.571	0.283	0.120
-360.639	-42.614	-0.212	0.141
-359.625	70.879	-0.147	0.199
-358.610	800.000	0.072	0.264
-357.596	133.752	0.132	-0.224
-356.581	-67.005	-0.224	0.115
-355.566	-171.871	-0.251	0.011
-354.552	-175.790	0.671	0.023
-353.537	151.439	0.017	-0.030
-352.523	-129.437	0.148	-0.027
-351.508	-75.485	0.347	0.161
-350.493	142.707	-0.215	0.374
-349.479	-129.724	-0.219	-0.039
-348.464	141.185	-0.249	0.433
-347.450	-81.325	-0.244	-0.105
-346.435	222.226	0.204	-0.430
-345.420	-134.363	-0.188	-0.030
-344.406	16.294	-0.233	-0.240
-343.391	-144.107	-0.181	-0.022
-342.377	543.884	-0.064	0.200
-341.362	476.841	0.126	0.374
-340.348	135.986	0.105	-0.179
-339.333	-74.713	0.361	-0.169
-338.318	41.734	0.124	0.147
-337.304	800.000	-0.061	0.347
-336.289	-200.000	0.010	-0.195
-335.275	-159.106	0.235	-0.017
-334.260	12.699	0.112	-0.114
-333.245	800.000	-0.081	-0.304
-332.231	304.839	-0.090	-0.220
-331.216	243.458	0.153	0.336
-330.202	-200.000	-0.019	0.221
-329.187	-200.000	-0.014	-0.092
-328.172	800.000	-0.051	0.227
-327.158	95.198	0.115	-0.172
-326.143	-33.878	-0.125	0.090
-325.129	-73.416	-0.391	-0.186
-324.114	-123.743	-0.274	0.056
-323.099	221.350	-0.095	-0.200
-322.085	-42.889	-0.169	0.112
-321.070	-129.499	0.241	0.043
-320.056	180.559	-0.128	0.246
-319.041	-72.946	0.374	0.179
-318.026	-195.048	-0.466	-0.005
-317.012	800.000	0.052	-0.299
-315.997	320.530	-0.165	0.411
-314.983	511.505	0.077	0.237
-313.968	-95.268	-0.085	0.030
-312.953	-93.152	0.149	0.054
-311.939	275.516	-0.050	-0.115
-310.924	122.025	0.207	-0.339
-309.910	-128.494	0.651	0.120
-308.895	-135.149	-0.315	-0.049
-307.880	-165.629	0.190	0.011
-306.866	-16.239	0.163	0.135
-305.851	-125.313	-0.652	-0.129
-304.837	-200.000	-0.032	-0.187
-303.822	800.000	0.099	-0.429
-302.807	-115.254	0.365	0.089
-301.793	800.000	-0.150	0.578
-300.778	-143.450	0.258	-0.032
-299.764	458.430	0.101	0.294
-298.749	-77.595	0.268	0.121
-297.735	205.833	0.257	0.524
-296.720	341.004	-0.158	0.404
-295.705	-200.000	-0.013	0.822
-294.691	-112.094	-0.184	0.048
-293.676	-38.301	-0.306	-0.211
-292.662	320.401	0.290	-0.723
-291.647	-99.593	-0.300	-0.098
-290.632	-96.770	-0.356	0.121
-289.618	-152.916	-0.541	0.049
-288.603	320.824	-0.068	-0.170
-287.589	668.393	0.076	0.257
-286.574	71.432	0.127	-0.173
-285.559	-200.000	-0.024	0.170
-284.545	-133.873	-0.308	0.049
-283.530	-93.080	-0.305	0.110
-282.516	45.767	0.229	-0.277
-281.501	-200.000	0.049	-0.501
-280.486	-109.190	0.254	0.070
-279.472	-115.625	-0.320	0.078
-278.457	-126.875	-0.706	-0.135
-277.443	23.418	0.139	-0.149
-276.428	-14.582	0.236	0.198
-275.413	211.749	0.068	-0.141
-274.399	41.545	0.278	-0.329
-273.384	-74.030	0.034	0.016
-272.370	800.000	0.128	0.555
-271.355	6.810	0.296	-0.288
-270.340	19.123	0.123	-0.128
-269.326	92.927	-0.146	0.215
-268.311	-190.667	-0.096	0.001
-267.297	-200.000	0.042	0.471
-266.282	-46.830	0.258	-0.164
-265.267	278.755	0.375	-0.875
-264.253	90.696	-0.273	-0.400
-263.238	-178.836	0.580	0.017
-262.224	147.274	0.187	-0.328
-261.209	-132.811	-0.307	-0.051
-260.195	82.931	-0.070	-0.099
-259.180	-74.202	-0.294	0.138
-258.165	-31.202	0.388	-0.285
-257.151	-137.118	-0.425	-0.063
-256.136	367.277	-0.100	-0.263
-255.122	49.486	0.161	-0.197
-254.107	23.991	0.265	-0.285
-253.092	17.216	0.486	-0.502
-252.078	288.551	-0.087	0.207
-251.063	800.000	0.143	-0.699
-250.049	-200.000	0.074	0.458
-249.034	-102.005	-0.252	0.079
-248.019	82.391	-0.223	-0.316
-247.005	50.596	-0.126	-0.155
-245.990	133.642	0.223	0.377
-244.976	-163.045	-0.325	-0.020
-243.961	-179.966	-0.018	-0.000
-242.946	34.994	0.321	-0.366
-241.932	-121.147	-0.410	-0.089
-240.917	653.116	-0.031	0.105
-239.903	-33.607	0.261	-0.187
-238.888	72.299	-0.113	0.154
-237.873	-58.399	0.255	-0.144
-236.859	-200.000	-0.007	0.147
-235.844	-30.119	0.304	-0.225
-234.830	-200.000	-0.007	0.055
-233.815	5.960	-0.366	0.353
-232.800	-89.057	0.181	0.069
-231.786	800.000	0.089	0.507
-230.771	98.764	0.158	0.238
-229.757	800.000	-0.096	0.390
-228.742	-108.724	-0.341	0.094
-227.727	57.390	0.342	0.436
-226.713	-3.354	0.347	0.314
-225.698	-200.000	-0.018	-0.113
-224.684	225.723	0.043	-0.091
-223.669	800.000	-0.097	-0.533
-222.655	-56.297	0.504	0.291
-221.640	-200.000	-0.006	0.063
-220.625	-10.094	-0.041	0.035
-219.611	189.902	0.098	0.192
-218.596	99.768	0.111	-0.168
-217.582	-200.000	-0.006	-0.131
-216.567	-2.700	0.156	0.142
-215.552	-161.831	-0.387	0.025
-214.538	416.446	0.211	-0.589
-213.523	583.562	-0.120	0.386
-212.509	-162.072	0.109	-0.007
-211.494	58.227	-0.176	-0.224
-210.479	-57.444	0.460	-0.262
-209.465	235.394	0.091	0.197
-208.450	33.013	-0.313	0.353
-207.436	-155.411	-0.804	-0.067
-206.421	146.768	-0.177	0.310
-205.406	-90.411	-0.490	0.184
-204.392	31.685	0.170	0.190
-203.377	461.571	0.210	-0.614
-202.363	-200.000	-0.006	0.267
-201.348	-57.979	0.323	-0.183
-200.333	-107.938	-0.272	0.076
-199.319	-138.412	-0.354	-0.050
-198.304	10.598	-0.316	0.314
-197.290	264.905	-0.136	-0.310
-196.275	742.984	-0.046	-0.161
-195.260	5.639	0.308	0.296
-194.246	-200.000	0.057	0.551
-193.231	95.946	0.149	-0.222
-192.217	139.079	-0.138	0.236
-191.202	220.143	-0.148	0.309
-190.187	-200.000	-0.019	-0.165
-189.173	64.387	-0.216	-0.283
-188.158	-200.000	0.009	0.156
-187.144	-138.591	0.072	-0.010
-186.129	101.993	-0.171	0.260
-185.114	45.395	0.347	-0.417
-184.100	-47.979	-0.244	-0.153
-183.085	20.942	0.395	0.417
-182.071	-126.878	0.317	0.060
-181.056	-106.910	-0.068	0.019
-180.042	-76.278	0.418	-0.191
-179.027	-200.000	0.052	0.830
-178.012	31.060	-0.283	0.315
-176.998	-120.955	0.201	0.044
-175.983	-68.972	-0.461	-0.230
-174.969	-62.307	0.213	0.115
-173.954	-200.000	0.029	-0.320
-172.939	800.000	0.149	-0.742
-171.925	-41.904	0.281	-0.187
-170.910	-50.516	-0.637	-0.389
-169.896	109.954	-0.186	-0.291
-168.881	16.031	0.200	0.205
-167.866	30.642	-0.176	-0.195
-166.852	-101.706	-0.191	-0.060
-165.837	129.982	-0.289	-0.482
-164.823	-15.327	-0.494	0.410
-163.808	28.795	0.238	-0.262
-162.793	-200.000	-0.018	-0.141
-161.779	-131.867	-0.141	0.024
-160.764	800.000	0.083	0.332
-159.750	53.005	-0.328	0.408
-158.735	67.603	0.180	0.240
-157.720	-103.835	0.216	-0.065
-156.706	-117.102	-0.453	0.106
-155.691	-34.180	-0.403	-0.287
-154.677	179.111	0.015	0.029
-153.662	466.042	-0.046	0.136
-152.647	319.456	-0.150	-0.371
-151.633	-23.499	0.478	-0.372
-150.618	-85.762	-0.349	0.140
-149.604	-39.888	-0.240	-0.163
-148.589	166.419	-0.009	-0.016
-147.574	-127.338	-0.404	-0.076
-146.560	-200.000	-0.029	0.230
-145.545	-147.794	0.420	0.045
-144.531	79.545	-0.171	0.238
-143.516	30.405	-0.171	0.189
-142.502	-200.000	-0.004	-0.293
-141.487	129.744	0.266	-0.443
-140.472	54.840	-0.078	-0.097
-139.458	18.221	0.317	0.328
-138.443	800.000	0.032	0.123
-137.429	-81.655	-0.395	0.167
-136.414	800.000	-0.035	-0.199
-135.399	-100.554	-0.074	0.024
-134.385	-113.113	0.197	-0.050
-133.370	609.614	0.063	0.204
-132.356	-190.443	-0.406	-0.006
-131.341	159.766	-0.204	0.369
-130.326	-110.429	0.206	0.055
-129.312	-97.274	0.606	-0.204
-128.297	-140.867	0.224	0.030
-127.283	800.000	-0.040	0.225
-126.268	-26.474	-0.237	0.180
-125.253	-48.551	-0.300	0.187
-124.239	-135.012	0.128	-0.020
-123.224	-60.290	-0.393	-0.217
-122.210	800.000	-0.022	0.103
-121.195	-92.341	-0.263	-0.095
-120.180	-100.097	0.176	0.057
-119.166	173.040	-0.189	0.355
-118.151	-200.000	0.018	0.116
-117.137	15.869	-0.238	-0.243
-116.122	213.167	0.144	-0.296
-115.107	305.996	0.147	0.356
-114.093	-90.209	0.436	-0.164
-113.078	-200.000	-0.039	0.263
-112.064	-19.368	0.212	0.170
-111.049	192.064	-0.130	0.256
-110.034	800.000	-0.026	-0.115
-109.020	-130.347	0.343	0.060
-108.005	-145.181	-0.248	-0.029
-106.991	157.978	0.162	0.292
-105.976	536.938	0.199	0.615
-104.962	-28.352	0.139	0.104
-103.947	-179.966	0.540	-0.015
-102.932	-113.723	0.419	0.105
-101.918	217.554	0.147	-0.305
-100.903	-95.876	-0.323	0.111
-99.889	-67.978	0.322	0.162
-98.874	-1.267	0.171	0.156
-97.859	800.000	0.025	0.135
-96.845	800.000	0.050	0.265
-95.830	-50.004	0.209	-0.128
-94.816	800.000	-0.106	0.468
-93.801	-110.013	-0.772	-0.208
-92.786	-151.596	0.640	-0.061
-91.772	-128.400	-0.369	0.067
-90.757	-85.099	-0.261	0.105
-89.743	-70.292	-0.012	-0.006
-88.728	-147.988	0.312	0.033
-87.713	-29.439	0.118	-0.088
-86.699	-109.771	0.057	-0.015
-85.684	-4.446	0.233	0.209
-84.670	-200.000	-0.048	0.492
-83.655	-35.786	-0.128	-0.090
-82.640	-200.000	0.029	0.240
-81.626	-59.156	-0.405	-0.225
-80.611	-11.980	0.110	-0.093
-79.597	-98.202	0.617	0.204
-78.582	551.867	0.126	0.393
-77.567	-85.550	0.211	0.085
-76.553	-46.175	-0.305	-0.194
-75.538	-172.710	-0.182	0.007
-74.524	-92.878	0.097	0.035
-73.509	-200.000	-0.049	0.413
-72.494	800.000	0.080	-0.340
-71.480	139.417	0.124	-0.212
-70.465	800.000	-0.141	-0.588
-69.451	-112.324	0.143	-0.037
-68.436	78.401	-0.245	0.340
-67.422	-151.643	-0.421	0.040
-66.407	362.404	0.055	0.144
-65.392	-112.053	0.202	-0.052
-64.378	-15.613	-0.494	0.407
-63.363	800.000	-0.055	0.280
-62.349	417.636	-0.148	-0.412
-61.334	130.366	-1.761	-2.926
-60.319	124.951	0.902	1.474
-59.305	186.639	-4.096	-7.916
-58.290	47.881	4.062	4.912
-57.276	433.734	3.639	10.275
-56.261	-200.000	24.694	324.363
-55.246	350.937	1309.015	3365.674
-54.232	52.471	2849.698	3521.739
-53.217	51.086	2660.918	3266.875
-52.203	31.048	2391.422	2652.963
-51.188	27.421	2057.197	2237.387
-50.173	24.324	1943.952	2077.920
-49.159	23.222	1931.986	2052.218
-48.144	22.751	1927.853	2042.263
-47.130	22.702	1924.625	2038.194
-46.115	22.569	1923.872	2035.772
-45.100	22.494	1921.916	2032.759
-44.086	22.509	1921.250	2032.147
-43.071	22.510	1919.224	2029.936
-42.057	22.509	1917.849	2028.388
-41.042	22.557	1916.491	2027.429
-40.027	22.508	1915.341	2025.557
-39.013	22.475	1913.933	2023.609
-37.998	22.481	1912.452	2022.030
-36.984	22.541	1910.501	2020.587
-35.969	22.470	1909.882	2019.027
-34.954	22.466	1907.591	2016.484
-33.940	22.515	1907.579	2016.949
-32.925	22.571	1904.729	2014.499
-31.911	22.410	1904.739	2012.579
-30.896	22.423	1902.480	2010.261
-29.881	22.407	1902.049	2009.546
-28.867	22.442	1900.275	2007.994
-27.852	22.283	1898.693	2004.423
-26.838	22.417	1896.850	2003.934
-25.823	22.404	1895.908	2002.709
-24.809	22.334	1894.967	2000.838
-23.794	22.394	1893.733	2000.140
-22.779	22.346	1891.489	1997.143
-21.765	22.255	1891.273	1995.791
-20.750	22.434	1889.723	1996.123
-19.736	22.316	1888.578	1993.482
-18.721	22.309	1887.961	1992.673
-17.706	22.273	1887.464	1991.656
-16.692	22.262	1885.562	1989.445
-15.677	22.305	1884.830	1989.085
-14.663	22.246	1882.718	1986.106
-13.648	22.215	1881.901	1984.813
-12.633	22.238	1880.325	1983.333
-11.619	22.234	1879.404	1982.238
-10.604	22.245	1877.696	1980.492
-9.590	22.254	1876.943	1979.714
-8.575	22.292	1875.232	1978.257
-7.560	22.269	1873.568	1976.173
-6.546	22.159	1873.137	1974.396
-5.531	22.212	1872.197	1973.926
-4.517	22.125	1870.571	1971.150
-3.502	22.469	1868.901	1973.181
-2.487	22.216	1868.817	1970.173
-1.473	22.384	1864.988	1967.937
-0.458	22.063	1846.769	1945.065
0.556	18.662	1993.223	2046.355
1.571	17.231	2196.331	2235.690
2.586	17.881	2236.712	2285.269
3.600	18.099	2238.056	2289.304
4.615	18.077	2237.444	2288.111
5.629	17.973	2235.489	2284.436
6.644	18.000	2233.722	2282.726
7.659	17.907	2232.221	2279.661
8.673	18.007	2230.099	2278.573
9.688	17.752	2238.382	2283.319
10.702	16.765	2318.105	2350.610
11.717	15.073	2382.259	2391.095
12.731	7.082	2364.022	2258.268
13.746	0.925	2347.345	2154.198
14.761	0.114	2344.197	2139.452
15.775	0.081	2342.178	2136.882
16.790	-0.008	2340.678	2134.000
17.804	-0.033	2339.289	2132.111
18.819	-0.034	2338.602	2131.220
19.834	0.038	2336.992	2130.524
20.848	0.027	2335.840	2129.069
21.863	0.019	2333.572	2126.629
22.877	-0.022	2331.482	2123.880
23.892	0.042	2329.340	2122.594
24.907	-0.044	2327.895	2119.794
25.921	-0.028	2325.588	2117.670
26.936	-0.088	2324.201	2115.305
27.950	-0.053	2320.637	2112.297
28.965	-0.066	2319.355	2110.704
29.980	0.025	2316.523	2109.144
30.994	0.108	2314.687	2108.396
32.009	3.802	2326.741	2171.344
33.023	12.591	2352.120	2319.783
34.038	16.216	2357.603	2376.313
35.053	16.173	2354.772	2372.557
36.067	16.152	2351.410	2368.598
37.082	16.181	2350.150	2367.451
38.096	16.345	2348.496	2367.808
39.111	16.477	2345.800	2366.670
40.126	16.494	2344.240	2365.045
41.140	16.511	2343.454	2364.217
42.155	16.601	2340.733	2362.445
43.169	16.594	2338.108	2359.426
44.184	16.355	2334.770	2352.423
45.199	16.367	2332.919	2350.446
46.213	16.349	2332.577	2349.570
47.228	16.398	2332.326	2349.717
48.242	16.530	2329.888	2348.828
49.257	16.637	2327.933	2348.058
50.271	16.644	2325.702	2345.634
51.286	16.485	2322.256	2339.657
52.301	16.328	2320.573	2335.503
53.315	17.044	2323.563	2348.193
54.330	19.694	2331.058	2392.408
55.344	21.335	2331.591	2415.480
56.359	21.559	2328.371	2414.969
57.374	21.732	2327.876	2416.561
58.388	21.878	2325.300	2415.620
59.403	21.665	2321.118	2408.052
60.417	21.395	2317.472	2400.255
61.432	21.543	2315.904	2400.375
62.447	21.734	2314.923	2401.712
63.461	21.840	2313.798	2401.709
64.476	21.993	2311.500	2401.147
65.490	21.649	2309.665	2394.226
66.505	20.851	2306.312	2379.512
67.520	18.772	2298.525	2342.712
68.534	16.781	2290.123	2306.642
69.549	16.350	2284.727	2295.043
70.563	16.200	2282.865	2290.851
71.578	16.155	2281.090	2288.191
72.593	16.165	2280.753	2287.708
73.607	16.352	2278.325	2287.552
74.622	16.306	2276.498	2284.817
75.636	16.198	2273.595	2280.158
76.651	16.036	2272.216	2276.310
77.666	16.149	2268.783	2274.133
78.680	16.037	2266.000	2269.543
79.695	15.843	2264.414	2265.059
80.709	15.718	2263.210	2261.898
81.724	15.784	2260.912	2260.219
82.739	15.779	2258.219	2257.196
83.753	15.859	2255.555	2255.334
84.768	15.730	2254.396	2252.178
85.782	15.635	2253.570	2249.801
86.797	15.639	2251.279	2247.296
87.812	15.711	2249.152	2245.873
88.826	15.801	2247.420	2245.082
89.841	15.701	2245.554	2241.603
90.855	15.772	2242.486	2239.227
91.870	15.949	2240.970	2239.807
92.884	15.970	2238.556	2237.414
93.899	15.922	2238.439	2236.381
94.914	16.625	2241.471	2248.533
95.928	19.131	2248.867	2289.231
96.943	20.033	2245.606	2297.657
97.957	17.433	2235.369	2252.371
98.972	15.852	2229.793	2225.481
99.987	15.645	2226.780	2219.468
101.001	15.682	2224.902	2217.810
102.016	15.666	2222.456	2214.900
103.030	15.648	2219.846	2211.790
104.045	15.856	2217.795	2212.231
105.060	15.782	2215.545	2208.752
106.074	15.745	2214.754	2207.206
107.089	15.741	2213.244	2205.382
108.103	15.825	2212.418	2205.404
109.118	15.874	2210.471	2203.851
110.133	15.916	2208.964	2202.628
111.147	15.888	2206.460	2199.502
112.162	15.874	2205.787	2198.387
113.176	15.985	2204.519	2198.311
114.191	16.184	2201.848	2197.997
115.206	16.084	2200.180	2194.765
116.220	16.001	2198.242	2191.480
117.235	16.103	2196.226	2190.541
118.249	16.090	2193.914	2187.804
119.264	16.137	2192.403	2186.640
120.279	16.025	2191.209	2183.735
121.293	16.131	2188.838	2182.482
122.308	16.178	2187.342	2181.349
123.322	16.064	2186.211	2178.477
124.337	16.596	2187.739	2186.654
125.352	19.177	2195.209	2227.452
126.366	19.829	2192.747	2233.155
127.381	17.108	2182.652	2187.412
128.395	16.148	2177.335	2169.416
129.410	16.009	2176.015	2166.051
130.424	15.866	2174.627	2162.560
131.439	16.026	2172.283	2162.032
132.454	16.020	2171.188	2160.612
133.468	16.247	2168.675	2160.773
134.483	16.344	2167.425	2160.512
135.497	16.388	2165.880	2159.280
136.512	16.270	2163.383	2155.018
137.527	16.154	2161.423	2151.315
138.541	15.954	2160.612	2147.693
139.556	15.919	2159.517	2145.900
140.570	15.801	2157.443	2142.069
141.585	15.718	2154.936	2138.264
142.600	15.822	2153.627	2138.031
143.614	15.737	2152.474	2135.548
144.629	15.597	2150.309	2131.366
145.643	15.644	2148.042	2129.455
146.658	15.631	2146.744	2127.758
147.673	15.527	2144.237	2123.689
148.687	15.659	2143.575	2124.463
149.702	15.819	2142.780	2125.445
150.716	15.861	2141.562	2124.518
151.731	15.900	2140.676	2123.877
152.746	15.872	2139.181	2121.780
153.760	16.599	2142.559	2134.098
154.775	19.389	2149.781	2176.478
155.789	20.062	2147.947	2182.891
156.804	17.545	2137.126	2139.882
157.819	15.963	2129.703	2112.267
158.833	15.778	2127.056	2107.061
159.848	15.696	2125.535	2104.271
160.862	15.864	2123.731	2104.340
161.877	15.914	2122.571	2103.575
162.892	16.033	2122.046	2104.288
163.906	15.971	2121.098	2102.317
164.921	15.999	2118.728	2100.069
165.935	15.984	2116.822	2097.748
166.950	16.129	2115.544	2098.044
167.964	16.149	2112.487	2095.008
168.979	15.855	2110.402	2089.016
169.994	15.832	2109.101	2087.198
171.008	15.810	2107.625	2085.208
172.023	15.792	2106.379	2083.511
173.037	15.870	2104.775	2082.640
174.052	16.058	2103.670	2083.639
175.067	16.070	2102.091	2081.970
176.081	15.915	2100.147	2077.874
177.096	15.952	2099.244	2077.190
178.110	16.031	2097.823	2076.508
179.125	16.156	2096.356	2076.352
180.140	16.085	2095.685	2074.562
181.154	16.162	2093.281	2072.887
182.169	16.181	2093.887	2073.477
183.183	17.043	2095.708	2085.686
184.198	19.778	2102.801	2126.344
185.213	20.341	2100.251	2130.459
186.227	17.475	2091.150	2085.725
187.242	16.206	2086.744	2065.474
188.256	16.236	2084.220	2063.090
189.271	16.023	2082.483	2058.515
190.286	15.965	2080.672	2055.766
191.300	16.011	2077.714	2053.167
192.315	16.061	2076.846	2052.664
193.329	16.169	2075.858	2052.771
194.344	16.342	2075.725	2054.513
195.359	16.373	2074.671	2053.593
196.373	16.206	2071.073	2047.749
197.388	15.992	2069.015	2042.866
198.402	15.904	2066.778	2039.342
199.417	15.922	2064.453	2037.019
200.432	15.753	2063.832	2034.111
201.446	15.892	2061.436	2033.198
202.461	15.773	2059.606	2029.705
203.475	15.746	2057.416	2026.978
204.490	15.758	2055.878	2025.366
205.504	15.750	2054.592	2023.756
206.519	15.935	2052.029	2023.218
207.534	15.925	2050.034	2020.890
208.548	15.774	2049.261	2018.067
209.563	15.985	2048.406	2019.531
210.577	16.074	2046.654	2018.635
211.592	15.999	2046.679	2017.513
212.607	17.417	2051.989	2039.594
213.621	20.673	2059.113	2085.733
214.636	19.928	2052.975	2070.316
215.650	16.812	2044.451	2024.115
216.665	16.157	2039.838	2011.458
217.680	16.079	2036.884	2007.373
218.694	15.906	2035.221	2003.422
219.709	15.925	2033.128	2001.348
220.723	15.900	2033.175	2000.853
221.738	15.934	2032.113	1999.972
222.753	16.101	2029.641	1999.299
223.767	16.167	2028.216	1998.443
224.782	16.105	2026.641	1995.912
225.796	15.994	2025.666	1993.386
226.811	15.978	2023.489	1990.824
227.826	16.025	2022.022	1989.691
228.840	16.053	2020.579	1988.368
229.855	15.956	2018.367	1984.807
230.869	16.050	2017.590	1984.919
231.884	15.944	2016.309	1982.162
232.899	16.051	2014.568	1981.482
233.913	16.103	2013.126	1980.443
234.928	15.917	2011.744	1976.653
235.942	15.984	2010.496	1975.974
236.957	16.020	2008.294	1973.998
237.972	15.939	2008.063	1972.585
238.986	16.022	2006.005	1971.303
240.001	15.990	2004.595	1969.298
241.015	16.066	2003.454	1968.840
242.030	16.888	2006.292	1981.047
243.045	19.512	2011.729	2017.048
244.059	19.834	2007.744	2016.575
245.074	17.199	1999.185	1976.965
246.088	16.237	1996.070	1962.406
247.103	16.470	1993.837	1962.699
248.117	16.443	1992.239	1960.578
249.132	16.323	1989.834	1956.572
250.147	16.099	1988.452	1952.375
251.161	15.966	1987.805	1949.952
252.176	16.317	1986.152	1952.186
253.190	16.465	1984.676	1952.214
254.205	16.553	1982.196	1950.566
255.220	16.445	1981.338	1948.228
256.234	16.407	1980.950	1947.179
257.249	16.187	1979.611	1943.077
258.263	16.229	1977.612	1941.372
259.278	16.288	1975.682	1939.925
260.293	16.088	1974.200	1935.936
261.307	15.836	1972.352	1930.978
262.322	15.793	1971.303	1929.231
263.336	15.841	1969.151	1927.447
264.351	15.658	1967.455	1923.455
265.366	15.601	1965.985	1921.125
266.380	15.692	1965.353	1921.320
267.395	15.822	1963.634	1920.902
268.409	15.713	1961.827	1917.657
269.424	15.802	1960.640	1917.287
270.439	15.964	1960.257	1918.536
271.453	16.878	1962.376	1930.855
272.468	19.868	1967.981	1970.412
273.482	19.864	1963.597	1965.737
274.497	17.115	1954.285	1924.904
275.512	16.033	1949.823	1907.969
276.526	15.988	1947.501	1904.952
277.541	15.824	1946.097	1901.493
278.555	15.858	1943.703	1899.315
279.570	15.545	1942.759	1894.615
280.585	15.759	1941.556	1895.645
281.599	15.917	1940.008	1895.690
282.614	16.029	1939.396	1896.129
283.628	16.308	1939.960	1899.608
284.643	16.377	1939.155	1899.372
285.657	16.457	1937.528	1898.453
286.672	16.570	1935.952	1897.956
287.687	16.524	1934.241	1895.534
288.701	16.405	1932.485	1892.245
289.716	16.437	1930.836	1890.764
290.730	16.512	1929.579	1890.157
291.745	16.494	1928.851	1889.016
292.760	16.492	1928.158	1888.089
293.774	16.337	1927.195	1885.179
294.789	16.298	1925.338	1882.693
295.803	16.244	1922.367	1878.964
296.818	16.153	1920.971	1876.352
297.833	16.322	1919.839	1876.917
298.847	16.188	1919.462	1874.827
299.862	16.152	1917.977	1872.749
300.876	17.094	1918.610	1883.657
301.891	19.935	1924.766	1921.212
302.906	20.336	1921.691	1922.375
303.920	17.329	1914.278	1881.333
304.935	16.417	1909.951	1866.742
305.949	16.363	1907.724	1863.736
306.964	16.207	1906.357	1860.453
307.979	16.344	1904.122	1859.566
308.993	16.523	1903.820	1861.025
310.008	16.854	1902.097	1862.773
311.022	16.781	1900.712	1860.389
312.037	16.559	1899.475	1856.513
313.052	16.458	1897.515	1853.259
314.066	16.643	1896.636	1854.218
315.081	16.599	1895.521	1852.417
316.095	16.629	1893.916	1850.961
317.110	16.366	1891.718	1845.702
318.125	16.094	1890.504	1841.309
319.139	16.241	1888.904	1841.147
320.154	16.370	1887.730	1841.190
321.168	16.178	1886.112	1837.289
322.183	16.064	1884.548	1834.301
323.197	15.950	1882.559	1830.905
324.212	15.893	1880.401	1827.956
325.227	15.649	1878.546	1823.281
326.241	15.727	1876.910	1822.322
327.256	15.837	1876.118	1822.532
328.270	15.788	1875.345	1821.029
329.285	15.866	1874.910	1821.236
330.300	16.949	1879.152	1836.942
331.314	20.126	1885.817	1877.886
332.329	20.032	1879.404	1870.250
333.343	17.016	1870.886	1828.922
334.358	15.924	1867.105	1813.194
335.373	15.724	1865.013	1808.787
336.387	15.635	1863.218	1805.864
337.402	15.641	1862.342	1804.863
338.416	15.781	1860.499	1804.376
339.431	15.861	1859.613	1804.158
340.446	15.907	1858.158	1803.034
341.460	16.139	1857.166	1804.341
342.475	16.277	1856.202	1804.679
343.489	16.427	1855.232	1805.126
344.504	16.356	1854.528	1803.464
345.519	16.455	1853.004	1802.824
346.533	16.665	1851.248	1803.157
347.548	16.693	1850.478	1802.485
348.562	16.510	1848.876	1798.753
349.577	16.624	1848.014	1798.914
350.592	16.713	1847.820	1799.464
351.606	16.931	1844.836	1798.664
352.621	16.826	1842.856	1795.407
353.635	16.580	1841.500	1791.251
354.650	16.317	1840.173	1786.949
355.665	16.255	1838.633	1784.580
356.679	16.234	1837.124	1782.675
357.694	16.284	1835.474	1781.394
358.708	16.215	1834.084	1779.104
359.723	17.469	1838.010	1796.005
360.738	20.324	1842.803	1830.784
361.752	19.521	1837.359	1816.665
362.767	16.924	1831.138	1782.891
363.781	16.312	1827.155	1772.345
364.796	16.164	1825.976	1769.421
365.810	15.979	1825.140	1766.453
366.825	16.048	1823.861	1765.732
367.840	16.361	1823.057	1768.037
368.854	16.375	1822.227	1767.161
369.869	16.286	1819.700	1763.573
370.883	16.060	1818.333	1759.662
371.898	16.119	1816.876	1758.664
372.913	16.046	1816.126	1756.957
373.927	16.152	1815.042	1756.812
374.942	16.202	1814.035	1756.144
375.956	16.258	1812.130	1754.675
376.971	16.219	1810.563	1752.548
377.986	16.156	1809.200	1750.353
379.000	15.923	1807.775	1746.343
380.015	16.108	1806.304	1746.636
381.029	16.137	1802.703	1743.244
382.044	15.937	1801.310	1739.612
383.059	15.822	1799.906	1736.856
384.073	15.807	1799.258	1735.868
385.088	15.881	1796.924	1734.173
386.102	15.986	1796.147	1734.302
387.117	15.777	1795.144	1730.967
388.132	15.797	1794.745	1730.586
389.146	16.811	1798.837	1744.824
390.161	20.027	1803.970	1782.922
391.175	19.728	1796.326	1772.075
392.190	16.838	1787.512	1733.495
393.205	16.073	1785.247	1723.235
394.219	15.970	1783.487	1720.264
395.234	15.827	1782.404	1717.553
396.248	15.822	1781.185	1716.116
397.263	15.904	1778.280	1713.953
398.278	16.016	1776.852	1713.520
399.292	15.973	1776.181	1712.230
400.307	15.968	1775.478	1711.287
401.321	15.966	1774.878	1710.487
402.336	16.064	1773.426	1709.887
403.350	16.136	1772.212	1709.239
404.365	16.261	1770.393	1708.556
405.380	16.559	1770.523	1711.510
406.394	16.703	1769.350	1711.635
407.409	16.612	1767.343	1708.564
408.423	16.669	1766.407	1708.034
409.438	16.587	1764.600	1705.252
410.453	16.419	1763.951	1702.716
411.467	16.542	1763.224	1703.050
412.482	16.403	1761.396	1699.679
413.496	16.278	1759.283	1696.177
414.511	16.241	1757.300	1693.688
415.526	16.274	1754.988	1691.585
416.540	16.193	1753.106	1688.753
417.555	16.286	1752.930	1689.320
418.569	16.337	1753.495	1690.176
419.584	16.526	1753.487	1691.870
420.599	16.360	1753.040	1689.565
421.613	16.330	1751.634	1687.707
422.628	16.295	1749.893	1685.469
423.642	16.120	1747.801	1681.499
424.657	16.215	1746.815	1681.307
425.672	16.416	1744.799	1681.169
426.686	16.416	1743.572	1679.792
427.701	16.414	1741.999	1678.058
428.715	16.449	1740.945	1677.189
429.730	16.666	1740.204	1678.436
430.745	16.618	1739.190	1676.779
431.759	16.657	1738.745	1676.540
432.774	16.800	1739.304	1678.299
433.788	17.560	1737.608	1684.016
434.803	17.626	1737.858	1684.715
435.818	17.575	1737.530	1683.693
436.832	17.277	1736.933	1679.948
437.847	16.364	1729.956	1663.963
438.861	9.011	1709.381	1571.796
439.876	1.600	1695.966	1486.671
440.890	0.174	1692.553	1469.518
441.905	0.115	1691.329	1467.706
442.920	0.049	1690.411	1466.079
443.934	0.099	1689.115	1465.270
444.949	0.074	1687.532	1463.482
445.963	0.133	1686.759	1463.208
446.978	0.132	1686.081	1462.438
447.993	0.026	1684.752	1460.072
449.007	0.003	1682.547	1457.770
450.022	0.169	1679.993	1456.997
451.036	0.122	1678.991	1455.490
452.051	1.159	1683.348	1469.195
453.066	8.551	1699.617	1555.703
454.080	15.820	1710.827	1637.090
455.095	17.272	1712.753	1652.947
456.109	17.690	1712.236	1656.329
457.124	17.743	1712.133	1656.548
458.139	17.827	1711.369	1656.432
459.153	17.796	1710.268	1654.869
460.168	17.906	1708.027	1653.570
461.182	17.671	1707.081	1650.166
462.197	17.692	1705.610	1648.757
463.212	17.787	1703.049	1647.000
464.226	17.649	1702.412	1644.850
465.241	17.786	1701.482	1645.080
466.255	17.871	1701.130	1645.371
467.270	17.850	1699.108	1643.014
468.285	17.617	1697.683	1639.190
469.299	17.737	1695.969	1638.501
470.314	17.776	1694.640	1637.393
471.328	17.741	1693.541	1635.794
472.343	17.832	1692.001	1634.991
473.358	17.831	1691.411	1634.220
474.372	17.748	1690.600	1632.437
475.387	17.748	1688.429	1630.146
476.401	17.616	1686.834	1627.143
477.416	17.681	1686.774	1627.509
478.430	17.737	1685.338	1626.470
479.445	17.739	1683.375	1624.396
480.460	17.583	1681.769	1621.165
481.474	17.699	1681.216	1621.547
482.489	17.872	1680.101	1621.928
483.503	17.900	1678.163	1620.130
484.518	17.881	1677.100	1618.731
485.533	17.872	1676.074	1617.460
486.547	17.874	1674.650	1615.913
487.562	18.070	1673.311	1616.285
488.576	17.952	1672.419	1614.115
489.591	17.953	1671.025	1612.581
490.606	17.848	1669.182	1609.620
491.620	17.882	1668.346	1608.945
492.635	18.086	1667.148	1609.521
493.649	18.102	1665.622	1608.006
494.664	17.948	1663.571	1604.382
495.679	17.545	1662.089	1598.954
496.693	17.641	1660.787	1598.421
497.708	17.819	1660.096	1599.243
498.722	17.971	1659.093	1599.510
499.737	18.117	1657.352	1599.013
500.752	17.879	1655.880	1595.172
501.766	17.834	1654.633	1593.355
502.781	17.859	1653.247	1592.068
503.795	17.913	1651.519	1590.711
504.810	17.811	1651.296	1589.358
505.825	17.964	1651.003	1590.317
506.839	17.963	1649.214	1588.395
507.854	17.921	1647.819	1586.462
508.868	18.044	1645.894	1585.567
509.883	18.120	1645.022	1585.249
510.898	18.193	1643.901	1584.657
511.912	17.958	1642.761	1581.182
512.927	17.882	1640.669	1578.278
513.941	17.943	1638.968	1577.019
514.956	17.871	1637.459	1574.703
515.971	17.873	1636.544	1573.656
516.985	17.836	1636.083	1572.680
518.000	17.975	1635.128	1572.864
519.014	18.109	1634.778	1573.577
520.029	18.075	1634.086	1572.412
521.043	18.111	1631.462	1570.032
522.058	18.097	1629.783	1568.092
523.073	17.993	1630.368	1567.513
524.087	18.378	1629.185	1569.735
525.102	18.329	1626.818	1566.810
526.116	18.169	1625.387	1563.774
527.131	18.033	1624.414	1561.404
528.146	18.092	1624.420	1561.766
529.160	18.175	1622.633	1560.624
530.175	18.217	1621.383	1559.622
531.189	18.269	1620.510	1559.073
532.204	18.345	1618.893	1558.026
533.219	18.030	1618.311	1554.394
534.233	17.990	1616.632	1552.231
535.248	18.146	1615.853	1552.718
536.262	18.212	1615.930	1553.211
537.277	18.285	1614.361	1552.179
538.292	18.138	1612.034	1548.423
539.306	18.082	1610.192	1545.957
540.321	18.167	1608.798	1545.206
541.335	17.973	1608.313	1542.789
542.350	18.166	1606.432	1542.557
543.365	18.249	1605.051	1541.798
544.379	18.222	1603.991	1540.349
545.394	18.265	1602.712	1539.325
546.408	18.195	1600.664	1536.544
547.423	17.971	1600.004	1533.701
548.438	17.872	1598.696	1531.372
549.452	18.065	1597.525	1531.809
550.467	18.221	1595.825	1531.394
551.481	18.079	1595.855	1529.963
552.496	18.208	1594.958	1530.078
553.511	18.322	1593.524	1529.547
554.525	18.223	1593.029	1527.999
555.540	18.400	1592.223	1528.631
556.554	18.328	1591.499	1527.110
557.569	18.366	1589.429	1525.275
558.583	18.274	1587.616	1522.536
559.598	18.337	1586.199	1521.555
560.613	18.232	1585.295	1519.565
561.627	18.410	1583.911	1519.646
562.642	18.413	1582.368	1518.013
563.656	18.476	1581.775	1517.818
564.671	18.507	1580.703	1516.885
565.686	18.526	1578.913	1515.154
566.700	18.484	1576.700	1512.477
567.715	18.315	1575.915	1510.050
568.729	18.111	1574.709	1506.905
569.744	17.922	1573.216	1503.618
570.759	17.890	1573.169	1503.109
571.773	18.018	1571.685	1502.646
572.788	18.376	1570.579	1504.572
573.802	18.214	1569.400	1501.830
574.817	18.406	1568.002	1502.008
575.832	18.445	1567.122	1501.328
576.846	18.546	1564.842	1499.851
577.861	18.479	1563.587	1497.882
578.875	18.465	1563.866	1497.843
579.890	18.675	1562.364	1498.071
580.905	18.501	1561.796	1495.822
581.919	18.634	1560.819	1495.868
582.934	18.582	1559.969	1494.423
583.948	18.620	1558.755	1493.417
584.963	18.555	1556.814	1490.811
585.978	18.517	1555.134	1488.686
586.992	18.478	1555.621	1488.640
588.007	18.597	1554.627	1488.544
589.021	18.398	1552.627	1484.718
590.036	18.232	1550.920	1481.466
591.051	18.257	1550.582	1481.176
592.065	18.528	1549.154	1481.992
593.080	18.603	1547.353	1480.745
594.094	18.624	1545.263	1478.753
595.109	18.514	1543.307	1475.746
596.123	18.177	1542.467	1471.856
597.138	18.331	1542.041	1472.607
598.153	18.434	1540.634	1471.974
599.167	18.401	1539.772	1470.685
600.182	18.510	1539.220	1470.926
601.196	18.550	1537.933	1469.863
602.211	18.522	1535.978	1467.577
603.226	18.716	1535.592	1468.700
604.240	18.758	1533.477	1466.865
605.255	18.948	1532.679	1467.555
606.269	18.627	1532.304	1464.265
607.284	18.709	1530.638	1463.205
608.299	18.648	1529.626	1461.537
609.313	18.666	1527.856	1459.830
610.328	18.565	1527.152	1458.115
611.342	18.616	1525.412	1456.713
612.357	18.753	1524.980	1457.293
613.372	18.708	1524.241	1456.030
614.386	18.739	1522.956	1454.898
615.401	18.887	1522.245	1455.300
616.415	18.786	1521.760	1453.804
617.430	18.643	1521.249	1451.924
618.445	18.830	1519.273	1451.457
619.459	18.688	1518.639	1449.469
620.474	18.608	1517.095	1447.147
621.488	18.271	1515.105	1442.215
622.503	18.247	1513.789	1440.591
623.518	18.365	1513.180	1440.838
624.532	18.635	1512.581	1442.373
625.547	18.608	1512.138	1441.550
626.561	18.785	1511.198	1441.975
627.576	18.835	1509.994	1441.073
628.591	18.762	1507.071	1437.503
629.605	18.446	1506.290	1433.927
630.620	18.385	1505.116	1432.123
631.634	18.122	1504.426	1429.085
632.649	18.337	1502.747	1429.124
633.663	18.510	1501.764	1429.467
634.678	18.756	1500.343	1430.006
635.693	18.752	1500.152	1429.617
636.707	18.953	1498.512	1429.568
637.722	18.975	1497.754	1428.851
638.736	19.041	1496.681	1428.210
639.751	18.971	1495.219	1426.059
640.766	18.969	1493.662	1424.390
641.780	18.896	1492.280	1422.293
642.795	19.005	1491.728	1422.502
643.809	18.970	1491.545	1421.868
644.824	18.999	1489.944	1420.411
645.839	18.920	1489.224	1418.895
646.853	18.775	1488.375	1416.718
647.868	18.885	1486.828	1415.987
648.882	18.966	1484.957	1414.705
649.897	18.909	1483.485	1412.665
650.912	18.979	1481.936	1411.592
651.926	18.963	1480.952	1410.361
652.941	18.656	1479.775	1406.539
653.955	18.534	1478.220	1403.891
654.970	18.530	1476.353	1401.912
655.985	18.487	1474.937	1400.049
656.999	18.459	1474.036	1398.798
658.014	18.681	1473.145	1399.607
659.028	18.613	1472.807	1398.557
660.043	18.767	1472.540	1399.399
661.058	19.008	1470.669	1399.423
662.072	19.045	1469.580	1398.525
663.087	19.024	1468.474	1397.133
664.101	18.794	1467.424	1394.085
665.116	18.885	1467.028	1394.284
666.131	18.906	1465.798	1393.119
667.145	19.026	1464.799	1392.980
668.160	19.026	1463.684	1391.754
669.174	19.095	1462.491	1391.016
670.189	19.201	1461.373	1390.643
671.204	18.827	1460.525	1386.636
672.218	18.986	1459.816	1387.089
673.233	19.114	1457.817	1386.060
674.247	19.140	1457.224	1385.542
675.262	19.120	1455.975	1384.022
676.276	19.215	1455.147	1383.842
677.291	18.987	1454.378	1381.104
678.306	18.853	1452.987	1378.533
679.320	19.053	1451.599	1378.668
680.335	19.056	1451.936	1378.840
681.349	19.203	1450.346	1378.349
682.364	19.044	1449.561	1376.165
683.379	19.019	1448.111	1374.421
684.393	19.119	1446.166	1373.210
685.408	19.105	1445.442	1372.250
686.422	19.030	1444.460	1370.551
687.437	19.022	1444.140	1370.017
688.452	19.217	1443.549	1370.855
689.466	19.106	1442.359	1368.670
690.481	18.965	1440.688	1365.794
691.495	18.726	1438.990	1362.122
692.510	18.713	1436.793	1359.771
693.525	18.494	1435.009	1356.177
694.539	18.444	1434.786	1355.411
695.554	18.923	1434.834	1359.096
696.568	19.076	1433.975	1359.338
697.583	19.215	1433.445	1359.779
698.598	19.175	1432.646	1358.536
699.612	19.236	1431.270	1357.554
700.627	19.355	1430.179	1357.294
701.641	19.254	1429.278	1355.478
702.656	19.161	1428.185	1353.545
703.671	19.211	1427.349	1352.988
704.685	19.369	1426.800	1353.552
705.700	19.083	1425.774	1350.162
706.714	19.268	1423.858	1349.643
707.729	19.193	1422.342	1347.452
708.744	18.936	1420.929	1343.935
709.758	18.980	1419.253	1342.535
710.773	18.920	1418.370	1341.069
711.787	18.996	1416.638	1339.864
712.802	18.858	1415.845	1337.874
713.816	18.928	1415.599	1338.033
714.831	19.002	1414.709	1337.609
715.846	19.231	1413.655	1338.242
716.860	19.458	1411.574	1337.877
717.875	19.255	1411.148	1335.736
718.889	19.147	1410.007	1333.649
719.904	19.354	1408.576	1333.748
720.919	19.279	1408.704	1333.125
721.933	19.385	1408.007	1333.135
722.948	19.410	1406.336	1331.582
723.962	19.358	1405.392	1330.128
724.977	19.444	1403.938	1329.261
725.992	19.453	1403.371	1328.631
727.006	19.312	1402.052	1326.136
728.021	19.350	1400.866	1325.147
729.035	19.558	1399.356	1325.167
730.050	19.484	1398.331	1323.468
731.065	19.492	1397.049	1322.152
732.079	19.514	1396.059	1321.231
733.094	19.439	1395.050	1319.542
734.108	19.336	1393.706	1317.316
735.123	19.235	1392.241	1315.003
736.138	19.339	1391.517	1314.957
737.152	19.397	1391.264	1315.009
738.167	19.431	1390.119	1314.028
739.181	19.513	1388.716	1313.169
740.196	19.539	1387.957	1312.492
741.211	19.554	1387.203	1311.741
742.225	19.413	1385.920	1309.295
743.240	19.441	1385.048	1308.525
744.254	19.432	1383.738	1307.065
745.269	19.468	1382.617	1306.123
746.284	19.494	1381.470	1305.077
747.298	19.261	1380.584	1302.320
748.313	19.002	1379.234	1298.920
749.327	18.905	1377.769	1296.654
750.342	18.526	1377.438	1293.309
751.356	18.602	1375.139	1291.574
752.371	18.693	1374.727	1291.718
753.386	19.053	1374.337	1293.921
754.400	19.305	1373.525	1294.901
755.415	19.538	1372.832	1295.854
756.429	19.494	1371.070	1293.704
757.444	19.502	1370.258	1292.841
758.459	19.456	1370.021	1292.116
759.473	19.716	1368.547	1292.531
760.488	19.758	1366.931	1291.161
761.502	19.649	1365.545	1288.878
762.517	19.689	1364.279	1287.830
763.532	19.510	1363.471	1285.572
764.546	19.208	1362.623	1282.363
765.561	19.155	1361.288	1280.553
766.575	18.914	1359.903	1277.303
767.590	18.806	1359.319	1275.790
768.605	19.119	1357.522	1276.283
769.619	19.285	1356.976	1276.858
770.634	19.356	1356.340	1276.636
771.648	19.556	1355.862	1277.521
772.663	19.757	1354.691	1277.759
773.678	19.693	1354.366	1276.822
774.692	19.649	1353.431	1275.463
775.707	19.507	1353.251	1274.082
776.721	19.685	1352.576	1274.612
777.736	19.687	1350.841	1272.846
778.751	19.619	1349.973	1271.367
779.765	19.584	1349.211	1270.243
780.780	19.530	1348.143	1268.683
781.794	19.671	1346.707	1268.219
782.809	19.644	1345.063	1266.325
783.824	19.486	1343.853	1263.870
784.838	19.120	1342.660	1259.907
785.853	18.670	1341.632	1255.480
786.867	18.899	1341.280	1256.681
787.882	19.049	1340.518	1256.923
788.897	19.255	1339.994	1257.789
789.911	19.251	1339.139	1256.805
790.926	19.424	1337.011	1255.929
791.940	19.488	1336.230	1255.512
792.955	19.388	1335.590	1254.028
793.969	19.605	1334.088	1254.053
794.984	19.607	1333.061	1252.950
795.999	19.763	1332.548	1253.454
797.013	19.749	1330.881	1251.635
798.028	19.709	1329.551	1249.947
799.042	19.712	1329.019	1249.319
800.057	19.827	1328.247	1249.278
801.072	19.846	1326.535	1247.654
802.086	19.645	1325.782	1245.341
803.101	19.825	1324.763	1245.536
804.115	19.712	1323.460	1243.346
805.130	19.759	1322.475	1242.612
806.145	19.606	1321.168	1240.131
807.159	19.837	1319.404	1239.988
808.174	19.640	1318.258	1237.345
809.188	19.457	1317.883	1235.529
810.203	19.341	1315.827	1232.623
811.218	19.339	1314.435	1231.153
812.232	19.153	1312.548	1227.904
813.247	19.029	1311.957	1226.318
814.261	19.234	1311.606	1227.308
815.276	19.534	1310.956	1228.701
816.291	19.555	1310.317	1228.105
817.305	19.689	1309.827	1228.461
818.320	19.781	1308.120	1227.368
819.334	19.737	1306.570	1225.455
820.349	19.710	1305.037	1223.677
821.364	19.738	1303.450	1222.242
822.378	19.928	1302.280	1222.347
823.393	19.875	1300.557	1220.208
824.407	19.828	1299.541	1218.775
825.422	19.638	1299.669	1217.406
826.437	19.574	1298.441	1215.657
827.451	19.414	1296.507	1212.566
828.466	19.004	1294.969	1208.092
829.480	18.954	1292.633	1205.413
830.495	19.159	1291.828	1205.959
831.509	19.305	1291.455	1206.497
832.524	19.493	1290.906	1207.161
833.539	19.557	1289.880	1206.507
834.553	19.636	1289.171	1206.251
835.568	19.645	1288.288	1205.346
836.582	19.672	1286.739	1203.944
837.597	19.925	1284.963	1203.905
838.612	19.756	1283.739	1201.435
839.626	19.747	1282.301	1199.883
840.641	19.472	1281.808	1197.358
841.655	19.411	1280.776	1195.826
842.670	19.159	1279.510	1192.748
843.685	18.931	1277.705	1189.338
844.699	19.269	1277.291	1191.159
845.714	19.549	1276.441	1192.168
846.728	19.613	1275.690	1191.768
847.743	19.627	1274.945	1191.026
848.758	19.645	1273.525	1189.677
849.772	19.786	1272.388	1189.450
850.787	19.654	1271.545	1187.607
851.801	19.761	1269.930	1186.696
852.816	19.750	1268.357	1185.006
853.831	19.758	1266.576	1183.259
854.845	19.707	1264.873	1181.171
855.860	19.566	1263.457	1178.740
856.874	19.482	1262.225	1176.874
857.889	19.414	1261.007	1175.131
858.904	19.150	1259.424	1171.715
859.918	18.844	1257.632	1167.816
860.933	18.765	1256.366	1165.960
861.947	19.112	1255.897	1167.756
862.962	19.388	1254.962	1168.627
863.977	19.444	1253.812	1167.797
864.991	19.423	1254.005	1167.692
866.006	19.563	1253.526	1168.059
867.020	19.582	1252.056	1166.675
868.035	19.806	1250.849	1166.934
869.049	19.721	1250.805	1166.175
870.064	19.989	1248.944	1166.115
871.079	19.922	1247.850	1164.498
872.093	19.785	1247.929	1163.508
873.108	19.830	1246.771	1162.594
874.122	19.623	1245.306	1159.689
875.137	19.438	1244.891	1157.918
876.152	19.373	1243.494	1156.042
877.166	19.504	1241.645	1155.068
878.181	19.824	1240.313	1155.836
879.195	19.851	1240.674	1156.217
880.210	19.813	1240.335	1155.510
881.225	19.738	1239.476	1154.066
882.239	19.985	1238.075	1154.281
883.254	19.859	1237.057	1152.347
884.268	19.889	1236.245	1151.657
885.283	19.889	1234.654	1150.034
886.298	19.850	1233.247	1148.326
887.312	19.887	1232.092	1147.358
888.327	19.944	1231.251	1146.818
889.341	19.880	1230.204	1145.282
890.356	19.675	1229.682	1143.292
891.371	19.692	1229.091	1142.724
892.385	19.616	1228.589	1141.613
893.400	19.694	1227.434	1140.917
894.414	19.667	1225.058	1138.397
895.429	19.581	1222.747	1135.547
896.444	19.101	1220.955	1130.578
897.458	18.790	1220.353	1127.833
898.473	19.168	1219.911	1129.782
899.487	19.395	1219.719	1130.963
900.502	19.610	1218.888	1131.471
901.517	19.764	1217.800	1131.341
902.531	19.879	1216.870	1131.100
903.546	19.828	1216.320	1130.119
904.560	19.966	1216.057	1130.641
905.575	19.932	1215.243	1129.527
906.589	20.036	1213.843	1128.770
907.604	19.913	1212.929	1126.985
