DTS Sentinel unit serial number:	SN409020Multiplexer serial number:	ORYXHardware model number:	OX4-SRSoftware version number:	ORYX F/W v3.00 Oryx Data Collector v3.7.2.0data status	okinstallation	HaddamTimeLapsedifferential loss correction	single-endedforward channel	channel 3reverse channel	N/Adate	2011/06/22time	00:01:17forward acquisition time	30.00reverse acquisition time	0.00gamma	498.7831k internal	0.1753k external	0.1753temperature offset calibration	1.0074default loss term (dB/km)	0.3790temperature slope calibration	1.3530multiplexer offset coefficient	1.0000multiplexer slope coefficient	1.0000fibre end	0.00T internal ref (°C)	22.91T ext. ref 1 (°C)	18.16T ext. ref 2 (°C)	0.05length (m)	temperature (°C)	Stokes	anti-Stokes-747.200	800.000	0.030	0.169
-746.185	-80.850	-0.194	-0.085
-745.171	-60.969	-0.646	-0.361
-744.156	51.107	-0.192	0.241
-743.142	14.173	-0.186	-0.192
-742.127	-82.860	-0.729	0.311
-741.112	-102.061	0.191	0.061
-740.098	-92.427	-0.474	0.176
-739.083	-98.756	-0.417	0.140
-738.069	133.400	-0.132	0.227
-737.054	100.584	0.178	0.275
-736.039	800.000	-0.176	-0.746
-735.025	-147.878	0.248	0.027
-734.010	-22.170	0.282	0.226
-732.996	376.571	0.103	0.281
-731.981	242.198	-0.186	-0.415
-730.966	132.717	-0.030	0.051
-729.952	-70.473	-0.177	-0.089
-728.937	-55.716	-0.196	-0.116
-727.923	86.219	0.387	-0.567
-726.908	210.940	-0.205	0.429
-725.894	162.381	0.061	0.113
-724.879	-45.517	-0.227	-0.149
-723.864	-200.000	-0.001	-0.393
-722.850	33.523	-0.063	-0.072
-721.835	-121.764	-0.548	-0.119
-720.821	-169.491	-0.344	0.016
-719.806	-90.269	0.343	-0.132
-718.791	-91.848	0.266	0.100
-717.777	-72.722	-0.416	-0.202
-716.762	-56.977	0.249	-0.145
-715.748	-77.205	0.194	-0.089
-714.733	-64.291	-0.445	0.239
-713.718	536.678	0.099	-0.314
-712.704	3.312	0.342	0.329
-711.689	70.255	0.224	0.307
-710.675	64.433	0.170	0.227
-709.660	514.913	0.055	-0.172
-708.645	381.948	-0.145	-0.395
-707.631	57.894	-0.376	-0.488
-706.616	-34.196	-0.089	0.064
-705.602	602.996	0.084	0.278
-704.587	-94.251	-0.339	-0.122
-703.572	-98.949	0.078	0.026
-702.558	113.396	0.118	0.190
-701.543	-112.681	-0.580	-0.152
-700.529	-200.000	-0.042	-0.549
-699.514	-64.633	0.297	-0.159
-698.499	-151.950	-0.308	0.029
-697.485	-104.401	0.361	-0.110
-696.470	-200.000	-0.043	-0.416
-695.456	-154.489	-0.280	-0.025
-694.441	-27.716	0.105	0.080
-693.426	467.526	0.086	0.256
-692.412	-112.072	0.241	0.064
-691.397	-43.256	-0.291	0.195
-690.383	-69.297	-0.252	-0.128
-689.368	-108.372	-0.687	-0.195
-688.354	-57.835	-0.154	-0.089
-687.339	-91.602	0.277	-0.104
-686.324	-144.868	-0.465	0.056
-685.310	-106.533	-0.195	-0.057
-684.295	442.182	0.061	-0.177
-683.281	-200.000	0.041	-0.421
-682.266	342.436	-0.127	0.331
-681.251	-200.000	0.011	-0.218
-680.237	-109.133	0.325	0.091
-679.222	68.433	0.172	0.234
-678.208	-87.158	0.268	0.107
-677.193	800.000	-0.065	0.288
-676.178	-176.894	-0.338	0.011
-675.164	-24.376	0.218	-0.172
-674.149	136.296	0.209	0.361
-673.135	-71.042	0.269	0.133
-672.120	-200.000	-0.022	0.391
-671.105	-46.582	-0.139	-0.090
-670.091	743.220	0.188	0.672
-669.076	-200.000	0.000	0.079
-668.062	-200.000	0.048	-0.445
-667.047	80.687	0.380	-0.542
-666.032	-47.893	0.404	0.258
-665.018	4.635	-0.124	0.121
-664.003	36.969	-0.046	0.054
-662.989	-63.064	-0.146	-0.080
-661.974	-65.034	-0.106	-0.057
-660.959	800.000	-0.107	0.393
-659.945	-86.942	0.248	0.100
-658.930	-46.507	-0.171	-0.111
-657.916	-12.750	-0.214	-0.185
-656.901	258.803	-0.264	0.604
-655.886	-13.295	0.314	0.269
-654.872	-136.608	0.059	-0.009
-653.857	717.376	0.196	-0.691
-652.843	-110.573	-0.280	-0.076
-651.828	-138.611	0.356	0.051
-650.814	-200.000	-0.043	0.274
-649.799	-134.218	0.392	-0.063
-648.784	89.042	-0.251	0.370
-647.770	286.341	-0.137	0.328
-646.755	520.730	-0.179	-0.559
-645.741	320.580	-0.042	-0.105
-644.726	14.187	0.400	0.412
-643.711	-100.373	0.368	0.120
-642.697	-200.000	-0.066	-0.887
-641.682	-158.495	0.224	-0.017
-640.668	329.248	0.145	-0.370
-639.653	-200.000	0.020	-0.515
-638.638	-26.500	0.271	0.210
-637.624	188.352	-0.308	-0.610
-636.609	-65.723	0.243	-0.128
-635.595	-75.765	0.221	-0.103
-634.580	-149.092	0.324	-0.034
-633.565	294.518	-0.167	-0.405
-632.551	184.211	0.153	-0.300
-631.536	111.981	-0.013	0.020
-630.522	800.000	-0.060	0.314
-629.507	122.586	0.179	0.296
-628.492	-38.417	0.158	0.110
-627.478	0.396	-0.392	-0.369
-626.463	-128.834	-0.596	0.110
-625.449	-37.150	-0.137	-0.097
-624.434	2.650	-0.286	0.274
-623.419	-200.000	-0.001	-0.089
-622.405	-148.849	0.352	-0.037
-621.390	-64.596	-0.193	-0.103
-620.376	-155.297	-0.367	0.031
-619.361	295.351	-0.118	-0.286
-618.346	484.412	-0.182	-0.548
-617.332	-27.798	-0.368	-0.281
-616.317	-10.101	-0.191	-0.167
-615.303	800.000	-0.016	0.061
-614.288	13.781	0.140	0.144
-613.273	33.660	0.185	-0.212
-612.259	-75.619	-0.213	0.099
-611.244	111.968	-0.256	-0.409
-610.230	11.682	0.376	0.381
-609.215	-102.287	0.415	0.131
-608.201	-157.255	-0.246	-0.019
-607.186	69.141	0.129	0.175
-606.171	-47.590	-0.337	0.215
-605.157	-8.941	-0.275	0.243
-604.142	-123.942	0.450	-0.093
-603.128	-101.954	-0.556	-0.176
-602.113	-47.093	-0.133	-0.085
-601.098	9.209	-0.116	0.116
-600.084	67.130	-0.220	-0.296
-599.069	800.000	0.076	0.292
-598.055	21.701	-0.403	0.433
-597.040	687.162	0.107	-0.371
-596.025	800.000	-0.083	-0.343
-595.011	-76.947	-0.490	-0.225
-593.996	-114.288	-0.345	-0.087
-592.982	800.000	-0.144	-0.675
-591.967	750.723	-0.109	0.390
-590.952	168.224	-0.191	-0.360
-589.938	-7.856	-0.237	0.211
-588.923	572.898	0.052	-0.170
-587.909	86.682	0.050	0.072
-586.894	127.345	-0.288	0.483
-585.879	-149.315	0.301	-0.031
-584.865	800.000	-0.093	0.347
-583.850	204.571	-0.200	0.411
-582.836	203.971	0.133	-0.273
-581.821	61.616	-0.102	-0.134
-580.806	-101.306	-0.089	-0.029
-579.792	247.196	0.069	-0.154
-578.777	-53.488	0.119	0.071
-577.763	800.000	-0.045	0.207
-576.748	-41.407	0.395	-0.267
-575.733	-46.909	-0.080	0.051
-574.719	-200.000	-0.018	-0.202
-573.704	-56.780	0.250	-0.145
-572.690	651.036	-0.082	0.278
-571.675	280.511	-0.112	0.265
-570.661	404.836	0.093	0.260
-569.646	-200.000	0.010	0.191
-568.631	-200.000	-0.022	0.348
-567.617	-184.704	0.263	0.005
-566.602	29.821	-0.325	-0.364
-565.588	56.140	-0.140	0.179
-564.573	800.000	0.143	0.527
-563.558	121.431	-0.120	-0.197
-562.544	-140.831	-0.736	0.099
-561.529	800.000	-0.091	0.472
-560.515	-20.532	-0.604	0.488
-559.500	76.210	0.243	0.339
-558.485	-51.511	0.044	0.027
-557.471	-41.947	-0.473	0.318
-556.456	-83.264	-0.112	-0.047
-555.442	39.218	0.550	0.649
-554.427	25.408	-0.097	-0.106
-553.412	-106.284	0.098	-0.029
-552.398	27.313	0.475	-0.526
-551.383	187.439	0.205	-0.404
-550.369	800.000	0.075	0.307
-549.354	-10.346	0.394	-0.344
-548.339	-121.837	0.143	-0.031
-547.325	-18.530	-0.342	-0.281
-546.310	-68.505	0.385	0.196
-545.296	131.446	0.048	-0.082
-544.281	-10.746	-0.139	-0.121
-543.266	800.000	-0.129	0.638
-542.252	390.620	-0.016	-0.045
-541.237	12.852	0.087	0.089
-540.223	-35.382	-0.439	0.313
-539.208	-200.000	-0.022	0.145
-538.193	-64.314	-0.105	0.056
-537.179	-44.916	-0.337	0.221
-536.164	674.780	0.078	0.268
-535.150	787.176	0.058	0.211
-534.135	-125.243	0.182	0.036
-533.121	436.911	0.136	-0.392
-532.106	-80.051	0.036	-0.016
-531.091	-125.704	-0.164	-0.032
-530.077	800.000	0.090	-0.517
-529.062	5.225	0.038	-0.037
-528.048	-200.000	0.029	-0.268
-527.033	-26.125	0.124	-0.096
-526.018	-67.741	-0.540	-0.277
-525.004	216.296	0.355	-0.745
-523.989	151.447	0.167	0.300
-522.975	32.786	-0.347	-0.395
-521.960	-9.967	-0.029	-0.025
-520.945	166.571	-0.199	-0.373
-519.931	-110.100	-0.460	0.125
-518.916	-37.300	-0.271	0.190
-517.902	85.673	-0.205	0.298
-516.887	439.989	0.105	-0.303
-515.872	61.710	0.047	0.062
-514.858	-122.300	0.566	-0.121
-513.843	-104.246	0.245	-0.074
-512.829	566.525	0.085	0.274
-511.814	5.731	-0.182	-0.176
-510.799	64.874	-0.094	-0.125
-509.785	-65.201	-0.316	0.167
-508.770	246.990	-0.166	-0.369
-507.756	203.722	0.176	-0.359
-506.741	-130.534	-0.342	0.060
-505.726	38.004	-0.198	0.231
-504.712	86.870	-0.056	0.081
-503.697	-41.464	-0.157	-0.106
-502.683	140.112	-0.030	-0.053
-501.668	-67.830	-0.531	-0.272
-500.653	-143.339	-0.475	-0.059
-499.639	167.048	0.406	0.760
-498.624	142.467	0.076	-0.133
-497.610	-65.556	0.327	-0.172
-496.595	-125.430	0.139	0.028
-495.581	137.756	0.093	0.160
-494.566	-200.000	0.008	-0.709
-493.551	115.314	0.022	0.036
-492.537	-80.503	-0.045	0.020
-491.522	-65.702	-0.065	-0.034
-490.508	-160.928	-0.415	-0.028
-489.493	-171.655	0.539	0.023
-488.478	-162.759	0.497	0.031
-487.464	299.383	0.169	-0.411
-486.449	-49.810	-0.331	-0.206
-485.435	-38.783	-0.193	0.133
-484.420	-58.823	-0.281	-0.159
-483.405	-0.531	0.403	0.375
-482.391	51.122	0.124	0.154
-481.376	-34.960	0.455	-0.325
-480.362	-3.041	0.237	-0.217
-479.347	766.930	0.077	-0.278
-478.332	43.634	0.135	-0.163
-477.318	108.238	0.206	-0.323
-476.303	-103.850	-0.098	0.030
-475.289	-200.000	0.026	-0.259
-474.274	-85.178	-0.499	-0.204
-473.259	-127.926	0.465	0.087
-472.245	0.617	0.457	0.429
-471.230	35.961	0.385	0.445
-470.216	-22.655	0.206	0.163
-469.201	800.000	0.157	0.678
-468.186	58.628	0.244	-0.315
-467.172	33.248	0.263	-0.299
-466.157	-83.077	-0.379	0.159
-465.143	2.885	0.301	0.286
-464.128	308.960	0.165	-0.407
-463.113	98.286	0.272	0.412
-462.099	-23.315	-0.146	-0.115
-461.084	-49.784	0.417	0.259
-460.070	-52.414	-0.270	0.164
-459.055	101.343	-0.323	-0.495
-458.040	-98.744	-0.113	-0.038
-457.026	-200.000	0.041	0.300
-456.011	-136.627	0.610	0.092
-454.997	182.543	0.144	0.279
-453.982	-5.707	0.507	-0.455
-452.968	-21.362	0.287	-0.230
-451.953	-168.063	0.442	0.022
-450.938	-104.370	0.433	-0.131
-449.924	82.386	-0.197	0.281
-448.909	362.992	-0.182	-0.481
-447.895	-86.370	0.091	-0.037
-446.880	133.567	-0.213	0.363
-445.865	-9.589	-0.095	-0.083
-444.851	-62.308	-0.360	0.196
-443.836	63.835	0.250	0.330
-442.822	-43.842	0.090	0.059
-441.807	-128.525	-0.557	0.103
-440.792	-0.819	0.112	-0.104
-439.778	176.638	-0.158	0.301
-438.763	800.000	0.013	-0.069
-437.749	-200.000	-0.513	-0.002
-436.734	-18.874	0.151	-0.123
-435.719	-141.611	-0.631	0.083
-434.705	-101.579	-0.112	0.035
-433.690	67.116	0.432	0.579
-432.676	113.060	-0.257	0.409
-431.661	-71.273	-0.216	0.106
-430.646	5.207	0.420	0.406
-429.632	-150.269	0.107	-0.011
-428.617	10.298	0.332	0.331
-427.603	-13.968	-0.274	-0.232
-426.588	-11.683	0.074	0.064
-425.573	715.509	-0.049	0.170
-424.559	-200.000	-0.043	-0.302
-423.544	-58.835	0.577	0.326
-422.530	-168.165	0.212	0.011
-421.515	135.857	0.112	-0.192
-420.500	-83.959	0.559	-0.232
-419.486	-87.692	0.090	-0.036
-418.471	-57.454	-0.253	-0.145
-417.457	-200.000	-0.052	-0.539
-416.442	484.277	-0.133	-0.400
-415.428	-35.757	-0.134	-0.095
-414.413	-72.190	-0.475	0.230
-413.398	41.515	-0.400	-0.474
-412.384	279.640	0.120	0.283
-411.369	16.863	-0.250	-0.259
-410.355	240.981	-0.222	-0.488
-409.340	-92.963	-0.309	-0.112
-408.325	457.998	0.013	0.038
-407.311	47.288	0.171	0.209
-406.296	-143.004	0.349	-0.044
-405.282	-200.000	0.055	0.484
-404.267	188.623	0.083	0.162
-403.252	-160.929	0.361	0.025
-402.238	83.754	-0.156	-0.224
-401.223	109.953	-0.190	0.299
-400.209	495.828	0.138	0.418
-399.194	800.000	-0.191	-0.748
-398.179	-85.600	-0.064	-0.026
-397.165	7.818	0.218	0.213
-396.150	-25.850	-0.221	0.170
-395.136	-56.540	0.155	0.090
-394.121	289.298	-0.152	-0.362
-393.106	-74.513	-0.270	-0.127
-392.092	-162.000	-0.141	-0.009
-391.077	-117.493	0.248	0.058
-390.063	-104.948	-0.100	-0.030
-389.048	-178.844	-0.446	0.013
-388.033	477.521	-0.155	0.461
-387.019	-29.686	0.050	0.038
-386.004	698.397	-0.128	0.443
-384.990	-200.000	-0.042	0.596
-383.975	-73.927	-0.588	0.278
-382.960	442.757	-0.187	0.540
-381.946	-175.968	-0.282	0.010
-380.931	-16.407	0.108	0.089
-379.917	-200.000	0.072	0.479
-378.902	13.475	0.293	0.298
-377.888	190.964	-0.212	-0.419
-376.873	22.850	0.190	-0.203
-375.858	142.947	0.204	-0.357
-374.844	69.157	0.190	0.256
-373.829	469.070	-0.211	0.624
-372.815	79.716	0.423	0.595
-371.800	76.782	0.244	0.339
-370.785	-143.236	-0.420	-0.052
-369.771	26.555	-0.139	0.153
-368.756	38.689	-0.285	0.333
-367.742	-62.570	-0.320	0.173
-366.727	108.554	0.247	0.386
-365.712	80.212	0.010	-0.014
-364.698	-52.062	0.423	-0.256
-363.683	-92.558	0.281	-0.103
-362.669	-200.000	0.005	0.077
-361.654	800.000	0.040	0.187
-360.639	112.462	0.127	-0.201
-359.625	405.283	-0.168	0.467
-358.610	133.919	0.288	0.489
-357.596	51.431	0.260	0.323
-356.581	-200.000	0.064	0.497
-355.566	22.037	0.085	0.090
-354.552	140.030	-0.131	-0.227
-353.537	-200.000	-0.077	-0.469
-352.523	-106.783	0.202	0.058
-351.508	28.168	0.145	-0.160
-350.493	-137.232	0.432	-0.064
-349.479	-200.000	0.018	-0.604
-348.464	800.000	0.081	-0.423
-347.450	-161.494	-0.202	0.013
-346.435	-200.000	0.011	0.253
-345.420	-150.678	0.080	-0.008
-344.406	639.414	0.052	0.172
-343.391	49.314	-0.198	-0.244
-342.377	-130.738	-0.666	-0.116
-341.362	26.606	0.192	0.210
-340.348	-200.000	0.004	-0.055
-339.333	-110.451	-0.284	0.076
-338.318	-26.273	-0.285	-0.218
-337.304	-69.599	-0.268	0.133
-336.289	290.784	-0.021	-0.050
-335.275	38.045	-0.348	0.405
-334.260	193.683	-0.126	0.251
-333.245	-86.638	-0.056	-0.022
-332.231	800.000	0.091	-0.345
-331.216	800.000	0.023	0.090
-330.202	3.933	-0.300	0.286
-329.187	700.957	-0.077	-0.266
-328.172	429.174	-0.102	-0.290
-327.158	19.857	-0.328	-0.345
-326.143	-169.803	0.431	-0.020
-325.129	136.556	0.217	0.371
-324.114	-94.032	0.258	-0.092
-323.099	48.886	-0.154	0.189
-322.085	170.019	0.243	0.455
-321.070	-129.074	0.244	-0.044
-320.056	36.078	0.231	-0.266
-319.041	122.655	0.080	0.131
-318.026	-146.623	0.290	-0.032
-317.012	-149.062	0.554	-0.057
-315.997	630.778	-0.155	0.517
-314.983	26.456	0.022	0.024
-313.968	1.778	0.274	0.257
-312.953	-103.693	-0.410	0.125
-311.939	-99.194	0.007	0.002
-310.924	-182.975	-0.436	0.010
-309.910	-89.546	-0.134	-0.051
-308.895	35.649	0.121	-0.139
-307.880	800.000	-0.034	-0.129
-306.866	159.146	0.110	-0.201
-305.851	99.079	0.156	0.235
-304.837	-63.371	0.698	0.373
-303.822	-200.000	0.035	0.422
-302.807	800.000	0.023	-0.122
-301.793	-28.565	0.233	0.174
-300.778	-200.000	0.035	0.312
-299.764	105.243	0.209	0.323
-298.749	-31.367	-0.145	-0.106
-297.735	356.266	0.015	0.040
-296.720	26.899	0.154	-0.168
-295.705	7.391	0.145	-0.142
-294.691	800.000	0.099	-0.364
-293.676	-157.374	0.285	0.022
-292.662	-200.000	-0.003	-0.299
-291.647	133.336	0.239	0.405
-290.632	-9.685	-0.260	-0.226
-289.618	-65.366	-0.616	0.322
-288.603	107.140	-0.146	0.226
-287.589	-96.616	0.325	-0.111
-286.574	-200.000	-0.070	0.405
-285.559	53.186	-0.127	-0.159
-284.545	127.486	0.277	-0.459
-283.530	800.000	-0.139	-0.683
-282.516	-140.860	-0.478	-0.064
-281.501	19.958	0.163	-0.171
-280.486	32.554	-0.088	0.099
-279.472	201.569	-0.081	0.163
-278.457	440.549	-0.174	-0.497
-277.443	-150.296	-0.200	-0.020
-276.428	800.000	-0.146	0.650
-275.413	-82.202	-0.355	0.150
-274.399	-187.428	-0.304	-0.005
-273.384	-200.000	0.071	0.454
-272.370	77.206	-0.265	0.368
-271.355	-200.000	0.012	-0.285
-270.340	683.675	0.053	0.180
-269.326	55.855	-0.224	-0.283
-268.311	270.251	-0.154	0.354
-267.297	-187.952	-0.320	0.005
-266.282	-96.392	0.490	0.168
-265.267	49.040	0.198	0.242
-264.253	32.926	-0.104	0.117
-263.238	53.073	0.253	0.316
-262.224	-200.000	-0.007	0.563
-261.209	-61.004	-0.220	-0.120
-260.195	-200.000	0.032	0.279
-259.180	-116.301	0.290	-0.069
-258.165	702.460	0.061	0.212
-257.151	-95.610	0.137	0.048
-256.136	103.244	-0.218	-0.333
-255.122	-200.000	0.046	-0.304
-254.107	-99.645	0.325	0.105
-253.092	79.388	0.274	-0.384
-252.078	57.013	0.057	-0.073
-251.063	-79.142	-0.289	0.127
-250.049	-139.395	0.153	-0.021
-249.034	-179.793	0.324	0.009
-248.019	-200.000	-0.013	0.155
-247.005	-200.000	-0.030	-0.197
-245.990	-99.675	0.245	-0.080
-244.976	-12.266	0.127	0.108
-243.961	-138.426	-0.203	0.029
-242.946	-52.722	0.270	0.162
-241.932	16.700	-0.131	-0.134
-240.917	287.489	-0.155	-0.366
-239.903	-37.827	0.094	-0.065
-238.888	49.502	-0.098	0.120
-237.873	-69.393	-0.109	0.054
-236.859	-200.000	-0.008	0.133
-235.844	107.279	-0.191	0.296
-234.830	-68.059	-0.219	-0.111
-233.815	66.065	0.240	-0.317
-232.800	-10.104	0.195	0.168
-231.786	169.483	-0.080	0.149
-230.771	345.344	0.139	-0.357
-229.757	800.000	-0.193	-0.744
-228.742	-69.256	-0.244	-0.122
-227.727	71.251	-0.095	0.129
-226.713	123.360	-0.124	0.202
-225.698	24.456	-0.253	0.272
-224.684	-108.750	0.125	-0.035
-223.669	-134.062	0.021	0.003
-222.655	500.757	-0.046	-0.139
-221.640	237.890	0.183	-0.396
-220.625	800.000	0.083	-0.406
-219.611	-102.578	0.287	0.089
-218.596	-200.000	-0.057	0.455
-217.582	-124.500	-0.377	0.076
-216.567	361.743	-0.191	-0.501
-215.552	-200.000	-0.070	-0.802
-214.538	13.505	0.433	-0.436
-213.523	190.052	-0.206	-0.403
-212.509	800.000	-0.065	-0.255
-211.494	788.405	-0.039	0.140
-210.479	-156.133	-0.273	0.022
-209.465	-24.740	0.677	0.523
-208.450	373.502	0.036	0.096
-207.436	-200.000	0.002	-0.227
-206.421	137.056	-0.188	0.321
-205.406	406.786	0.071	-0.196
-204.392	375.462	-0.163	-0.434
-203.377	800.000	0.053	-0.271
-202.363	46.129	-0.297	-0.358
-201.348	-155.409	-0.511	-0.042
-200.333	-121.382	0.282	-0.061
-199.319	-134.377	0.392	0.062
-198.304	-101.309	-0.441	-0.139
-197.290	-160.451	-0.253	-0.017
-196.275	800.000	-0.079	0.320
-195.260	800.000	-0.040	-0.159
-194.246	-137.298	0.708	-0.103
-193.231	34.877	0.170	-0.193
-192.217	-69.244	-0.536	0.266
-191.202	-97.121	0.369	-0.124
-190.187	30.417	0.190	-0.211
-189.173	-181.443	0.399	0.010
-188.158	800.000	0.070	0.372
-187.144	-137.094	0.106	0.016
-186.129	-51.322	0.302	0.183
-185.114	-200.000	-0.050	-0.698
-184.100	-112.479	-0.327	-0.084
-183.085	-133.175	0.348	-0.057
-182.071	-114.615	-0.229	0.057
-181.056	-148.221	0.079	-0.008
-180.042	-200.000	0.143	-0.000
-179.027	-141.001	0.262	-0.035
-178.012	-200.000	-0.002	-0.106
-176.998	-103.830	0.631	-0.190
-175.983	800.000	0.073	-0.315
-174.969	12.092	0.088	0.088
-173.954	546.761	0.015	0.048
-172.939	-131.690	0.312	-0.053
-171.925	-29.566	-0.073	-0.054
-170.910	201.635	-0.067	-0.135
-169.896	-47.798	-0.465	-0.291
-168.881	-91.978	-0.477	-0.174
-167.866	350.843	-0.085	0.219
-166.852	-89.448	-0.593	0.225
-165.837	24.348	0.121	0.130
-164.823	-200.000	0.002	-0.251
-163.808	145.490	-0.101	0.177
-162.793	-17.789	-0.167	-0.136
-161.779	-34.176	0.293	-0.208
-160.764	594.088	0.195	0.629
-159.750	-129.175	0.178	0.032
-158.735	178.614	0.121	-0.231
-157.720	-66.265	-0.138	0.071
-156.706	-130.073	0.088	0.015
-155.691	166.431	0.381	-0.701
-154.677	-200.000	0.010	0.064
-153.662	257.991	0.130	-0.291
-152.647	134.350	0.204	0.344
-151.633	800.000	-0.043	-0.244
-150.618	141.537	0.145	0.250
-149.604	-185.332	-0.438	0.009
-148.589	-37.841	0.166	0.114
-147.574	260.017	-0.104	-0.234
-146.560	69.168	-0.062	-0.082
-145.545	469.244	0.078	-0.228
-144.531	-16.129	0.168	0.138
-143.516	-139.282	-0.135	-0.019
-142.502	8.535	-0.159	-0.155
-141.487	49.040	0.202	0.247
-140.472	317.509	-0.173	-0.426
-139.458	74.495	-0.105	-0.144
-138.443	62.000	-0.247	-0.320
-137.429	-11.281	-0.332	-0.283
-136.414	61.032	-0.078	0.100
-135.399	-34.422	-0.164	0.116
-134.385	-168.431	-0.170	-0.008
-133.370	34.144	-0.351	-0.397
-132.356	178.425	0.190	0.361
-131.341	48.037	-0.306	0.370
-130.326	-122.735	-0.341	-0.071
-129.312	67.810	-0.235	-0.311
-128.297	-64.138	0.151	-0.079
-127.283	100.858	-0.211	-0.319
-126.268	-200.000	-0.026	-0.186
-125.253	-63.188	0.088	0.047
-124.239	413.615	0.068	-0.187
-123.224	-200.000	0.007	0.179
-122.210	-65.947	0.447	0.230
-121.195	290.573	0.287	0.679
-120.180	-5.813	-0.426	0.378
-119.166	613.065	-0.095	-0.311
-118.151	-76.877	0.213	-0.096
-117.137	-123.960	-0.389	0.079
-116.122	-52.121	-0.289	-0.173
-115.107	-30.467	0.107	0.078
-114.093	-152.644	0.129	0.012
-113.078	-191.541	0.508	0.006
-112.064	-37.477	-0.307	-0.212
-111.049	331.128	-0.201	0.504
-110.034	-130.357	-0.134	-0.023
-109.020	-14.534	0.297	-0.247
-108.005	-134.370	0.160	0.025
-106.991	-49.964	-0.073	0.045
-105.976	800.000	0.020	-0.081
-104.962	-159.184	-0.332	0.024
-103.947	74.458	-0.302	0.412
-102.932	-134.947	-0.265	-0.041
-101.918	800.000	-0.076	-0.413
-100.903	-153.741	0.361	0.032
-99.889	800.000	0.031	0.176
-98.874	157.458	-0.017	-0.031
-97.859	8.457	-0.396	-0.385
-96.845	179.005	-0.094	-0.178
-95.830	-134.477	0.096	0.015
-94.816	32.268	0.293	0.328
-93.801	446.029	0.134	-0.383
-92.786	-13.155	0.105	-0.088
-91.772	-200.000	0.068	-0.511
-90.757	-81.463	0.580	-0.246
-89.743	-200.000	0.010	-0.295
-88.728	27.617	0.267	0.291
-87.713	226.597	0.133	0.281
-86.699	241.409	-0.133	0.288
-85.684	-33.606	0.216	0.154
-84.670	-147.320	-0.369	-0.040
-83.655	-29.804	-0.221	0.163
-82.640	-40.158	0.129	0.087
-81.626	390.331	0.206	-0.555
-80.611	-158.479	-0.569	0.042
-79.597	-13.663	-0.313	-0.262
-78.582	-83.578	0.151	0.062
-77.567	-100.641	-0.241	-0.076
-76.553	-2.274	-0.200	0.182
-75.538	56.962	-0.228	-0.288
-74.524	-15.342	0.216	-0.178
-73.509	-73.800	0.215	0.101
-72.494	-143.368	0.211	-0.026
-71.480	-98.253	0.264	-0.087
-70.465	34.752	0.264	-0.298
-69.451	182.024	-0.139	-0.266
-68.436	-4.279	0.034	-0.030
-67.422	800.000	0.053	0.225
-66.407	190.916	-0.083	-0.162
-65.392	-93.138	0.064	-0.023
-64.378	800.000	0.134	-0.524
-63.363	486.808	-0.138	0.409
-62.349	188.534	0.150	-0.292
-61.334	26.496	-2.305	-2.492
-60.319	-25.276	1.158	0.884
-59.305	280.456	-3.303	-7.660
-58.290	44.792	4.054	4.821
-57.276	405.576	3.683	10.084
-56.261	-200.000	22.807	320.757
-55.246	355.862	1301.675	3362.894
-54.232	52.994	2844.273	3518.531
-53.217	51.375	2663.132	3269.293
-52.203	31.935	2392.238	2662.656
-51.188	28.082	2057.033	2242.089
-50.173	24.737	1944.329	2080.120
-49.159	23.614	1932.210	2054.018
-48.144	23.224	1927.107	2043.983
-47.130	23.208	1925.276	2041.775
-46.115	23.157	1924.120	2039.885
-45.100	22.961	1922.914	2036.248
-44.086	23.169	1920.342	2035.856
-43.071	23.156	1919.017	2034.221
-42.057	23.111	1917.514	2032.027
-41.042	23.167	1915.659	2030.620
-40.027	23.112	1914.153	2028.310
-39.013	23.165	1913.079	2027.700
-37.998	23.025	1911.708	2024.562
-36.984	23.097	1910.659	2024.198
-35.969	23.031	1909.821	2022.467
-34.954	23.102	1907.923	2021.189
-33.940	22.983	1906.957	2018.727
-32.925	22.919	1905.470	2016.335
-31.911	23.061	1904.491	2016.851
-30.896	23.096	1902.073	2014.608
-29.881	22.917	1902.223	2012.639
-28.867	22.937	1900.206	2010.652
-27.852	22.905	1898.356	2008.247
-26.838	22.850	1897.613	2006.759
-25.823	23.006	1895.761	2006.495
-24.809	23.016	1893.969	2004.630
-23.794	22.888	1893.343	2002.435
-22.779	22.783	1892.681	2000.460
-21.765	22.766	1891.514	1998.951
-20.750	22.897	1889.315	1998.037
-19.736	22.904	1888.717	1997.405
-18.721	22.961	1887.575	1996.768
-17.706	23.075	1885.336	1995.610
-16.692	22.851	1885.123	1992.771
-15.677	22.875	1884.465	1992.267
-14.663	22.910	1882.145	1990.129
-13.648	22.832	1881.434	1988.417
-12.633	22.933	1879.261	1987.180
-11.619	22.804	1878.525	1984.869
-10.604	22.731	1878.002	1983.414
-9.590	22.724	1876.598	1981.771
-8.575	22.812	1874.468	1980.437
-7.560	22.742	1873.977	1979.047
-6.546	22.710	1872.908	1977.474
-5.531	22.713	1871.763	1976.227
-4.517	22.893	1869.610	1975.897
-3.502	22.798	1869.059	1974.166
-2.487	22.886	1868.276	1974.254
-1.473	22.990	1864.187	1971.021
-0.458	22.666	1846.485	1948.626
0.556	19.149	1993.130	2049.096
1.571	17.615	2196.362	2237.526
2.586	18.490	2234.311	2287.657
3.600	18.402	2238.399	2290.381
4.615	18.471	2237.140	2289.755
5.629	18.583	2233.722	2287.480
6.644	18.407	2233.482	2284.604
7.659	18.359	2231.588	2281.743
8.673	18.525	2228.250	2280.274
9.688	18.385	2237.611	2287.712
10.702	17.353	2318.841	2356.113
11.717	15.686	2382.847	2396.978
12.731	7.310	2360.820	2255.180
13.746	0.938	2345.164	2149.238
14.761	0.073	2341.840	2133.604
15.775	0.106	2339.675	2131.850
16.790	0.096	2337.590	2129.550
17.804	0.054	2336.419	2127.629
18.819	0.007	2336.215	2126.513
19.834	0.031	2333.966	2124.556
20.848	0.043	2333.192	2123.768
21.863	0.114	2330.561	2122.131
22.877	0.014	2329.708	2119.681
23.892	0.081	2327.493	2118.364
24.907	0.013	2324.609	2114.514
25.921	0.119	2322.415	2113.767
26.936	0.059	2320.773	2111.168
27.950	0.008	2318.623	2108.250
28.965	0.040	2315.802	2105.876
29.980	0.128	2313.482	2104.750
30.994	0.117	2312.287	2103.260
32.009	3.829	2324.286	2166.266
33.023	12.934	2350.048	2319.204
34.038	16.780	2355.057	2378.232
35.053	16.674	2352.870	2374.245
36.067	16.439	2350.014	2367.777
37.082	16.418	2348.693	2365.859
38.096	16.732	2346.649	2367.931
39.111	16.915	2344.032	2367.575
40.126	17.040	2342.292	2367.288
41.140	17.086	2341.438	2366.797
42.155	17.146	2340.968	2366.880
43.169	17.137	2337.197	2362.652
44.184	16.959	2333.582	2356.233
45.199	16.939	2333.345	2355.427
46.213	17.004	2332.268	2354.961
47.228	17.197	2331.072	2356.166
48.242	17.162	2329.145	2353.447
49.257	17.312	2326.955	2353.044
50.271	17.256	2324.630	2349.628
51.286	17.043	2320.255	2341.976
52.301	16.769	2319.290	2336.921
53.315	17.598	2322.587	2351.471
54.330	20.646	2330.667	2401.728
55.344	22.520	2331.850	2428.665
56.359	22.702	2329.263	2428.189
57.374	22.805	2329.384	2429.447
58.388	22.979	2325.684	2427.705
59.403	22.661	2321.818	2418.991
60.417	22.456	2317.973	2411.873
61.432	22.489	2316.743	2410.759
62.447	22.690	2315.886	2412.345
63.461	22.873	2314.125	2412.740
64.476	23.019	2311.919	2412.147
65.490	22.734	2309.855	2405.800
66.505	21.799	2306.229	2388.934
67.520	19.568	2298.461	2350.117
68.534	17.408	2288.953	2310.660
69.549	16.754	2284.689	2297.173
70.563	16.691	2282.436	2293.770
71.578	16.667	2280.294	2291.020
72.593	16.837	2278.247	2290.999
73.607	16.908	2277.634	2291.074
74.622	16.925	2275.364	2288.742
75.636	16.868	2271.999	2284.316
76.651	16.665	2270.972	2280.259
77.666	16.696	2268.746	2278.165
78.680	16.666	2266.150	2274.880
79.695	16.462	2263.691	2269.394
80.709	16.325	2262.125	2265.698
81.724	16.324	2260.271	2263.557
82.739	16.439	2257.535	2262.098
83.753	16.378	2255.244	2258.713
84.768	16.237	2254.512	2255.808
85.782	16.279	2253.190	2254.785
86.797	16.184	2250.776	2250.827
87.812	16.208	2248.612	2248.717
88.826	16.360	2246.754	2248.618
89.841	16.491	2244.024	2247.362
90.855	16.607	2241.201	2245.816
91.870	16.625	2240.708	2245.292
92.884	16.497	2239.720	2242.332
93.899	16.608	2238.192	2242.009
94.914	17.262	2241.593	2253.865
95.928	19.868	2248.831	2295.680
96.943	20.902	2246.704	2306.997
97.957	18.077	2237.122	2259.406
98.972	16.641	2229.283	2232.192
99.987	16.482	2226.132	2226.660
101.001	16.508	2223.147	2223.750
102.016	16.361	2222.538	2220.941
103.030	16.350	2219.681	2217.672
104.045	16.361	2217.099	2214.975
105.060	16.395	2215.441	2213.494
106.074	16.407	2214.115	2212.064
107.089	16.385	2211.986	2209.384
108.103	16.423	2210.329	2207.959
109.118	16.594	2209.593	2209.203
110.133	16.645	2207.665	2207.683
111.147	16.515	2205.042	2203.088
112.162	16.420	2203.828	2200.368
113.176	16.673	2202.044	2201.637
114.191	16.882	2200.607	2202.669
115.206	16.883	2199.114	2200.927
116.220	16.783	2197.145	2197.379
117.235	16.713	2195.761	2194.828
118.249	16.906	2194.144	2195.453
119.264	16.815	2192.190	2192.060
120.279	16.642	2191.048	2188.404
121.293	16.781	2188.385	2187.281
122.308	16.829	2186.294	2185.559
123.322	16.684	2186.049	2183.173
124.337	17.085	2187.826	2189.879
125.352	19.995	2195.008	2234.609
126.366	20.598	2193.344	2240.456
127.381	17.818	2182.341	2193.090
128.395	16.679	2176.319	2172.092
129.410	16.557	2174.416	2168.362
130.424	16.353	2172.736	2163.792
131.439	16.497	2171.426	2164.088
132.454	16.466	2170.516	2162.518
133.468	16.867	2167.335	2164.242
134.483	17.017	2166.511	2165.084
135.497	17.005	2164.782	2162.937
136.512	16.822	2162.455	2158.011
137.527	16.564	2160.923	2152.930
138.541	16.360	2158.855	2148.001
139.556	16.451	2157.439	2147.494
140.570	16.312	2156.196	2144.228
141.585	16.290	2153.308	2140.824
142.600	16.161	2152.042	2137.668
143.614	16.262	2150.450	2137.113
144.629	16.184	2148.630	2134.051
145.643	16.071	2147.157	2130.895
146.658	16.087	2145.702	2129.406
147.673	16.029	2143.202	2125.931
148.687	15.986	2143.039	2124.976
149.702	16.298	2142.041	2127.683
150.716	16.314	2141.328	2126.917
151.731	16.522	2139.414	2127.400
152.746	16.522	2138.653	2126.382
153.760	17.224	2141.947	2138.282
154.775	20.162	2149.703	2183.011
155.789	21.091	2148.149	2192.918
156.804	18.271	2135.545	2144.322
157.819	16.491	2127.981	2114.111
158.833	16.236	2125.278	2107.976
159.848	16.315	2123.688	2107.144
160.862	16.453	2121.933	2106.879
161.877	16.532	2121.760	2107.441
162.892	16.575	2120.722	2106.690
163.906	16.603	2120.319	2106.397
164.921	16.450	2118.185	2102.106
165.935	16.427	2115.034	2098.436
166.950	16.570	2114.578	2099.525
167.964	16.587	2111.843	2096.768
168.979	16.208	2109.869	2089.843
169.994	16.237	2107.841	2087.936
171.008	16.267	2105.982	2086.224
172.023	16.281	2104.075	2084.256
173.037	16.287	2104.685	2084.684
174.052	16.628	2103.230	2087.218
175.067	16.575	2101.022	2084.124
176.081	16.381	2099.155	2079.630
177.096	16.343	2099.004	2078.760
178.110	16.576	2096.141	2078.553
179.125	16.613	2096.123	2078.736
180.140	16.600	2093.900	2076.123
181.154	16.575	2093.021	2074.698
182.169	16.726	2092.512	2075.802
183.183	17.518	2096.090	2088.873
184.198	20.695	2103.136	2134.896
185.213	21.316	2099.611	2138.706
186.227	18.173	2088.794	2088.908
187.242	16.816	2085.801	2069.008
188.256	16.563	2084.198	2064.073
189.271	16.534	2081.254	2060.554
190.286	16.348	2079.046	2055.844
191.300	16.482	2076.689	2054.905
192.315	16.379	2076.027	2052.747
193.329	16.525	2074.681	2052.950
194.344	16.956	2073.954	2057.249
195.359	16.897	2073.373	2055.702
196.373	16.693	2070.094	2049.720
197.388	16.391	2067.688	2043.430
198.402	16.219	2065.234	2038.668
199.417	16.254	2062.212	2035.868
200.432	16.373	2061.219	2036.077
201.446	16.348	2060.047	2034.382
202.461	16.222	2058.804	2031.379
203.475	16.165	2056.288	2027.972
204.490	16.149	2054.274	2025.549
205.504	16.154	2052.640	2023.754
206.519	16.232	2051.044	2022.873
207.534	16.327	2049.066	2021.832
208.548	16.410	2047.788	2021.324
209.563	16.489	2046.701	2020.961
210.577	16.510	2045.651	2019.933
211.592	16.506	2045.570	2019.560
212.607	18.088	2050.568	2043.275
213.621	21.442	2058.274	2091.086
214.636	20.796	2052.236	2076.955
215.650	17.513	2041.977	2027.106
216.665	16.558	2037.683	2011.195
217.680	16.548	2036.485	2009.648
218.694	16.348	2034.986	2005.546
219.709	16.256	2033.447	2002.687
220.723	16.298	2031.993	2001.510
221.738	16.707	2030.361	2004.533
222.753	16.781	2027.697	2002.542
223.767	16.594	2026.878	1999.272
224.782	16.440	2025.772	1996.119
225.796	16.358	2023.856	1993.014
226.811	16.498	2021.268	1991.887
227.826	16.428	2020.952	1990.517
228.840	16.277	2019.271	1986.831
229.855	16.291	2017.761	1985.272
230.869	16.455	2015.552	1984.794
231.884	16.409	2013.919	1982.412
232.899	16.463	2013.003	1981.903
233.913	16.511	2011.583	1980.838
234.928	16.523	2010.368	1979.549
235.942	16.521	2007.964	1976.922
236.957	16.424	2007.133	1974.724
237.972	16.467	2006.275	1974.146
238.986	16.427	2004.936	1972.118
240.001	16.334	2003.649	1969.537
241.015	16.579	2002.643	1971.174
242.030	17.548	2005.680	1985.294
243.045	20.355	2011.511	2023.758
244.059	20.606	2008.308	2023.227
245.074	17.770	1998.293	1979.858
246.088	16.798	1994.573	1964.612
247.103	17.013	1992.699	1965.039
248.117	16.980	1991.421	1963.154
249.132	16.601	1989.636	1956.759
250.147	16.605	1986.905	1953.884
251.161	16.620	1985.587	1952.521
252.176	16.779	1985.070	1953.620
253.190	17.165	1983.382	1956.200
254.205	17.037	1981.672	1952.796
255.220	17.081	1981.195	1952.600
256.234	17.016	1979.321	1949.770
257.249	16.687	1978.324	1944.753
258.263	16.640	1977.030	1942.717
259.278	16.640	1976.247	1941.712
260.293	16.505	1973.723	1937.441
261.307	16.298	1969.846	1931.023
262.322	16.219	1969.636	1929.684
263.336	16.222	1966.870	1926.778
264.351	16.111	1965.533	1923.958
265.366	16.104	1963.889	1922.042
266.380	16.130	1963.589	1921.819
267.395	16.092	1961.342	1918.950
268.409	16.253	1960.131	1919.382
269.424	16.331	1958.657	1918.590
270.439	16.349	1958.351	1918.272
271.453	17.544	1961.114	1934.401
272.468	20.475	1967.513	1973.998
273.482	20.615	1963.411	1971.249
274.497	17.640	1953.057	1926.851
275.512	16.420	1948.162	1907.955
276.526	16.248	1946.485	1904.127
277.541	16.209	1944.770	1901.789
278.555	16.176	1942.568	1899.025
279.570	16.037	1941.606	1896.296
280.585	16.116	1940.381	1895.762
281.599	16.293	1938.672	1895.865
282.614	16.490	1938.668	1897.848
283.628	16.893	1937.926	1901.444
284.643	17.075	1937.480	1902.834
285.657	17.162	1937.288	1903.393
286.672	17.216	1935.512	1902.030
287.687	17.126	1932.752	1898.079
288.701	16.995	1931.722	1895.366
289.716	16.915	1930.060	1892.616
290.730	17.026	1928.889	1892.477
291.745	17.112	1927.832	1892.187
292.760	17.216	1926.180	1891.498
293.774	16.877	1925.647	1886.953
294.789	16.852	1923.645	1884.487
295.803	16.766	1921.154	1880.862
296.818	16.732	1919.705	1878.844
297.833	16.853	1918.885	1879.166
298.847	16.778	1917.333	1876.584
299.862	16.822	1916.490	1876.021
300.876	17.552	1917.893	1885.300
301.891	20.752	1924.715	1927.449
302.906	21.167	1922.171	1929.278
303.920	17.952	1913.711	1884.946
304.935	16.922	1908.774	1868.457
305.949	16.688	1906.551	1863.464
306.964	16.625	1903.710	1859.768
307.979	16.759	1903.542	1860.861
308.993	16.904	1903.504	1862.211
310.008	17.425	1901.594	1865.862
311.022	17.430	1900.758	1864.866
312.037	17.105	1898.314	1858.677
313.052	17.073	1896.494	1856.315
314.066	17.133	1895.183	1855.477
315.081	17.182	1894.584	1855.195
316.095	16.970	1893.747	1851.837
317.110	16.905	1891.108	1848.322
318.125	16.616	1888.442	1842.325
319.139	16.632	1887.400	1841.271
320.154	16.864	1886.489	1842.697
321.168	16.690	1884.658	1838.781
322.183	16.586	1882.432	1835.257
323.197	16.331	1880.618	1830.490
324.212	16.130	1878.967	1826.481
325.227	16.057	1877.447	1823.985
326.241	16.036	1876.055	1822.192
327.256	16.213	1874.676	1822.559
328.270	16.220	1873.363	1821.131
329.285	16.177	1873.643	1820.723
330.300	17.329	1879.072	1838.306
331.314	20.903	1885.030	1882.799
332.329	20.796	1878.366	1874.761
333.343	17.471	1869.286	1829.607
334.358	16.317	1865.373	1813.111
335.373	16.097	1863.815	1809.005
336.387	15.885	1861.300	1804.067
337.402	16.058	1860.647	1805.087
338.416	16.187	1859.633	1805.264
339.431	16.327	1857.730	1804.709
340.446	16.385	1856.134	1803.563
341.460	16.597	1855.730	1805.228
342.475	16.964	1854.852	1808.093
343.489	17.070	1853.829	1808.021
344.504	16.887	1852.997	1805.028
345.519	17.035	1850.948	1804.404
346.533	17.311	1849.823	1806.029
347.548	17.362	1848.643	1805.215
348.562	17.124	1847.131	1800.977
349.577	17.243	1846.851	1801.760
350.592	17.356	1846.131	1802.050
351.606	17.347	1845.626	1801.238
352.621	17.415	1843.021	1799.203
353.635	17.094	1841.419	1794.014
354.650	16.951	1839.376	1790.289
355.665	16.926	1837.310	1787.809
356.679	16.909	1835.297	1785.447
357.694	16.852	1834.243	1783.612
358.708	16.746	1833.035	1781.098
359.723	18.105	1836.931	1799.056
360.738	21.143	1842.755	1836.734
361.752	20.385	1837.674	1823.452
362.767	17.641	1829.743	1786.487
363.781	16.816	1826.374	1774.307
364.796	16.789	1825.423	1772.879
365.810	16.611	1823.746	1769.175
366.825	16.668	1822.205	1768.065
367.840	17.020	1822.108	1771.449
368.854	17.092	1820.704	1770.624
369.869	16.828	1818.178	1765.199
370.883	16.713	1817.844	1763.461
371.898	16.649	1816.360	1761.137
372.913	16.614	1814.301	1758.566
373.927	16.644	1813.441	1757.838
374.942	16.738	1813.730	1758.886
375.956	16.919	1811.507	1758.408
376.971	16.844	1808.862	1754.849
377.986	16.649	1807.549	1751.333
379.000	16.588	1805.740	1748.735
380.015	16.582	1805.212	1747.954
381.029	16.461	1802.473	1743.839
382.044	16.276	1800.190	1739.509
383.059	16.190	1798.323	1736.603
384.073	16.141	1797.307	1734.905
385.088	16.150	1797.099	1734.590
386.102	16.081	1794.606	1731.272
387.117	16.156	1792.820	1730.111
388.132	16.192	1792.875	1730.333
389.146	17.224	1798.417	1746.129
390.161	20.791	1803.972	1788.202
391.175	20.525	1795.790	1777.150
392.190	17.308	1787.000	1735.291
393.205	16.604	1782.977	1723.965
394.219	16.331	1781.676	1719.704
395.234	16.228	1780.635	1717.447
396.248	16.207	1779.781	1716.197
397.263	16.327	1776.086	1713.654
398.278	16.283	1775.169	1712.118
399.292	16.295	1774.466	1711.351
400.307	16.334	1773.729	1710.837
401.321	16.536	1773.263	1712.235
402.336	16.616	1772.352	1711.971
403.350	16.604	1769.932	1709.298
404.365	16.696	1769.475	1709.588
405.380	16.999	1768.469	1711.489
406.394	17.225	1768.177	1713.286
407.409	17.481	1767.185	1714.719
408.423	17.506	1765.694	1713.313
409.438	17.227	1763.811	1708.468
410.453	17.076	1762.325	1705.295
411.467	17.097	1762.784	1705.754
412.482	16.984	1760.228	1701.928
413.496	16.674	1758.284	1696.727
414.511	16.627	1756.659	1694.481
415.526	16.669	1754.022	1692.159
416.540	16.620	1752.156	1689.660
417.555	16.599	1752.261	1689.354
418.569	16.905	1752.156	1692.118
419.584	16.947	1751.533	1691.734
420.599	16.874	1751.787	1691.044
421.613	16.566	1750.641	1686.649
422.628	16.741	1748.330	1685.970
423.642	16.577	1746.020	1681.906
424.657	16.616	1744.691	1680.817
425.672	16.781	1743.119	1680.740
426.686	16.886	1741.462	1679.990
427.701	16.788	1741.051	1678.420
428.715	17.006	1739.955	1679.327
429.730	17.170	1739.044	1679.883
430.745	17.037	1737.255	1676.631
431.759	17.053	1737.138	1676.473
432.774	17.506	1737.790	1681.399
433.788	18.104	1737.649	1686.996
434.803	18.452	1737.328	1689.934
435.818	18.216	1737.452	1687.506
436.832	18.263	1736.058	1686.424
437.847	17.220	1727.914	1668.017
438.861	9.538	1707.858	1573.283
439.876	1.784	1693.317	1483.990
440.890	0.293	1690.323	1466.601
441.905	0.203	1688.898	1464.313
442.920	0.194	1687.685	1462.999
443.934	0.132	1687.224	1461.817
444.949	0.102	1685.749	1460.075
445.963	0.103	1684.462	1458.795
446.978	-0.054	1685.137	1457.674
447.993	0.110	1683.124	1457.353
449.007	0.141	1680.606	1455.299
450.022	0.082	1678.999	1453.160
451.036	0.113	1677.249	1451.775
452.051	1.136	1681.355	1465.094
453.066	8.664	1698.397	1553.420
454.080	16.465	1710.544	1640.726
455.095	18.197	1712.544	1659.353
456.109	18.762	1712.832	1664.937
457.124	18.729	1712.477	1664.078
458.139	18.915	1711.818	1665.046
459.153	19.110	1710.634	1665.591
460.168	18.952	1709.879	1663.121
461.182	19.040	1707.654	1661.614
462.197	19.043	1705.211	1659.063
463.212	18.775	1703.988	1655.081
464.226	18.800	1703.053	1654.216
465.241	18.982	1701.954	1654.716
466.255	19.144	1700.964	1655.112
467.270	19.140	1699.781	1653.725
468.285	19.007	1698.030	1650.541
469.299	18.829	1697.243	1647.864
470.314	19.020	1694.744	1647.083
471.328	19.145	1693.364	1646.746
472.343	18.990	1692.842	1644.550
473.358	18.938	1691.780	1642.826
474.372	18.969	1691.046	1642.214
475.387	18.865	1689.027	1639.059
476.401	18.920	1687.322	1637.730
477.416	18.798	1686.316	1635.393
478.430	18.996	1684.443	1635.271
479.445	18.853	1683.199	1632.504
480.460	18.777	1681.890	1630.314
481.474	18.847	1680.572	1629.507
482.489	19.097	1680.442	1631.564
483.503	19.130	1678.981	1630.272
484.518	19.225	1677.352	1629.395
485.533	19.240	1675.708	1627.750
486.547	19.166	1674.398	1625.573
487.562	19.144	1674.783	1625.547
488.576	19.237	1672.832	1624.339
489.591	19.284	1671.250	1623.056
490.606	19.129	1670.398	1620.566
491.620	19.203	1668.314	1619.046
492.635	19.413	1666.752	1619.321
493.649	19.492	1666.516	1619.641
494.664	19.155	1664.374	1614.190
495.679	18.567	1663.615	1607.724
496.693	18.706	1662.362	1607.632
497.708	19.009	1660.902	1608.872
498.722	19.318	1660.324	1611.022
499.737	19.397	1658.480	1609.786
500.752	19.181	1656.964	1606.096
501.766	19.097	1655.856	1604.046
502.781	19.138	1654.356	1602.778
503.795	19.111	1652.895	1600.923
504.810	19.159	1652.234	1600.542
505.825	19.341	1651.447	1601.283
506.839	19.357	1649.980	1599.822
507.854	19.248	1648.961	1597.619
508.868	19.456	1647.181	1597.640
509.883	19.297	1646.164	1594.983
510.898	19.488	1644.833	1595.284
511.912	19.458	1642.612	1592.656
512.927	19.221	1641.154	1588.854
513.941	19.171	1639.588	1586.690
514.956	19.007	1638.406	1583.833
515.971	19.128	1637.154	1583.554
516.985	19.043	1636.886	1582.320
518.000	19.164	1635.835	1582.234
519.014	19.314	1635.462	1583.065
520.029	19.620	1633.690	1583.986
521.043	19.505	1631.570	1580.684
522.058	19.444	1631.122	1579.499
523.073	19.453	1631.094	1579.365
524.087	19.779	1630.303	1581.404
525.102	19.657	1628.125	1577.985
526.116	19.340	1626.285	1573.104
527.131	19.413	1625.226	1572.564
528.146	19.559	1624.573	1573.080
529.160	19.718	1623.596	1573.393
530.175	19.639	1622.857	1571.768
531.189	19.721	1621.714	1571.226
532.204	19.580	1620.354	1568.435
533.219	19.561	1618.044	1565.835
534.233	19.266	1617.936	1562.850
535.248	19.563	1616.697	1564.173
536.262	19.839	1616.581	1566.388
537.277	19.769	1614.416	1563.468
538.292	19.451	1612.566	1558.601
539.306	19.337	1611.277	1556.134
540.321	19.393	1610.345	1555.551
541.335	19.320	1608.794	1553.208
542.350	19.384	1607.404	1552.261
543.365	19.641	1606.301	1553.333
544.379	19.693	1604.393	1551.773
545.394	19.733	1603.564	1551.141
546.408	19.639	1601.167	1547.791
547.423	19.313	1599.843	1543.392
548.438	19.231	1599.271	1541.917
549.452	19.382	1598.895	1542.732
550.467	19.599	1597.639	1543.282
551.481	19.577	1596.267	1541.577
552.496	19.567	1596.211	1541.244
553.511	19.866	1595.089	1542.662
554.525	19.849	1594.061	1541.329
555.540	19.893	1593.494	1540.987
556.554	19.884	1592.440	1539.702
557.569	19.889	1590.713	1537.898
558.583	19.783	1588.657	1534.783
559.598	19.830	1587.626	1534.020
560.613	19.720	1587.139	1532.382
561.627	19.715	1585.467	1530.541
562.642	20.021	1584.156	1531.810
563.656	20.100	1583.184	1531.395
564.671	19.989	1582.987	1530.031
565.686	19.986	1580.795	1527.706
566.700	19.769	1578.982	1523.849
567.715	19.676	1577.522	1521.432
568.729	19.504	1576.187	1518.440
569.744	19.391	1573.458	1514.637
570.759	19.495	1572.533	1514.480
571.773	19.464	1572.404	1513.897
572.788	19.726	1571.464	1515.122
573.802	19.798	1570.047	1514.213
574.817	19.836	1569.335	1513.673
575.832	20.044	1568.411	1514.429
576.846	20.044	1566.856	1512.748
577.861	19.998	1565.572	1510.921
578.875	20.130	1564.453	1510.816
579.890	20.315	1563.706	1511.538
580.905	20.156	1563.165	1509.439
581.919	20.117	1563.024	1508.781
582.934	20.197	1561.777	1508.096
583.948	20.193	1560.678	1506.826
584.963	20.246	1558.877	1505.367
585.978	19.921	1557.467	1500.992
586.992	20.077	1556.573	1501.308
588.007	20.287	1555.707	1502.119
589.021	19.949	1553.624	1496.994
590.036	19.608	1552.127	1492.414
591.051	19.815	1550.941	1492.884
592.065	20.009	1549.936	1493.423
593.080	20.173	1548.739	1493.507
594.094	20.157	1546.614	1491.140
595.109	19.840	1544.815	1486.495
596.123	19.722	1543.359	1483.900
597.138	19.960	1542.659	1485.098
598.153	20.159	1541.781	1485.788
599.167	20.120	1540.135	1483.689
600.182	20.132	1540.153	1483.632
601.196	20.254	1538.979	1483.377
602.211	20.237	1537.355	1481.487
603.226	20.394	1536.775	1482.098
604.240	20.401	1535.376	1480.632
605.255	20.488	1534.904	1480.745
606.269	20.396	1534.538	1479.422
607.284	20.433	1532.589	1477.687
608.299	20.414	1530.686	1475.512
609.313	20.375	1529.510	1473.866
610.328	20.410	1528.236	1472.761
611.342	20.420	1526.842	1471.329
612.357	20.465	1526.930	1471.616
613.372	20.527	1525.824	1470.907
614.386	20.435	1524.132	1468.317
615.401	20.543	1524.350	1469.266
616.415	20.435	1522.966	1466.845
617.430	20.414	1522.547	1466.084
618.445	20.480	1521.671	1465.624
619.459	20.528	1519.867	1464.115
620.474	20.169	1518.473	1459.561
621.488	19.856	1515.862	1454.234
622.503	19.599	1514.680	1450.754
623.518	19.863	1515.078	1453.196
624.532	20.169	1514.088	1454.650
625.547	20.391	1513.063	1455.357
626.561	20.678	1512.277	1456.846
627.576	20.638	1511.377	1455.468
628.591	20.222	1509.269	1449.770
629.605	19.980	1507.723	1446.081
630.620	19.928	1505.618	1443.454
631.634	19.737	1504.816	1440.911
632.649	19.894	1503.840	1441.122
633.663	19.999	1503.289	1441.296
634.678	20.404	1502.249	1443.509
635.693	20.626	1500.784	1443.781
636.707	20.736	1499.541	1443.335
637.722	20.841	1499.620	1444.106
638.736	20.803	1498.539	1442.579
639.751	20.876	1497.033	1441.565
640.766	20.887	1495.020	1439.542
641.780	20.754	1494.604	1437.870
642.795	20.781	1493.246	1436.616
643.809	20.786	1492.942	1436.187
644.824	20.818	1491.878	1435.260
645.839	20.642	1490.216	1432.029
646.853	20.647	1490.007	1431.700
647.868	20.627	1488.508	1429.924
648.882	20.780	1486.591	1429.173
649.897	20.651	1485.387	1426.781
650.912	20.604	1483.789	1424.693
651.926	20.623	1482.337	1423.280
652.941	20.291	1481.585	1419.657
653.955	19.984	1479.115	1414.601
654.970	19.914	1477.242	1412.072
655.985	19.954	1475.419	1410.483
656.999	20.010	1474.725	1410.109
658.014	20.185	1474.120	1410.797
659.028	20.384	1473.578	1411.736
660.043	20.368	1473.868	1411.710
661.058	20.586	1472.179	1411.702
662.072	20.659	1472.004	1411.963
663.087	20.667	1470.280	1410.205
664.101	20.673	1468.862	1408.728
665.116	20.683	1468.722	1408.502
666.131	20.802	1467.719	1408.338
667.145	20.757	1466.307	1406.451
668.160	21.036	1465.124	1407.414
669.174	21.149	1463.598	1406.695
670.189	20.964	1462.517	1403.988
671.204	20.818	1461.700	1401.856
672.218	20.805	1460.560	1400.487
673.233	20.914	1459.735	1400.411
674.247	21.113	1459.071	1401.212
675.262	21.144	1458.472	1400.715
676.276	21.227	1456.700	1399.519
677.291	21.013	1455.498	1396.475
678.306	20.914	1454.010	1394.083
679.320	20.780	1452.898	1391.775
680.335	20.871	1453.247	1392.667
681.349	21.012	1452.671	1393.085
682.364	21.199	1450.863	1392.681
683.379	21.067	1449.667	1390.308
684.393	21.082	1448.309	1388.966
685.408	21.133	1446.741	1387.700
686.422	21.098	1445.766	1386.318
687.437	21.005	1445.929	1385.566
688.452	21.168	1445.389	1386.182
689.466	21.013	1442.910	1382.403
690.481	20.856	1441.192	1379.347
691.495	20.714	1440.379	1377.270
692.510	20.111	1438.436	1370.458
693.525	19.893	1436.519	1366.739
694.539	19.993	1437.081	1367.904
695.554	20.522	1437.275	1372.123
696.568	21.071	1435.963	1375.059
697.583	21.325	1435.120	1376.093
698.598	21.288	1434.308	1374.860
699.612	21.354	1432.716	1373.687
700.627	21.351	1431.419	1372.258
701.641	21.306	1430.428	1370.792
702.656	21.184	1429.655	1368.924
703.671	21.322	1429.572	1369.770
704.685	21.361	1428.634	1369.012
705.700	21.202	1427.362	1366.382
706.714	21.168	1425.238	1363.919
707.729	21.074	1423.979	1361.806
708.744	20.874	1422.742	1358.895
709.758	20.704	1421.605	1356.315
710.773	20.532	1419.979	1353.259
711.787	20.562	1418.018	1351.461
712.802	20.702	1416.914	1351.337
713.816	20.736	1417.117	1351.633
714.831	20.984	1416.235	1352.564
715.846	21.192	1414.573	1352.438
716.860	21.302	1413.542	1352.145
717.875	21.160	1412.754	1350.126
718.889	21.192	1411.693	1349.199
719.904	21.313	1410.998	1349.315
720.919	21.319	1409.623	1347.880
721.933	21.340	1409.838	1348.092
722.948	21.516	1408.510	1348.019
723.962	21.412	1407.609	1346.195
724.977	21.695	1405.682	1346.374
725.992	21.573	1404.706	1344.335
727.006	21.396	1404.250	1342.377
728.021	21.334	1402.711	1340.264
729.035	21.538	1401.531	1340.550
730.050	21.413	1400.654	1338.583
731.065	21.396	1399.732	1337.416
732.079	21.594	1398.191	1337.305
733.094	21.501	1396.836	1335.131
734.108	21.345	1395.510	1332.510
735.123	21.471	1393.795	1331.675
736.138	21.407	1393.351	1330.605
737.152	21.337	1392.973	1329.545
738.167	21.544	1391.885	1329.933
739.181	21.588	1391.149	1329.408
740.196	21.495	1390.588	1327.999
741.211	21.517	1389.894	1327.343
742.225	21.316	1388.834	1324.646
743.240	21.534	1387.176	1324.562
744.254	21.472	1385.698	1322.524
745.269	21.490	1384.759	1321.604
746.284	21.360	1384.152	1319.877
747.298	21.348	1381.679	1317.271
748.313	21.067	1380.194	1313.576
749.327	20.639	1379.040	1309.084
750.342	20.286	1377.766	1305.047
751.356	20.053	1377.002	1302.407
752.371	20.324	1375.882	1303.234
753.386	20.973	1375.602	1307.708
754.400	21.550	1375.265	1311.577
755.415	21.624	1374.491	1311.239
756.429	21.750	1373.053	1310.661
757.444	21.543	1372.317	1308.245
758.459	21.605	1371.872	1308.133
759.473	21.770	1371.240	1308.612
760.488	21.760	1369.646	1306.861
761.502	21.802	1368.359	1305.789
762.517	21.568	1366.454	1302.064
763.532	21.425	1364.861	1299.321
764.546	21.290	1363.694	1297.052
765.561	20.929	1362.402	1292.970
766.575	20.437	1361.040	1287.862
767.590	20.389	1360.344	1286.692
768.605	20.844	1359.714	1289.326
769.619	21.283	1358.581	1291.357
770.634	21.420	1357.961	1291.630
771.648	21.582	1357.155	1291.913
772.663	21.718	1357.252	1292.861
773.678	21.716	1356.175	1291.662
774.692	21.719	1355.511	1290.902
775.707	21.696	1355.008	1290.095
776.721	21.850	1354.042	1290.158
777.736	21.853	1352.909	1288.946
778.751	21.841	1351.744	1287.597
779.765	21.696	1350.926	1285.592
780.780	21.683	1350.644	1285.077
781.794	21.661	1349.163	1283.351
782.809	21.646	1347.860	1281.846
783.824	21.444	1345.871	1278.321
784.838	21.229	1343.190	1274.045
785.853	20.560	1342.600	1268.426
786.867	20.657	1342.243	1268.647
787.882	20.922	1341.963	1270.170
788.897	21.170	1341.936	1271.814
789.911	21.302	1341.058	1271.791
790.926	21.468	1339.960	1271.814
791.940	21.492	1338.422	1270.378
792.955	21.772	1336.903	1270.824
793.969	21.616	1336.240	1268.903
794.984	21.626	1336.125	1268.718
795.999	21.740	1335.280	1268.591
797.013	21.817	1333.020	1266.854
798.028	21.842	1331.643	1265.572
799.042	21.914	1331.352	1265.666
800.057	21.820	1330.236	1263.776
801.072	21.987	1328.479	1263.159
802.086	21.967	1327.264	1261.712
803.101	21.998	1326.948	1261.484
804.115	21.911	1326.212	1260.006
805.130	21.901	1325.503	1259.111
806.145	21.846	1324.256	1257.373
807.159	21.764	1322.036	1254.528
808.174	21.673	1320.766	1252.516
809.188	21.490	1319.781	1250.119
810.203	21.478	1318.048	1248.240
811.218	21.076	1316.032	1243.303
812.232	20.965	1313.944	1240.392
813.247	20.774	1313.617	1238.568
814.261	21.173	1313.626	1241.280
815.276	21.513	1312.873	1242.847
816.291	21.695	1312.389	1243.536
817.305	22.004	1311.259	1244.525
818.320	21.959	1310.076	1242.931
819.334	21.783	1309.385	1240.869
820.349	21.970	1307.624	1240.382
821.364	22.129	1305.965	1239.787
822.378	21.981	1305.409	1238.063
823.393	21.919	1303.520	1235.684
824.407	21.989	1302.591	1235.151
825.422	21.822	1302.536	1233.768
826.437	21.836	1301.503	1232.741
827.451	21.686	1299.354	1229.505
828.466	21.103	1296.322	1222.383
829.480	20.819	1294.926	1218.925
830.495	21.048	1294.072	1219.582
831.509	21.275	1294.027	1220.986
832.524	21.639	1293.244	1222.660
833.539	21.901	1291.868	1223.050
834.553	22.024	1290.710	1222.663
835.568	22.057	1290.062	1222.133
836.582	22.087	1288.540	1220.759
837.597	22.096	1287.348	1219.546
838.612	22.043	1285.914	1217.673
839.626	21.956	1284.482	1215.563
840.641	21.629	1283.932	1212.622
841.655	21.396	1282.543	1209.547
842.670	20.871	1280.888	1204.194
843.685	20.689	1280.020	1201.966
844.699	21.216	1279.146	1204.661
845.714	21.587	1278.359	1206.343
846.728	21.650	1277.957	1206.259
847.743	21.793	1278.005	1207.146
848.758	21.923	1276.123	1206.123
849.772	22.119	1274.343	1205.649
850.787	22.088	1273.103	1204.119
851.801	21.864	1272.797	1202.144
852.816	21.912	1270.879	1200.519
853.831	21.902	1268.916	1198.454
854.845	21.945	1267.259	1197.038
855.860	21.765	1266.062	1194.531
856.874	21.484	1264.526	1191.017
857.889	21.342	1262.538	1188.029
858.904	21.092	1261.211	1184.931
859.918	20.850	1259.209	1181.260
860.933	20.434	1258.252	1177.386
861.947	20.934	1258.070	1180.484
862.962	21.395	1256.936	1182.410
863.977	21.327	1256.117	1181.038
864.991	21.630	1255.721	1182.577
866.006	21.623	1255.968	1182.621
867.020	21.696	1255.020	1182.084
868.035	21.750	1254.151	1181.488
869.049	21.974	1253.505	1182.255
870.064	21.975	1252.127	1180.825
871.079	22.151	1251.097	1180.895
872.093	22.040	1250.647	1179.581
873.108	21.886	1249.458	1177.279
874.122	21.677	1247.272	1173.673
875.137	21.458	1246.662	1171.485
876.152	21.087	1246.252	1168.466
877.166	21.423	1243.623	1168.114
878.181	21.776	1242.719	1169.494
879.195	21.946	1243.142	1170.890
880.210	21.886	1242.402	1169.654
881.225	22.106	1241.512	1170.147
882.239	21.984	1240.471	1168.210
883.254	22.064	1239.623	1167.809
884.268	22.168	1238.598	1167.398
885.283	22.153	1236.463	1165.141
886.298	22.238	1235.556	1164.716
887.312	22.148	1234.799	1163.266
888.327	22.257	1233.262	1162.404
889.341	21.969	1232.438	1159.570
890.356	21.925	1231.793	1158.537
891.371	22.002	1231.414	1158.551
892.385	21.829	1230.874	1156.760
893.400	21.623	1229.825	1154.268
894.414	21.561	1227.943	1151.952
895.429	21.509	1225.573	1149.248
896.444	20.753	1223.120	1141.831
897.458	20.394	1222.009	1138.288
898.473	20.684	1222.171	1140.212
899.487	21.142	1222.111	1143.037
900.502	21.629	1221.591	1145.618
901.517	21.807	1220.696	1145.810
902.531	21.930	1219.393	1145.255
903.546	21.867	1219.412	1144.724
904.560	21.870	1219.031	1144.247
905.575	22.024	1217.897	1144.058
906.589	22.134	1216.412	1143.247
907.604	22.199	1215.225	1142.420
