DTS Sentinel unit serial number:	SN409020Multiplexer serial number:	ORYXHardware model number:	OX4-SRSoftware version number:	ORYX F/W v3.00 Oryx Data Collector v3.7.2.0data status	okinstallation	HaddamTimeLapsedifferential loss correction	single-endedforward channel	channel 3reverse channel	N/Adate	2011/06/21time	14:41:17forward acquisition time	30.00reverse acquisition time	0.00gamma	498.7831k internal	0.1817k external	0.1817temperature offset calibration	1.0074default loss term (dB/km)	0.3790temperature slope calibration	1.3530multiplexer offset coefficient	1.0000multiplexer slope coefficient	1.0000fibre end	0.00T internal ref (°C)	38.50T ext. ref 1 (°C)	29.45T ext. ref 2 (°C)	0.25length (m)	temperature (°C)	Stokes	anti-Stokes-747.200	113.005	0.196	-0.305
-746.185	-200.000	0.002	0.030
-745.171	-200.000	-0.066	-0.455
-744.156	-41.342	0.219	0.144
-743.142	13.183	0.424	-0.420
-742.127	800.000	-0.181	0.775
-741.112	207.264	-0.057	0.115
-740.098	-28.871	-0.334	0.245
-739.083	-31.840	-0.357	0.255
-738.069	-200.000	-0.041	0.347
-737.054	-141.189	-0.594	-0.077
-736.039	3.235	0.233	0.216
-735.025	-39.918	0.738	0.492
-734.010	14.449	-0.206	-0.206
-732.996	-159.165	0.437	0.031
-731.981	-200.000	0.007	0.281
-730.966	123.215	0.195	0.313
-729.952	-171.412	-0.683	0.029
-728.937	-10.268	-0.199	-0.169
-727.923	-69.299	0.341	-0.167
-726.908	-97.999	0.181	0.059
-725.894	-83.734	0.391	0.159
-724.879	-40.228	0.191	-0.127
-723.864	-178.494	-0.729	-0.021
-722.850	-93.013	-0.338	-0.120
-721.835	41.818	0.396	0.459
-720.821	172.995	-0.253	-0.467
-719.806	61.184	-0.349	-0.444
-718.791	-177.924	0.437	0.013
-717.777	297.112	0.170	-0.402
-716.762	800.000	0.077	-0.391
-715.748	800.000	-0.089	-0.381
-714.733	-88.047	-0.448	-0.171
-713.718	-200.000	-0.025	0.366
-712.704	160.275	-0.263	-0.470
-711.689	21.537	0.262	-0.273
-710.675	-200.000	-0.025	0.174
-709.660	316.194	0.145	-0.352
-708.645	-47.986	0.747	-0.461
-707.631	263.605	-0.115	-0.256
-706.616	414.184	-0.116	0.318
-705.602	-54.095	0.074	0.043
-704.587	157.286	0.168	0.297
-703.572	-113.384	-0.100	-0.025
-702.558	-47.885	-0.143	-0.089
-701.543	800.000	0.060	-0.272
-700.529	-58.969	-0.261	-0.143
-699.514	336.943	-0.078	0.195
-698.499	-178.842	-0.200	0.006
-697.485	-27.264	-0.117	-0.087
-696.470	-158.171	-0.427	-0.032
-695.456	-181.642	0.259	0.006
-694.441	-167.448	0.607	0.031
-693.426	-58.203	0.127	0.070
-692.412	-14.958	0.461	0.377
-691.397	-200.000	-0.036	0.359
-690.383	54.504	-0.166	-0.205
-689.368	-89.515	0.252	0.094
-688.354	-96.987	0.729	0.242
-687.339	-109.768	-0.315	0.084
-686.324	-96.845	-0.574	0.191
-685.310	-39.326	-0.101	-0.068
-684.295	-20.884	0.109	-0.085
-683.281	22.879	-0.156	0.163
-682.266	-200.000	0.005	0.030
-681.251	800.000	-0.135	0.513
-680.237	-114.203	-0.239	-0.059
-679.222	800.000	-0.074	0.296
-678.208	299.352	-0.146	-0.344
-677.193	446.901	0.054	-0.151
-676.178	398.982	-0.150	-0.403
-675.164	-143.409	-0.244	0.030
-674.149	-94.404	-0.261	-0.090
-673.135	-149.044	-0.607	-0.062
-672.120	-6.266	-0.153	0.133
-671.105	-143.557	0.025	0.003
-670.091	-27.053	-0.363	0.270
-669.076	800.000	-0.029	0.156
-668.062	-73.196	0.122	0.057
-667.047	-157.464	-0.329	0.025
-666.032	-200.000	-0.002	0.035
-665.018	-171.758	0.588	0.024
-664.003	16.644	0.270	0.272
-662.989	135.622	-0.111	0.185
-661.974	447.392	0.179	-0.506
-660.959	630.301	-0.158	0.514
-659.945	31.266	0.488	0.535
-658.930	280.102	0.210	0.480
-657.916	-58.322	-0.424	0.234
-656.901	-200.000	0.015	0.191
-655.886	-200.000	-0.104	0.588
-654.872	-152.655	-0.250	0.022
-653.857	-165.447	0.550	-0.030
-652.843	-34.525	0.562	-0.392
-651.828	586.100	-0.140	-0.443
-650.814	800.000	-0.020	-0.088
-649.799	-73.096	0.088	-0.041
-648.784	-124.874	-0.206	0.040
-647.770	102.632	-0.279	-0.417
-646.755	-39.628	0.332	0.221
-645.741	800.000	-0.136	0.516
-644.726	-107.477	-0.266	0.074
-643.711	-200.000	-0.019	0.432
-642.697	164.579	0.148	-0.266
-641.682	-75.553	-0.165	0.075
-640.668	42.728	-0.221	0.257
-639.653	800.000	0.042	0.212
-638.638	-109.145	-0.634	-0.171
-637.624	18.099	-0.485	-0.493
-636.609	3.362	-0.027	0.025
-635.595	-50.844	0.341	-0.204
-634.580	-8.703	-0.551	0.470
-633.565	35.953	-0.234	-0.263
-632.551	222.016	0.154	-0.317
-631.536	-175.484	0.349	-0.012
-630.522	-160.097	0.094	0.006
-629.507	119.753	-0.261	-0.414
-628.492	-200.000	0.016	-0.328
-627.478	800.000	0.116	-0.527
-626.463	-113.553	-0.129	0.032
-625.449	-65.399	-0.314	-0.160
-624.434	244.820	-0.143	-0.307
-623.419	-200.000	-0.085	0.493
-622.405	-22.761	0.031	-0.024
-621.390	61.319	-0.155	0.197
-620.376	18.554	-0.062	-0.063
-619.361	-86.555	-0.144	0.056
-618.346	-96.065	-0.221	0.074
-617.332	261.230	-0.169	-0.375
-616.317	-7.626	0.359	-0.309
-615.303	-39.282	0.281	0.187
-614.288	-200.000	-0.010	0.214
-613.273	-59.761	-0.279	-0.152
-612.259	171.380	0.088	-0.162
-611.244	-200.000	0.016	-0.531
-610.230	-48.175	0.241	-0.148
-609.215	631.675	-0.167	-0.543
-608.201	-50.769	-0.550	-0.329
-607.186	101.481	-0.048	0.072
-606.171	-113.436	-0.138	-0.034
-605.157	112.801	0.179	0.276
-604.142	1.091	-0.614	0.560
-603.128	-17.138	-0.146	-0.117
-602.113	398.461	-0.049	0.132
-601.098	31.270	-0.143	0.156
-600.084	92.131	0.197	-0.283
-599.069	177.776	0.180	0.335
-598.055	164.924	0.090	-0.162
-597.040	-60.642	-0.123	-0.066
-596.025	39.395	0.116	0.132
-595.011	-200.000	-0.003	-0.242
-593.996	-122.433	0.112	0.023
-592.982	-10.430	0.086	0.073
-591.967	-83.456	0.391	-0.158
-590.952	141.607	-0.208	0.352
-589.938	-40.938	0.036	0.024
-588.923	85.764	0.346	-0.484
-587.909	-200.000	-0.005	-0.581
-586.894	-126.733	0.533	-0.099
-585.879	196.213	-0.104	-0.201
-584.865	800.000	-0.024	-0.101
-583.850	109.594	-0.051	-0.078
-582.836	-113.186	0.684	-0.170
-581.821	-39.101	-0.059	-0.040
-580.806	-175.018	-0.323	-0.011
-579.792	-143.081	-0.277	0.034
-578.777	-200.000	0.005	-0.112
-577.763	237.114	-0.085	0.180
-576.748	138.191	0.283	0.473
-575.733	49.044	0.127	0.151
-574.719	26.382	-0.161	0.172
-573.704	-200.000	0.019	-0.307
-572.690	70.984	0.367	-0.484
-571.675	568.798	0.129	0.402
-570.661	-200.000	0.049	-0.305
-569.646	-87.988	-0.560	0.213
-568.631	-51.470	0.346	0.205
-567.617	-66.959	0.306	-0.153
-566.602	-13.330	-0.311	-0.256
-565.588	800.000	-0.066	0.253
-564.573	-46.815	-0.468	0.290
-563.558	546.068	0.064	0.195
-562.544	-200.000	0.061	-0.571
-561.529	-51.775	-0.218	-0.129
-560.515	-108.130	-0.324	-0.089
-559.500	72.803	0.288	-0.382
-558.485	333.189	-0.125	-0.308
-557.471	98.514	-0.145	-0.213
-556.456	-143.097	-0.431	0.052
-555.442	-191.197	0.307	-0.004
-554.427	-10.997	-0.143	-0.119
-553.412	-84.482	-0.344	-0.137
-552.398	56.487	-0.286	-0.354
-551.383	-183.801	-0.196	0.004
-550.369	117.823	0.086	0.134
-549.354	-107.499	-0.222	-0.061
-548.339	-99.976	-0.566	0.178
-547.325	-154.415	-0.366	-0.031
-546.310	-200.000	-0.011	-0.107
-545.296	29.820	-0.217	0.235
-544.281	519.983	-0.049	-0.147
-543.266	-200.000	-0.005	-0.216
-542.252	-200.000	0.022	-0.151
-541.237	17.562	-0.162	0.164
-540.223	4.114	-0.202	0.187
-539.208	800.000	-0.061	0.267
-538.193	512.391	-0.133	0.397
-537.179	655.899	-0.138	0.453
-536.164	-200.000	-0.015	0.445
-535.150	-164.113	0.264	-0.015
-534.135	150.862	-0.241	-0.417
-533.121	301.748	0.129	-0.303
-532.106	317.222	0.102	-0.245
-531.091	-54.616	-0.093	-0.053
-530.077	273.907	-0.142	0.320
-529.062	61.353	-0.137	0.173
-528.048	-128.970	0.441	-0.078
-527.033	-83.804	0.531	-0.214
-526.018	-58.691	0.422	-0.231
-525.004	54.674	0.282	-0.345
-523.989	-200.000	0.002	-0.088
-522.975	800.000	0.066	0.317
-521.960	-73.593	0.230	0.106
-520.945	-35.724	-0.100	0.069
-519.931	-96.039	0.264	0.089
-518.916	-117.175	0.256	-0.059
-517.902	-151.864	-0.568	0.052
-516.887	-149.896	0.195	0.019
-515.872	24.296	0.304	0.319
-514.858	98.900	0.321	0.471
-513.843	-142.023	-0.282	0.035
-512.829	8.279	0.464	0.443
-511.814	-161.090	0.344	0.023
-510.799	-81.277	-0.584	-0.243
-509.785	-200.000	0.048	-0.302
-508.770	138.892	-0.120	-0.201
-507.756	-51.504	-0.219	0.129
-506.741	800.000	-0.120	-0.461
-505.726	43.991	-0.288	0.335
-504.712	800.000	-0.047	-0.214
-503.697	153.248	0.074	0.129
-502.683	174.514	-0.188	0.346
-501.668	-200.000	0.016	-0.178
-500.653	-150.345	0.522	0.050
-499.639	580.001	0.049	0.154
-498.624	-200.000	-0.015	0.313
-497.610	607.664	0.148	0.472
-496.595	-163.786	-0.239	0.014
-495.581	273.660	-0.045	0.101
-494.566	-24.964	0.225	0.169
-493.551	-99.989	0.559	0.176
-492.537	-59.220	0.021	-0.012
-491.522	-200.000	-0.044	0.903
-490.508	-176.194	-0.090	-0.003
-489.493	61.900	-0.243	0.307
-488.478	-160.710	0.394	-0.026
-487.464	-200.000	0.030	-0.234
-486.449	39.365	-0.021	0.024
-485.435	39.515	0.184	0.209
-484.420	2.979	0.206	-0.190
-483.405	-57.176	0.296	0.165
-482.391	-79.019	0.430	-0.185
-481.376	-13.275	-0.058	0.048
-480.362	-185.269	0.376	-0.007
-479.347	-200.000	0.033	-0.356
-478.332	143.634	-0.048	-0.081
-477.318	58.686	0.171	-0.213
-476.303	-200.000	-0.009	-0.158
-475.289	-140.688	0.153	-0.020
-474.274	-81.188	0.346	0.144
-473.259	-15.002	0.269	0.218
-472.245	-49.562	0.218	-0.131
-471.230	125.169	0.355	-0.568
-470.216	-22.226	-0.246	-0.189
-469.201	-200.000	-0.045	-0.460
-468.186	22.767	-0.041	0.043
-467.172	-64.682	0.175	-0.089
-466.157	210.503	0.263	0.524
-465.143	100.242	0.143	0.210
-464.128	-87.096	0.357	-0.137
-463.113	105.239	0.118	0.176
-462.099	-86.316	0.455	0.176
-461.084	0.747	0.499	-0.452
-460.070	-166.889	0.147	-0.008
-459.055	-31.530	0.644	-0.457
-458.040	233.680	0.178	-0.372
-457.026	-200.000	0.024	-0.425
-456.011	130.201	0.063	0.102
-454.997	30.245	-0.272	-0.294
-453.982	204.299	0.135	0.265
-452.968	-200.000	-0.048	-0.290
-451.953	87.660	0.256	-0.359
-450.938	12.561	0.287	0.280
-449.924	-33.528	-0.311	-0.217
-448.909	-58.956	0.456	-0.248
-447.895	-30.843	0.557	-0.398
-446.880	-200.000	0.043	-0.264
-445.865	-180.645	0.394	-0.010
-444.851	800.000	0.083	-0.320
-443.836	-54.409	-0.083	-0.048
-442.822	50.836	-0.295	-0.353
-441.807	-149.988	-0.267	-0.026
-440.792	167.340	-0.123	0.222
-439.778	-67.488	0.492	-0.243
-438.763	-138.656	0.230	-0.032
-437.749	-148.176	-0.113	0.012
-436.734	90.280	-0.179	0.253
-435.719	-153.352	-0.271	-0.024
-434.705	-200.000	0.009	0.190
-433.690	45.464	0.399	0.466
-432.676	800.000	-0.058	0.272
-431.661	-89.519	-0.389	0.144
-430.646	110.299	0.086	-0.131
-429.632	53.973	0.271	0.329
-428.617	-29.258	-0.096	-0.069
-427.603	-53.121	0.101	-0.059
-426.588	-132.962	-0.329	0.052
-425.573	43.466	-0.037	0.043
-424.559	75.371	0.191	0.255
-423.544	-118.479	-0.535	0.119
-422.530	-88.481	-0.585	0.219
-421.515	235.056	0.148	-0.311
-420.500	-79.042	-0.223	0.095
-419.486	800.000	-0.008	0.032
-418.471	39.801	-0.177	-0.200
-417.457	800.000	-0.047	-0.255
-416.442	-73.845	0.372	0.170
-415.428	-200.000	-0.009	-0.060
-414.413	-71.566	-0.767	0.361
-413.398	-73.180	0.143	-0.066
-412.384	-141.796	0.003	0.000
-411.369	-64.446	0.225	0.115
-410.355	-200.000	0.007	-0.046
-409.340	115.763	-0.339	0.525
-408.325	-65.926	-0.257	0.129
-407.311	-109.477	-0.491	-0.130
-406.296	-4.206	-0.423	-0.369
-405.282	-56.030	-0.220	0.123
-404.267	95.636	0.135	-0.195
-403.252	-37.126	-0.122	-0.082
-402.238	-1.367	0.185	-0.165
-401.223	-188.023	-0.308	-0.005
-400.209	73.009	-0.337	0.445
-399.194	-197.411	-0.196	0.002
-398.179	-121.145	-0.388	-0.081
-397.165	403.162	0.095	0.253
-396.150	224.330	0.161	-0.330
-395.136	77.109	-0.331	0.445
-394.121	-110.095	-0.389	0.102
-393.106	199.751	-0.192	0.373
-392.092	-200.000	-0.068	0.501
-391.077	-112.316	0.134	0.034
-390.063	182.031	0.132	0.246
-389.048	6.385	0.133	0.125
-388.033	-126.830	-0.463	-0.086
-387.019	-0.775	-0.195	0.174
-386.004	-19.741	0.299	-0.233
-384.990	182.843	-0.232	-0.433
-383.975	-28.675	0.237	-0.172
-382.960	-200.000	0.057	-0.395
-381.946	-200.000	-0.172	-0.001
-380.931	46.934	0.186	0.219
-379.917	-200.000	-0.017	0.230
-378.902	-14.404	-0.266	-0.216
-377.888	115.200	-0.324	-0.501
-376.873	-55.756	0.275	0.155
-375.858	-70.105	-0.201	0.096
-374.844	86.623	-0.135	0.188
-373.829	62.241	-0.232	-0.292
-372.815	-121.654	0.150	-0.031
-371.800	-200.000	-0.016	0.190
-370.785	-56.873	-0.259	0.144
-369.771	-66.519	-0.363	-0.181
-368.756	800.000	-0.077	-0.326
-367.742	609.486	-0.050	-0.158
-366.727	-9.905	-0.300	0.252
-365.712	47.591	-0.222	0.261
-364.698	-120.556	-0.093	-0.020
-363.683	102.442	0.148	-0.219
-362.669	-200.000	-0.004	-0.178
-361.654	-125.007	0.292	-0.056
-360.639	800.000	0.077	-0.410
-359.625	36.960	0.115	-0.129
-358.610	238.996	0.109	0.228
-357.596	-160.650	0.440	0.029
-356.581	64.956	0.256	-0.327
-355.566	800.000	0.105	-0.394
-354.552	32.712	-0.351	-0.383
-353.537	27.119	-0.191	-0.202
-352.523	-159.786	0.140	0.010
-351.508	-119.391	0.182	0.040
-350.493	19.431	0.191	0.193
-349.479	-59.184	0.475	0.257
-348.464	800.000	-0.128	0.463
-347.450	35.248	-0.433	0.478
-346.435	-200.000	0.014	0.245
-345.420	-35.380	-0.169	-0.116
-344.406	-12.699	-0.230	0.189
-343.391	-104.603	0.333	0.096
-342.377	37.640	0.197	0.220
-341.362	-32.285	-0.407	0.286
-340.348	-200.000	0.073	-1.095
-339.333	28.235	0.495	-0.527
-338.318	-98.605	-0.347	0.111
-337.304	-86.419	-0.379	0.146
-336.289	227.934	-0.024	0.049
-335.275	-137.094	0.154	-0.022
-334.260	-32.795	-0.037	0.026
-333.245	12.020	-0.115	0.112
-332.231	-89.595	-0.178	-0.066
-331.216	-200.000	-0.009	-0.289
-330.202	360.216	-0.028	0.070
-329.187	-132.684	-0.758	0.121
-328.172	-200.000	0.009	0.491
-327.158	-150.022	0.269	-0.026
-326.143	69.803	0.099	0.128
-325.129	-39.176	-0.151	0.100
-324.114	-200.000	0.014	0.366
-323.099	-140.421	0.242	0.031
-322.085	-111.941	0.208	-0.052
-321.070	-26.109	0.067	0.050
-320.056	94.085	0.097	-0.139
-319.041	176.938	-0.230	-0.422
-318.026	166.982	0.072	-0.128
-317.012	-113.327	0.133	0.033
-315.997	-200.000	0.007	-0.056
-314.983	228.087	-0.165	-0.338
-313.968	-37.080	-0.313	0.211
-312.953	-32.526	0.396	0.277
-311.939	154.953	0.192	-0.334
-310.924	-153.202	0.222	-0.019
-309.910	-90.606	-0.072	-0.026
-308.895	361.257	-0.064	0.162
-307.880	-1.142	0.097	-0.086
-306.866	-188.427	-0.210	0.003
-305.851	327.072	-0.101	-0.245
-304.837	-19.177	0.176	-0.137
-303.822	-139.689	0.377	-0.050
-302.807	-112.288	-0.184	-0.046
-301.793	-130.076	-0.215	0.037
-300.778	174.878	-0.214	0.390
-299.764	-200.000	0.046	-0.300
-298.749	-59.777	0.162	-0.087
-297.735	-56.388	-0.456	-0.254
-296.720	-63.201	-0.268	0.138
-295.705	-67.755	0.428	0.210
-294.691	-125.015	0.417	-0.080
-293.676	-3.122	-0.176	-0.154
-292.662	-135.773	-0.099	-0.015
-291.647	135.142	-0.143	-0.235
-290.632	121.600	0.076	-0.120
-289.618	800.000	-0.017	-0.062
-288.603	141.416	-0.157	0.261
-287.589	-13.384	0.278	0.227
-286.574	-78.573	0.291	0.125
-285.559	-119.639	-0.522	-0.113
-284.545	-86.899	0.345	0.132
-283.530	112.193	0.122	0.185
-282.516	800.000	-0.085	-0.358
-281.501	-31.429	0.500	0.353
-280.486	-17.823	0.054	-0.043
-279.472	-174.747	-0.378	0.013
-278.457	342.875	-0.079	0.196
-277.443	-143.200	-0.438	0.052
-276.428	14.922	0.145	0.143
-275.413	80.722	0.172	-0.233
-274.399	189.386	-0.249	0.470
-273.384	72.944	-0.146	0.192
-272.370	-29.315	-0.617	-0.443
-271.355	142.354	-0.270	-0.451
-270.340	-142.816	0.096	0.012
-269.326	-87.280	-0.170	0.064
-268.311	-52.607	-0.316	-0.183
-267.297	312.611	0.204	0.484
-266.282	800.000	-0.045	-0.210
-265.267	800.000	0.064	-0.260
-264.253	-50.548	-0.110	0.065
-263.238	531.933	-0.119	0.354
-262.224	-200.000	-0.015	0.118
-261.209	-200.000	0.008	0.448
-260.195	-11.318	-0.213	0.176
-259.180	476.767	0.046	0.130
-258.165	-200.000	0.026	-0.271
-257.151	206.116	0.243	0.477
-256.136	-101.795	-0.294	0.089
-255.122	-200.000	-0.017	0.409
-254.107	-85.851	0.276	0.107
-253.092	800.000	0.110	0.477
-252.078	-200.000	0.085	0.519
-251.063	126.359	0.185	0.295
-250.049	800.000	0.096	0.341
-249.034	-119.500	-0.503	0.109
-248.019	-200.000	0.009	0.051
-247.005	26.903	-0.485	-0.510
-245.990	-74.575	-0.122	-0.055
-244.976	800.000	-0.032	-0.139
-243.961	77.565	0.465	0.623
-242.946	-134.557	-0.248	-0.038
-241.932	-200.000	0.005	-0.311
-240.917	-56.021	0.196	-0.109
-239.903	-197.475	0.187	0.001
-238.888	-71.388	-0.253	0.118
-237.873	-200.000	-0.002	0.230
-236.859	-4.030	0.179	-0.156
-235.844	-77.174	-0.430	0.187
-234.830	800.000	0.156	0.548
-233.815	-21.626	0.543	0.414
-232.800	-133.369	-0.353	0.055
-231.786	306.112	-0.038	0.089
-230.771	-200.000	0.041	0.266
-229.757	4.744	-0.115	0.106
-228.742	-114.012	-0.475	-0.115
-227.727	-200.000	0.023	-0.210
-226.713	67.608	0.184	-0.236
-225.698	-64.506	-0.400	0.203
-224.684	-75.653	-0.021	-0.009
-223.669	94.397	0.253	-0.361
-222.655	-37.750	0.199	0.132
-221.640	800.000	-0.039	0.140
-220.625	277.730	-0.133	-0.298
-219.611	-9.419	-0.137	0.115
-218.596	-46.152	-0.211	0.130
-217.582	66.356	-0.195	-0.248
-216.567	268.724	-0.113	0.249
-215.552	114.559	-0.167	0.256
-214.538	-138.146	0.226	0.031
-213.523	210.588	0.348	-0.687
-212.509	0.607	0.108	0.097
-211.494	-131.499	-0.537	-0.088
-210.479	58.268	-0.067	-0.082
-209.465	800.000	0.068	-0.292
-208.450	-112.650	0.496	-0.123
-207.436	38.897	0.189	0.212
-206.421	387.564	0.105	-0.274
-205.406	-82.145	0.054	-0.022
-204.392	-37.224	-0.296	-0.198
-203.377	77.033	0.311	0.415
-202.363	-149.178	0.530	0.053
-201.348	-54.861	0.160	0.090
-200.333	-127.998	0.371	-0.066
-199.319	671.844	0.165	0.538
-198.304	288.114	-0.174	0.397
-197.290	369.486	-0.026	0.067
-196.275	305.494	0.165	-0.386
-195.260	104.281	-0.096	-0.142
-194.246	-90.252	-0.058	0.021
-193.231	-40.585	-0.107	-0.069
-192.217	-20.894	-0.298	0.229
-191.202	-52.342	-0.099	0.057
-190.187	318.353	0.200	-0.478
-189.173	-25.369	0.234	0.173
-188.158	192.909	0.119	-0.226
-187.144	31.179	-0.312	0.335
-186.129	-48.703	-0.102	-0.061
-185.114	-200.000	0.674	-0.002
-184.100	60.415	-0.167	-0.208
-183.085	-200.000	0.047	-0.453
-182.071	-188.410	0.366	0.006
-181.056	-200.000	0.030	0.355
-180.042	88.828	0.112	0.156
-179.027	-143.936	-0.352	-0.041
-178.012	-125.432	0.100	0.019
-176.998	-163.981	0.601	-0.034
-175.983	-24.327	0.410	-0.306
-174.969	64.585	0.107	-0.135
-173.954	117.925	-0.230	-0.356
-172.939	800.000	0.037	-0.156
-171.925	6.807	0.296	0.275
-170.910	-123.676	-0.143	0.028
-169.896	-200.000	0.029	0.204
-168.881	142.687	0.231	0.386
-167.866	-151.569	0.406	0.037
-166.852	800.000	0.095	-0.465
-165.837	-78.668	-0.093	-0.040
-164.823	21.281	0.131	-0.133
-163.808	263.304	-0.213	0.465
-162.793	-125.572	0.533	-0.100
-161.779	145.519	0.202	-0.339
-160.764	-107.549	0.564	-0.153
-159.750	134.888	0.212	0.345
-158.735	-200.000	-0.032	0.603
-157.720	576.850	-0.102	0.314
-156.706	97.580	-0.051	0.073
-155.691	-200.000	-0.042	-0.305
-154.677	388.982	0.174	0.454
-153.662	506.947	0.172	-0.502
-152.647	-200.000	-0.017	0.248
-151.633	288.693	-0.142	-0.324
-150.618	-22.588	0.159	0.120
-149.604	-82.516	0.033	-0.013
-148.589	800.000	-0.152	-0.705
-147.574	-64.751	-0.683	0.345
-146.560	-124.050	-0.115	-0.022
-145.545	-194.634	0.259	0.002
-144.531	90.954	0.175	-0.246
-143.516	-89.038	0.453	0.167
-142.502	-74.981	-0.245	0.109
-141.487	-37.058	-0.459	-0.306
-140.472	-126.996	-0.456	-0.083
-139.458	-0.464	-0.404	-0.359
-138.443	218.092	0.085	-0.171
-137.429	-200.000	-0.011	0.227
-136.414	126.324	0.148	0.234
-135.399	-9.918	0.522	0.434
-134.385	359.214	0.097	0.242
-133.370	144.066	-0.095	0.159
-132.356	698.930	0.065	0.215
-131.341	-111.566	-0.526	-0.133
-130.326	-108.424	-0.346	-0.093
-129.312	800.000	0.066	0.258
-128.297	-176.987	0.263	-0.008
-127.283	119.652	0.154	-0.239
-126.268	-103.917	0.281	0.081
-125.253	309.019	-0.042	-0.098
-124.239	403.797	-0.029	-0.076
-123.224	-90.547	-0.116	-0.042
-122.210	-96.222	0.088	0.029
-121.195	234.084	-0.156	-0.323
-120.180	800.000	0.042	0.211
-119.166	178.473	0.105	0.191
-118.151	92.151	-0.311	0.438
-117.137	58.288	0.373	0.458
-116.122	21.415	0.184	-0.187
-115.107	800.000	-0.068	0.267
-114.093	800.000	0.032	0.176
-113.078	206.753	0.097	0.190
-112.064	-42.442	-0.318	0.202
-111.049	-181.648	-0.256	-0.006
-110.034	87.524	0.055	-0.076
-109.020	78.345	0.108	0.144
-108.005	-41.522	-0.466	0.299
-106.991	-200.000	-0.057	-0.383
-105.976	800.000	-0.048	0.169
-104.962	-127.579	-0.712	-0.128
-103.947	-200.000	-0.012	-0.134
-102.932	-88.097	-0.086	0.032
-101.918	800.000	-0.068	-0.311
-100.903	123.436	0.045	0.071
-99.889	-200.000	0.007	-0.094
-98.874	-162.547	0.066	0.004
-97.859	624.653	0.174	0.552
-96.845	626.236	-0.121	0.383
-95.830	254.024	-0.171	0.366
-94.816	-106.257	-0.206	0.057
-93.801	311.575	-0.066	0.155
-92.786	-200.000	0.013	0.476
-91.772	-84.253	-0.330	0.130
-90.757	-108.082	0.384	-0.103
-89.743	83.718	-0.151	-0.206
-88.728	-94.000	-0.221	-0.075
-87.713	79.414	0.125	0.167
-86.699	62.052	-0.274	0.341
-85.684	-150.901	0.201	0.019
-84.670	-133.698	0.445	-0.069
-83.655	36.521	-0.144	-0.159
-82.640	297.558	-0.038	-0.087
-81.626	128.907	0.234	-0.374
-80.611	27.717	-0.115	0.121
-79.597	140.169	-0.119	0.197
-78.582	18.369	-0.112	0.112
-77.567	-63.714	-0.180	0.092
-76.553	-36.256	-0.140	0.094
-75.538	163.740	-0.292	-0.513
-74.524	-79.245	-0.237	-0.100
-73.509	423.295	-0.294	0.791
-72.494	555.660	-0.151	0.456
-71.480	-118.535	0.210	-0.046
-70.465	741.334	-0.034	-0.114
-69.451	800.000	0.063	-0.221
-68.436	58.239	-0.218	0.267
-67.422	-200.000	0.010	-0.070
-66.407	30.333	0.230	-0.245
-65.392	53.055	-0.039	-0.047
-64.378	-65.813	0.341	-0.169
-63.363	-41.475	0.224	-0.143
-62.349	490.619	-0.054	0.154
-61.334	62.767	-0.939	-1.172
-60.319	-7.790	0.611	0.513
-59.305	401.946	-2.283	-6.008
-58.290	-19.493	2.888	2.227
-57.276	391.637	4.005	10.416
-56.261	-200.000	12.850	194.915
-55.246	496.487	1118.571	3222.279
-54.232	66.731	2767.720	3513.358
-53.217	71.679	2709.307	3512.270
-52.203	60.952	2438.828	3018.030
-51.188	46.453	2081.556	2407.134
-50.173	41.578	1945.098	2195.518
-49.159	39.380	1934.267	2159.014
-48.144	39.007	1930.152	2150.223
-47.130	38.899	1927.440	2145.939
-46.115	38.790	1926.315	2143.396
-45.100	38.805	1924.648	2141.623
-44.086	38.847	1923.290	2140.493
-43.071	38.751	1921.450	2137.304
-42.057	38.788	1919.859	2135.851
-41.042	38.912	1918.498	2135.609
-40.027	38.785	1917.306	2132.811
-39.013	38.725	1916.444	2131.112
-37.998	38.751	1913.772	2128.341
-36.984	38.774	1913.232	2127.902
-35.969	38.639	1912.000	2124.980
-34.954	38.578	1911.388	2123.554
-33.940	38.599	1910.647	2122.877
-32.925	38.667	1908.646	2121.302
-31.911	38.628	1907.951	2120.022
-30.896	38.723	1906.050	2118.862
-29.881	38.697	1904.375	2116.627
-28.867	38.513	1903.904	2114.025
-27.852	38.580	1901.577	2112.085
-26.838	38.532	1899.740	2109.438
-25.823	38.417	1899.375	2107.704
-24.809	38.541	1897.477	2106.861
-23.794	38.602	1896.092	2105.895
-22.779	38.539	1895.543	2104.517
-21.765	38.449	1894.423	2102.224
-20.750	38.415	1893.093	2100.293
-19.736	38.500	1891.432	2099.288
-18.721	38.376	1890.180	2096.477
-17.706	38.367	1889.550	2095.601
-16.692	38.444	1888.577	2095.268
-15.677	38.418	1886.928	2093.069
-14.663	38.258	1885.351	2089.522
-13.648	38.541	1883.694	2090.645
-12.633	38.519	1881.745	2088.157
-11.619	38.370	1881.330	2086.019
-10.604	38.275	1880.293	2083.766
-9.590	38.303	1879.538	2083.147
-8.575	38.429	1877.716	2082.392
-7.560	38.325	1876.925	2080.324
-6.546	38.373	1875.889	2079.608
-5.531	38.374	1874.595	2078.100
-4.517	38.309	1873.794	2076.431
-3.502	38.337	1873.155	2075.941
-2.487	38.365	1871.065	2073.842
-1.473	38.462	1868.364	2071.794
-0.458	38.343	1847.997	2047.881
0.556	33.769	1975.143	2124.675
1.571	32.238	2189.772	2336.154
2.586	34.129	2240.260	2413.876
3.600	34.210	2242.791	2417.340
4.615	34.304	2243.398	2418.913
5.629	34.327	2241.763	2417.149
6.644	34.381	2240.079	2415.734
7.659	34.474	2238.250	2414.657
8.673	34.771	2237.145	2416.949
9.688	33.974	2240.124	2409.729
10.702	30.027	2305.806	2428.196
11.717	26.034	2366.919	2438.130
12.731	13.242	2335.137	2232.520
13.746	2.262	2304.716	2055.385
14.761	0.530	2299.136	2026.791
15.775	0.366	2297.554	2022.952
16.790	0.279	2295.356	2019.601
17.804	0.276	2293.478	2017.657
18.819	0.348	2292.592	2017.616
19.834	0.250	2291.777	2015.328
20.848	0.199	2290.171	2012.996
21.863	0.209	2288.483	2011.408
22.877	0.257	2286.151	2009.761
23.892	0.259	2283.851	2007.520
24.907	0.372	2281.311	2006.561
25.921	0.244	2280.803	2004.164
26.936	0.195	2277.822	2000.643
27.950	0.223	2275.242	1998.519
28.965	0.173	2273.627	1996.191
29.980	0.275	2272.128	1995.997
30.994	0.381	2270.147	1995.428
32.009	6.969	2293.608	2104.142
33.023	23.869	2344.890	2380.265
34.038	34.374	2369.915	2547.398
35.053	37.160	2374.805	2589.793
36.067	36.691	2369.589	2577.508
37.082	35.493	2364.334	2555.471
38.096	35.534	2363.231	2554.524
39.111	36.548	2362.753	2567.242
40.126	37.240	2363.009	2576.448
41.140	38.144	2364.629	2589.968
42.155	37.810	2362.501	2582.876
43.169	37.299	2359.868	2572.891
44.184	37.878	2358.832	2579.152
45.199	38.305	2357.063	2582.582
46.213	37.752	2354.811	2572.463
47.228	37.329	2352.474	2564.001
48.242	37.601	2350.739	2565.398
49.257	37.605	2349.696	2564.014
50.271	38.075	2348.575	2568.701
51.286	38.353	2346.212	2569.477
52.301	37.770	2342.522	2557.435
53.315	36.838	2339.198	2541.220
54.330	34.887	2330.324	2505.608
55.344	32.707	2321.356	2467.026
56.359	32.439	2317.832	2459.474
57.374	31.994	2315.409	2450.768
58.388	31.700	2312.024	2443.031
59.403	32.078	2309.789	2445.336
60.417	32.765	2309.436	2453.656
61.432	33.137	2308.040	2456.733
62.447	32.536	2304.412	2444.736
63.461	32.110	2301.763	2436.085
64.476	31.800	2299.250	2429.098
65.490	32.708	2301.476	2442.988
66.505	34.318	2305.555	2468.009
67.520	35.669	2306.916	2486.763
68.534	34.649	2300.545	2466.352
69.549	34.190	2297.163	2456.489
70.563	34.411	2294.577	2456.280
71.578	34.622	2293.308	2457.360
72.593	34.804	2293.650	2459.795
73.607	35.265	2291.932	2463.606
74.622	35.060	2289.193	2457.729
75.636	34.184	2284.716	2441.341
76.651	34.327	2282.219	2440.220
77.666	34.370	2280.904	2439.075
78.680	34.408	2279.247	2437.496
79.695	34.541	2278.511	2438.134
80.709	34.601	2277.518	2437.544
81.724	34.820	2275.398	2437.787
82.739	34.850	2273.376	2435.718
83.753	34.784	2270.394	2431.384
84.768	34.523	2267.660	2424.832
85.782	33.952	2266.427	2415.937
86.797	33.966	2263.807	2413.029
87.812	33.886	2261.428	2409.191
88.826	33.606	2259.492	2403.270
89.841	33.699	2257.705	2402.271
90.855	34.254	2256.379	2407.621
91.870	33.847	2253.848	2399.464
92.884	33.513	2251.679	2392.637
93.899	34.007	2251.937	2398.886
94.914	33.751	2250.628	2393.962
95.928	32.856	2246.692	2378.159
96.943	32.300	2243.626	2367.587
97.957	32.864	2244.074	2374.917
98.972	33.541	2241.949	2380.936
99.987	33.053	2236.967	2369.206
101.001	33.367	2236.338	2372.215
102.016	33.609	2235.138	2373.704
103.030	33.578	2233.070	2370.835
104.045	34.100	2232.824	2376.846
105.060	34.924	2232.759	2386.836
106.074	34.809	2230.775	2382.980
107.089	33.933	2225.750	2366.375
108.103	33.800	2225.973	2364.667
109.118	34.391	2224.613	2370.321
110.133	34.568	2222.493	2369.991
111.147	34.192	2220.305	2362.685
112.162	34.156	2218.041	2359.544
113.176	34.210	2216.687	2358.499
114.191	34.141	2215.616	2356.216
115.206	34.212	2213.802	2354.883
116.220	34.341	2210.952	2353.181
117.235	33.956	2209.385	2346.444
118.249	33.936	2206.138	2342.478
119.264	34.467	2205.753	2348.359
120.279	34.775	2206.183	2352.349
121.293	34.743	2203.644	2348.965
122.308	34.582	2202.191	2345.146
123.322	34.534	2199.804	2341.723
124.337	34.276	2198.335	2336.699
125.352	34.069	2197.042	2332.502
126.366	34.401	2198.047	2337.374
127.381	34.436	2194.532	2333.793
128.395	34.217	2191.152	2327.221
129.410	34.438	2189.561	2327.978
130.424	34.329	2188.041	2324.741
131.439	34.096	2185.811	2319.243
132.454	33.837	2182.600	2312.390
133.468	33.972	2181.702	2312.811
134.483	34.127	2179.565	2312.156
135.497	33.997	2177.747	2308.370
136.512	34.330	2176.575	2310.913
137.527	34.170	2174.405	2306.375
138.541	33.511	2171.577	2295.087
139.556	33.163	2170.246	2289.170
140.570	33.410	2168.234	2289.777
141.585	33.575	2167.362	2290.583
142.600	33.758	2166.526	2291.649
143.614	33.751	2165.355	2290.053
144.629	34.364	2164.740	2296.556
145.643	33.962	2161.892	2288.394
146.658	33.777	2158.917	2282.737
147.673	33.546	2156.871	2277.510
148.687	33.997	2157.269	2283.097
149.702	34.154	2156.728	2284.146
150.716	34.109	2154.991	2281.497
151.731	34.405	2154.675	2284.460
152.746	34.581	2154.246	2285.846
153.760	33.598	2150.459	2269.731
154.775	32.175	2145.785	2247.433
155.789	31.789	2142.121	2238.692
156.804	32.189	2141.071	2242.129
157.819	32.875	2139.436	2248.363
158.833	33.529	2138.083	2254.491
159.848	34.109	2138.687	2261.798
160.862	34.594	2138.510	2267.132
161.877	34.978	2138.914	2271.868
162.892	35.434	2138.786	2276.900
163.906	35.520	2137.353	2276.131
164.921	35.598	2135.086	2274.368
165.935	35.320	2133.126	2268.703
166.950	34.890	2130.526	2260.556
167.964	34.329	2125.689	2248.510
168.979	33.877	2124.427	2241.543
169.994	34.116	2122.645	2242.229
171.008	34.085	2120.554	2239.382
172.023	33.808	2119.765	2234.999
173.037	34.323	2119.292	2240.324
174.052	34.570	2118.795	2242.449
175.067	34.466	2116.122	2238.121
176.081	34.394	2114.773	2235.586
177.096	34.141	2113.743	2231.240
178.110	33.976	2110.616	2225.730
179.125	34.078	2109.801	2225.813
180.140	34.581	2109.825	2231.476
181.154	34.577	2108.529	2229.796
182.169	34.427	2105.763	2224.847
183.183	34.080	2104.602	2219.285
184.198	33.434	2100.951	2207.606
185.213	32.696	2098.280	2195.896
186.227	33.775	2098.659	2208.654
187.242	34.168	2097.656	2211.931
188.256	34.150	2096.392	2210.124
189.271	34.609	2096.182	2214.984
190.286	35.096	2094.996	2219.145
191.300	34.428	2090.454	2206.307
192.315	33.911	2088.429	2197.886
193.329	34.420	2088.627	2203.749
194.344	35.090	2088.165	2210.781
195.359	35.200	2086.733	2210.275
196.373	35.121	2085.126	2207.394
197.388	34.979	2082.220	2202.406
198.402	34.558	2078.888	2193.762
199.417	34.336	2076.970	2188.911
200.432	34.512	2076.681	2190.378
201.446	34.756	2075.987	2192.188
202.461	34.528	2072.505	2185.624
203.475	33.889	2069.577	2174.930
204.490	33.826	2068.134	2172.429
205.504	34.213	2066.519	2174.921
206.519	33.985	2062.892	2168.227
207.534	33.921	2061.769	2166.049
208.548	34.093	2061.020	2166.975
209.563	33.316	2057.357	2153.982
210.577	33.150	2056.747	2151.186
211.592	34.330	2057.775	2165.491
212.607	33.607	2054.749	2153.798
213.621	30.967	2048.568	2116.976
214.636	31.167	2047.269	2117.658
215.650	32.651	2049.823	2136.976
216.665	33.474	2049.921	2146.200
217.680	34.162	2049.638	2153.468
218.694	34.639	2048.751	2157.703
219.709	34.256	2046.217	2150.430
220.723	34.517	2046.491	2153.427
221.738	35.275	2045.815	2161.041
222.753	35.310	2043.684	2158.938
223.767	34.912	2041.171	2151.520
224.782	34.422	2038.168	2142.560
225.796	34.532	2036.975	2142.293
226.811	35.038	2036.411	2147.157
227.826	34.952	2034.980	2144.420
228.840	34.871	2034.507	2142.753
229.855	34.526	2031.698	2135.657
230.869	33.931	2027.478	2124.278
231.884	33.400	2025.330	2115.810
232.899	33.581	2025.012	2117.257
233.913	34.007	2024.496	2121.245
234.928	34.464	2024.418	2126.028
235.942	34.865	2022.906	2128.680
236.957	34.952	2021.771	2128.202
237.972	34.960	2021.824	2128.093
238.986	35.103	2020.851	2128.412
240.001	34.679	2017.810	2120.224
241.015	34.223	2015.811	2112.782
242.030	34.510	2015.268	2115.162
243.045	34.222	2013.284	2109.614
244.059	33.814	2011.798	2103.265
245.074	34.455	2010.262	2108.543
246.088	34.403	2006.547	2103.809
247.103	34.400	2005.327	2102.249
248.117	34.533	2004.217	2102.309
249.132	34.694	2003.450	2103.027
250.147	34.501	2000.020	2097.044
251.161	34.095	1996.844	2088.985
252.176	34.161	1995.780	2088.355
253.190	34.124	1993.876	2085.699
254.205	33.901	1992.434	2081.484
255.220	34.282	1992.233	2085.220
256.234	34.217	1991.434	2083.422
257.249	34.017	1988.697	2078.117
258.263	34.146	1988.856	2079.448
259.278	34.691	1989.212	2085.557
260.293	34.763	1987.894	2084.717
261.307	34.658	1984.928	2080.198
262.322	34.556	1983.219	2077.043
263.336	33.986	1980.743	2067.979
264.351	33.576	1977.834	2060.212
265.366	33.728	1977.147	2060.910
266.380	33.835	1976.138	2060.773
267.395	33.334	1972.325	2051.104
268.409	33.042	1971.270	2046.584
269.424	33.571	1971.368	2052.190
270.439	33.989	1971.220	2056.336
271.453	33.858	1969.089	2052.453
272.468	33.025	1965.048	2038.958
273.482	32.428	1961.566	2028.632
274.497	32.827	1960.786	2031.906
275.512	33.391	1960.404	2037.365
276.526	33.558	1957.616	2036.033
277.541	33.412	1955.219	2031.715
278.555	33.365	1954.990	2030.735
279.570	33.162	1952.017	2025.214
280.585	33.037	1950.512	2022.062
281.599	33.479	1950.905	2026.988
282.614	34.258	1951.564	2035.798
283.628	35.129	1951.769	2045.123
284.643	35.461	1951.126	2047.770
285.657	35.329	1950.078	2045.007
286.672	35.256	1948.162	2041.967
287.687	34.940	1945.570	2035.636
288.701	34.486	1943.291	2028.158
289.716	34.304	1941.531	2024.129
290.730	34.339	1940.369	2023.049
291.745	34.455	1938.888	2022.495
292.760	34.207	1936.704	2017.340
293.774	33.793	1935.944	2011.898
294.789	34.152	1936.788	2016.359
295.803	34.617	1934.189	2018.357
296.818	34.464	1933.124	2015.376
297.833	34.702	1932.323	2016.823
298.847	34.850	1931.486	2017.284
299.862	35.043	1930.369	2017.920
300.876	34.906	1928.232	2013.996
301.891	34.261	1924.402	2002.931
302.906	33.112	1922.512	1988.589
303.920	34.193	1923.522	2000.820
304.935	34.598	1921.652	2002.911
305.949	34.678	1920.023	2001.818
306.964	35.034	1918.514	2003.750
307.979	34.803	1915.383	1997.815
308.993	33.625	1911.977	1981.658
310.008	33.346	1909.443	1975.872
311.022	34.006	1908.924	1982.014
312.037	34.472	1910.135	1987.912
313.052	34.280	1908.497	1983.968
314.066	34.002	1905.293	1977.487
315.081	34.236	1905.308	1979.715
316.095	34.363	1904.836	1980.308
317.110	34.176	1902.458	1975.657
318.125	34.034	1899.789	1971.165
319.139	33.965	1898.599	1968.975
320.154	34.449	1898.675	1973.858
321.168	34.609	1897.635	1974.209
322.183	34.879	1897.049	1976.164
323.197	34.957	1895.079	1974.689
324.212	34.601	1892.650	1968.223
325.227	33.918	1889.488	1957.632
326.241	33.415	1887.379	1950.011
327.256	33.672	1886.625	1951.658
328.270	33.827	1886.033	1952.410
329.285	34.093	1885.755	1954.633
330.300	33.841	1885.537	1951.578
331.314	32.457	1880.352	1931.710
332.329	32.163	1879.031	1927.089
333.343	33.443	1879.337	1940.364
334.358	34.677	1879.009	1952.480
335.373	34.836	1878.233	1953.076
336.387	34.563	1876.169	1947.895
337.402	34.285	1873.897	1942.451
338.416	34.263	1871.703	1939.719
339.431	34.358	1870.611	1939.328
340.446	35.297	1870.908	1949.006
341.460	35.521	1870.204	1950.330
342.475	35.634	1868.779	1949.755
343.489	34.906	1865.862	1939.069
344.504	34.379	1864.555	1932.107
345.519	34.239	1861.784	1927.578
346.533	34.250	1859.914	1925.526
347.548	34.288	1859.131	1924.873
348.562	34.296	1857.896	1923.441
349.577	34.434	1857.700	1924.407
350.592	34.718	1856.952	1926.283
351.606	34.766	1855.704	1925.243
352.621	34.594	1853.716	1921.210
353.635	34.375	1851.960	1916.949
354.650	34.094	1849.191	1911.012
355.665	34.161	1847.401	1909.618
356.679	34.118	1847.110	1908.648
357.694	34.076	1846.849	1907.728
358.708	34.381	1846.178	1909.881
359.723	34.459	1843.973	1908.159
360.738	32.660	1838.484	1884.183
361.752	32.218	1837.306	1878.312
362.767	33.731	1838.181	1894.175
363.781	34.258	1837.904	1898.946
364.796	34.913	1837.071	1904.417
365.810	34.500	1833.938	1896.814
366.825	33.832	1832.052	1887.968
367.840	33.751	1831.531	1886.400
368.854	33.400	1829.572	1880.646
369.869	33.459	1827.217	1878.592
370.883	33.583	1826.436	1878.802
371.898	33.613	1825.911	1878.326
372.913	34.124	1825.014	1882.265
373.927	34.270	1824.038	1882.483
374.942	34.160	1823.633	1880.747
375.956	34.358	1821.668	1880.465
376.971	34.024	1819.183	1874.364
377.986	34.038	1818.410	1873.477
379.000	34.498	1818.237	1877.635
380.015	34.684	1816.915	1877.881
381.029	34.579	1814.914	1874.548
382.044	34.407	1814.260	1871.954
383.059	34.483	1811.381	1869.503
384.073	33.922	1808.522	1860.817
385.088	33.545	1807.570	1855.905
386.102	33.884	1807.145	1858.574
387.117	34.478	1806.251	1863.274
388.132	34.528	1806.406	1863.694
389.146	34.078	1804.695	1857.297
390.161	32.587	1798.184	1835.782
391.175	32.124	1796.849	1829.669
392.190	33.228	1794.820	1838.172
393.205	33.549	1792.649	1838.854
394.219	33.704	1791.985	1839.463
395.234	33.643	1790.462	1837.091
396.248	33.554	1789.563	1835.084
397.263	33.529	1787.525	1832.533
398.278	33.335	1785.427	1828.278
399.292	33.372	1785.276	1828.258
400.307	34.524	1787.340	1841.340
401.321	34.975	1786.289	1844.403
402.336	34.835	1784.274	1840.756
403.350	34.433	1782.816	1835.143
404.365	34.869	1782.299	1838.605
405.380	35.516	1781.953	1844.278
406.394	35.174	1779.288	1838.001
407.409	34.632	1777.760	1830.977
408.423	34.399	1775.632	1826.317
409.438	34.135	1773.728	1821.607
410.453	34.196	1773.088	1821.314
411.467	34.231	1771.949	1820.269
412.482	34.051	1770.301	1816.630
413.496	34.199	1769.911	1817.425
414.511	34.379	1768.448	1817.436
415.526	34.366	1764.895	1813.446
416.540	34.613	1764.315	1814.986
417.555	34.405	1763.526	1811.972
418.569	33.943	1762.686	1806.478
419.584	34.505	1763.250	1812.213
420.599	34.807	1762.095	1813.683
421.613	34.216	1760.632	1806.330
422.628	34.132	1759.463	1804.115
423.642	35.302	1760.339	1815.947
424.657	35.766	1758.524	1818.263
425.672	35.124	1755.508	1808.834
426.686	35.459	1756.165	1812.478
427.701	35.681	1755.918	1814.111
428.715	35.863	1754.798	1814.466
429.730	36.522	1754.973	1820.668
430.745	37.691	1755.557	1832.124
431.759	38.123	1755.612	1836.046
432.774	37.411	1751.660	1824.972
433.788	33.600	1740.473	1777.287
434.803	29.464	1733.277	1730.830
435.818	28.600	1730.861	1720.074
436.832	28.477	1729.708	1717.561
437.847	27.758	1723.237	1704.183
438.861	18.130	1695.232	1586.917
439.876	4.301	1668.784	1434.180
440.890	0.650	1661.291	1393.756
441.905	0.447	1660.418	1390.980
442.920	0.358	1658.598	1388.459
443.934	0.314	1657.508	1386.976
444.949	0.354	1656.683	1386.492
445.963	0.282	1655.941	1385.040
446.978	0.214	1656.021	1384.314
447.993	0.196	1654.475	1382.687
449.007	0.411	1651.545	1382.053
450.022	0.440	1649.417	1380.378
451.036	0.228	1649.217	1378.094
452.051	1.349	1655.128	1393.207
453.066	13.291	1684.822	1529.625
454.080	27.981	1708.261	1688.208
455.095	31.059	1712.533	1720.827
456.109	31.944	1714.850	1731.161
457.124	32.805	1714.441	1738.520
458.139	32.071	1711.880	1728.930
459.153	31.585	1709.946	1722.268
460.168	31.621	1708.649	1721.088
461.182	32.067	1708.627	1724.986
462.197	32.900	1708.511	1732.347
463.212	33.040	1707.652	1732.559
464.226	33.225	1706.018	1732.393
465.241	33.266	1704.731	1731.259
466.255	33.537	1704.211	1733.021
467.270	33.245	1702.791	1728.685
468.285	33.519	1702.129	1730.317
469.299	33.969	1702.323	1734.435
470.314	34.133	1700.987	1734.374
471.328	34.105	1699.324	1732.214
472.343	34.068	1698.579	1730.910
473.358	34.142	1696.807	1729.570
474.372	34.318	1696.267	1730.418
475.387	34.869	1695.099	1734.046
476.401	34.898	1694.019	1732.999
477.416	34.193	1692.245	1724.560
478.430	34.008	1692.268	1722.695
479.445	34.521	1691.594	1726.467
480.460	34.922	1689.740	1728.011
481.474	34.899	1688.580	1726.412
482.489	34.601	1686.440	1721.316
483.503	34.125	1683.018	1713.311
484.518	33.692	1681.336	1707.473
485.533	33.925	1681.671	1709.716
486.547	33.943	1679.617	1707.586
487.562	33.208	1677.090	1698.186
488.576	33.761	1676.654	1702.522
489.591	34.338	1677.336	1708.212
490.606	34.607	1676.479	1709.559
491.620	34.800	1674.969	1709.548
492.635	34.313	1670.647	1700.568
493.649	33.178	1667.699	1687.190
494.664	33.161	1667.855	1686.997
495.679	33.749	1666.938	1691.130
496.693	33.850	1665.991	1690.877
497.708	33.739	1665.095	1688.773
498.722	33.419	1663.579	1684.173
499.737	33.555	1662.382	1683.975
500.752	33.896	1661.496	1685.917
501.766	34.130	1659.024	1685.286
502.781	34.032	1657.589	1682.756
503.795	34.055	1656.007	1681.157
504.810	34.009	1655.049	1679.573
505.825	33.581	1653.933	1674.437
506.839	33.169	1652.282	1668.910
507.854	33.093	1651.097	1666.847
508.868	33.297	1649.358	1666.695
509.883	32.986	1647.875	1662.247
510.898	32.730	1645.859	1657.747
511.912	32.161	1643.103	1649.754
512.927	31.655	1640.864	1642.853
513.941	31.629	1638.801	1640.355
514.956	31.985	1638.879	1643.373
515.971	32.695	1639.308	1649.854
516.985	32.242	1637.710	1644.069
518.000	31.715	1635.416	1636.937
519.014	31.660	1633.630	1634.471
520.029	31.436	1631.787	1630.474
521.043	31.481	1630.594	1629.479
522.058	31.855	1629.772	1631.733
523.073	32.165	1629.187	1633.664
524.087	32.024	1628.167	1631.217
525.102	32.217	1627.891	1632.431
526.116	32.855	1627.590	1637.493
527.131	33.269	1626.806	1640.117
528.146	33.142	1625.908	1637.915
529.160	33.198	1624.242	1636.528
530.175	33.301	1624.198	1637.185
531.189	33.344	1622.889	1636.038
532.204	33.270	1620.710	1633.004
533.219	33.479	1620.385	1634.290
534.233	33.689	1621.177	1636.716
535.248	33.561	1618.606	1632.817
536.262	32.936	1616.057	1624.650
537.277	33.283	1616.989	1628.392
538.292	33.759	1616.699	1632.017
539.306	34.166	1614.852	1633.475
540.321	33.579	1612.147	1625.484
541.335	33.020	1610.065	1618.379
542.350	33.384	1609.052	1620.295
543.365	33.665	1607.872	1621.328
544.379	33.904	1607.273	1622.587
545.394	33.801	1605.248	1619.460
546.408	33.518	1603.539	1615.117
547.423	33.743	1603.696	1617.014
548.438	34.289	1603.268	1621.062
549.452	34.084	1601.518	1617.343
550.467	33.572	1600.361	1611.607
551.481	33.391	1598.412	1607.911
552.496	33.190	1596.860	1604.441
553.511	32.905	1595.109	1600.061
554.525	32.941	1594.496	1599.566
555.540	32.867	1592.731	1596.974
556.554	32.732	1592.441	1595.338
557.569	32.758	1589.774	1592.702
558.583	32.568	1588.472	1589.591
559.598	32.581	1587.267	1588.304
560.613	32.535	1587.108	1587.567
561.627	32.362	1585.472	1584.274
562.642	32.208	1583.065	1580.376
563.656	31.721	1580.308	1573.327
564.671	31.462	1578.627	1569.279
565.686	31.369	1576.905	1566.602
566.700	31.334	1576.300	1565.516
567.715	31.313	1574.911	1563.771
568.729	31.605	1574.573	1565.708
569.744	32.285	1573.493	1570.154
570.759	32.564	1572.671	1571.486
571.773	32.049	1571.149	1565.465
572.788	31.974	1568.824	1562.327
573.802	31.675	1566.697	1557.528
574.817	31.446	1564.969	1553.710
575.832	31.330	1563.367	1550.965
576.846	31.778	1564.120	1555.265
577.861	32.213	1564.238	1558.819
578.875	32.257	1563.025	1557.797
579.890	32.406	1561.310	1557.142
580.905	32.277	1560.753	1555.326
581.919	32.347	1560.713	1555.681
582.934	32.468	1560.087	1555.873
583.948	32.473	1557.858	1553.505
584.963	32.294	1557.566	1551.548
585.978	32.612	1556.477	1552.912
586.992	32.561	1555.633	1551.459
588.007	32.516	1554.691	1549.962
589.021	32.520	1552.407	1547.533
590.036	31.822	1551.102	1540.284
591.051	32.286	1550.397	1543.230
592.065	32.767	1548.806	1545.424
593.080	32.892	1547.473	1544.936
594.094	33.030	1547.317	1545.732
595.109	33.040	1545.993	1544.305
596.123	33.605	1545.852	1548.622
597.138	33.548	1544.168	1546.279
598.153	32.893	1542.234	1538.788
599.167	32.618	1539.950	1534.078
600.182	32.641	1537.997	1532.134
601.196	32.623	1538.045	1531.858
602.211	32.765	1536.857	1531.648
603.226	32.328	1534.630	1525.682
604.240	32.526	1533.138	1525.632
605.255	32.640	1532.481	1525.721
606.269	32.212	1531.144	1520.726
607.284	32.215	1529.359	1518.792
608.299	32.044	1527.535	1515.412
609.313	31.886	1526.810	1513.230
610.328	31.935	1525.583	1512.233
611.342	31.817	1524.307	1509.828
612.357	31.768	1523.098	1508.061
613.372	31.739	1521.747	1506.302
614.386	31.759	1520.408	1504.963
615.401	31.630	1519.580	1502.919
616.415	31.496	1518.540	1500.632
617.430	31.276	1517.317	1497.470
618.445	30.978	1515.784	1493.380
619.459	31.031	1514.151	1492.016
620.474	31.350	1513.976	1494.228
621.488	31.600	1515.014	1497.082
622.503	32.579	1514.089	1503.857
623.518	32.114	1511.290	1497.167
624.532	31.243	1508.769	1487.523
625.547	30.862	1507.591	1483.129
626.561	30.838	1506.836	1482.017
627.576	30.858	1505.823	1481.003
628.591	31.255	1506.430	1484.601
629.605	32.034	1505.890	1490.105
630.620	32.339	1504.968	1491.448
631.634	32.894	1504.819	1495.542
632.649	33.091	1504.170	1496.286
633.663	32.397	1501.602	1488.043
634.678	31.840	1498.113	1479.988
635.693	31.180	1496.226	1472.711
636.707	30.869	1493.846	1467.728
637.722	30.777	1493.055	1466.052
638.736	30.964	1492.694	1467.001
639.751	31.373	1491.916	1469.294
640.766	31.361	1490.723	1467.845
641.780	31.349	1489.254	1466.130
642.795	31.518	1489.389	1467.418
643.809	31.766	1488.229	1468.056
644.824	31.824	1487.717	1467.826
645.839	32.159	1487.182	1469.764
646.853	32.015	1485.449	1466.743
647.868	32.036	1484.639	1465.928
648.882	32.051	1483.908	1465.151
649.897	32.280	1482.453	1465.335
650.912	32.226	1480.802	1463.108
651.926	32.301	1480.348	1463.069
652.941	32.325	1479.443	1462.182
653.955	32.158	1477.231	1458.521
654.970	31.722	1473.961	1451.723
655.985	31.315	1472.794	1447.233
656.999	31.081	1471.687	1444.150
658.014	31.220	1470.296	1443.689
659.028	31.565	1470.680	1446.580
660.043	32.094	1470.930	1450.756
661.058	32.265	1469.710	1450.710
662.072	32.337	1469.015	1450.410
663.087	32.198	1467.163	1447.330
664.101	32.125	1465.901	1445.350
665.116	32.039	1464.522	1443.147
666.131	31.952	1463.354	1441.154
667.145	32.060	1462.274	1440.750
668.160	31.896	1461.013	1438.069
669.174	31.617	1458.858	1433.629
670.189	31.754	1457.837	1433.510
671.204	31.891	1457.852	1434.407
672.218	31.610	1457.606	1431.829
673.233	31.765	1455.781	1431.062
674.247	31.682	1454.077	1428.572
675.262	31.488	1452.641	1425.508
676.276	31.327	1451.668	1423.146
677.291	31.253	1451.239	1421.990
678.306	31.740	1450.382	1424.703
679.320	31.622	1448.162	1421.458
680.335	31.248	1447.034	1417.322
681.349	31.143	1446.902	1416.223
682.364	31.233	1445.813	1415.672
683.379	31.043	1443.752	1412.042
684.393	31.056	1441.917	1410.180
685.408	30.969	1441.396	1408.834
686.422	31.048	1440.636	1408.524
687.437	30.830	1438.977	1405.080
688.452	30.585	1437.949	1402.050
689.466	30.689	1436.256	1401.024
690.481	30.729	1435.299	1400.224
691.495	31.048	1435.954	1403.108
692.510	32.170	1437.217	1412.662
693.525	32.814	1436.353	1416.503
694.539	32.474	1433.859	1411.313
695.554	31.242	1431.961	1399.995
696.568	30.639	1430.041	1393.413
697.583	30.479	1428.114	1390.163
698.598	30.529	1427.330	1389.614
699.612	30.750	1425.429	1389.257
700.627	30.720	1425.175	1388.616
701.641	30.905	1424.615	1389.292
702.656	31.053	1423.483	1389.127
703.671	30.992	1423.409	1388.435
704.685	31.146	1423.115	1389.128
705.700	31.406	1422.288	1390.101
706.714	31.623	1419.907	1389.225
707.729	31.591	1418.862	1387.802
708.744	31.912	1418.031	1389.212
709.758	31.577	1417.246	1385.784
710.773	31.154	1414.599	1379.884
711.787	30.835	1413.013	1375.807
712.802	31.434	1412.484	1379.573
713.816	31.717	1412.841	1381.850
714.831	31.765	1411.882	1381.104
715.846	31.658	1410.580	1378.876
716.860	31.492	1408.848	1375.785
717.875	31.442	1408.514	1374.928
718.889	31.508	1406.768	1373.547
719.904	31.541	1404.894	1371.797
720.919	31.370	1404.439	1369.924
721.933	31.160	1403.555	1367.356
722.948	31.287	1401.896	1366.507
723.962	31.063	1400.622	1363.459
724.977	30.885	1399.843	1361.231
725.992	31.115	1398.955	1361.887
727.006	31.290	1397.407	1361.501
728.021	31.107	1396.547	1359.161
729.035	31.004	1395.084	1356.822
730.050	30.941	1393.845	1354.991
731.065	30.921	1392.444	1353.321
732.079	30.740	1391.398	1350.821
733.094	30.863	1390.382	1350.571
734.108	31.056	1389.273	1350.742
735.123	30.792	1388.054	1347.474
736.138	30.788	1386.648	1345.917
737.152	30.785	1385.835	1344.947
738.167	30.790	1384.321	1343.350
739.181	30.738	1383.281	1341.807
740.196	30.714	1382.671	1340.881
741.211	30.666	1381.704	1339.430
742.225	30.684	1380.508	1338.239
743.240	30.558	1379.214	1335.919
744.254	30.396	1377.913	1333.328
745.269	30.331	1376.196	1331.038
746.284	30.214	1375.993	1329.842
747.298	30.464	1375.724	1331.220
748.313	30.707	1375.404	1332.500
749.327	31.368	1375.895	1337.578
750.342	32.251	1376.531	1344.385
751.356	32.907	1375.592	1348.022
752.371	32.655	1373.203	1343.710
753.386	31.223	1370.527	1330.680
754.400	30.621	1368.625	1324.364
755.415	30.673	1366.816	1322.831
756.429	30.788	1365.672	1322.386
757.444	31.099	1365.301	1324.087
758.459	30.943	1364.404	1321.943
759.473	30.736	1363.298	1319.245
760.488	30.864	1361.550	1318.299
761.502	30.814	1360.579	1316.852
762.517	30.897	1359.822	1316.549
763.532	31.152	1359.029	1317.436
764.546	31.221	1357.855	1316.626
765.561	30.927	1356.720	1313.283
766.575	30.174	1355.376	1306.500
767.590	30.159	1354.376	1305.267
768.605	30.892	1353.616	1309.564
769.619	31.268	1352.965	1311.429
770.634	31.247	1351.736	1309.936
771.648	30.835	1350.704	1305.874
772.663	30.646	1349.477	1303.200
773.678	30.523	1348.671	1301.399
774.692	30.697	1347.978	1301.801
775.707	30.646	1347.800	1301.116
776.721	30.476	1346.362	1298.376
777.736	30.639	1344.294	1297.369
778.751	30.474	1343.862	1295.642
779.765	30.399	1342.704	1293.846
780.780	30.363	1342.009	1292.771
781.794	30.421	1341.053	1292.101
782.809	30.297	1339.139	1289.235
783.824	30.121	1338.238	1286.985
784.838	30.378	1338.135	1288.522
785.853	31.529	1338.319	1296.571
786.867	31.542	1337.527	1295.740
787.882	30.893	1336.107	1289.689
788.897	30.554	1334.585	1285.716
789.911	30.260	1333.459	1282.428
790.926	30.186	1331.205	1279.600
791.940	30.065	1329.771	1277.226
792.955	30.106	1328.833	1276.459
793.969	29.893	1327.683	1273.724
794.984	29.861	1327.344	1273.025
795.999	30.049	1326.335	1273.209
797.013	30.182	1324.368	1272.082
798.028	30.163	1323.003	1270.486
799.042	30.280	1322.458	1270.616
800.057	30.132	1321.491	1268.520
801.072	30.260	1320.182	1267.989
802.086	30.321	1319.149	1267.264
803.101	30.156	1318.108	1264.985
804.115	30.086	1317.852	1264.107
805.130	30.362	1316.762	1264.797
806.145	30.262	1315.057	1262.329
807.159	30.387	1314.071	1262.080
808.174	30.423	1313.770	1261.886
809.188	30.755	1312.365	1262.654
810.203	30.660	1310.645	1260.199
811.218	30.703	1309.552	1259.290
812.232	30.485	1307.932	1256.099
813.247	30.155	1306.980	1252.794
814.261	30.374	1306.833	1253.992
815.276	30.523	1306.286	1254.324
816.291	30.345	1304.580	1251.329
817.305	30.186	1303.576	1249.144
818.320	29.979	1302.421	1246.487
819.334	30.082	1301.394	1246.048
820.349	30.216	1300.222	1245.683
821.364	30.166	1298.374	1243.425
822.378	30.095	1297.238	1241.710
823.393	30.020	1295.324	1239.226
824.407	30.013	1293.916	1237.686
825.422	29.967	1294.033	1237.340
826.437	29.852	1293.012	1235.442
827.451	29.944	1291.410	1234.383
828.466	30.628	1291.544	1238.946
829.480	31.466	1290.533	1243.430
830.495	30.831	1287.886	1236.496
831.509	30.188	1286.066	1230.310
832.524	29.919	1285.031	1227.383
833.539	29.799	1284.297	1225.732
834.553	29.848	1282.835	1224.521
835.568	29.794	1281.375	1222.622
836.582	29.780	1281.086	1222.106
837.597	29.913	1279.735	1221.550
838.612	29.871	1278.306	1219.766
839.626	30.046	1277.653	1220.151
840.641	30.103	1277.240	1219.989
841.655	30.133	1276.259	1219.104
842.670	29.997	1274.545	1216.422
843.685	29.755	1273.394	1213.584
844.699	30.040	1271.840	1213.837
845.714	30.258	1270.745	1214.080
846.728	29.915	1270.650	1211.583
847.743	29.836	1269.489	1209.814
848.758	29.961	1267.928	1209.002
849.772	29.994	1266.607	1207.814
850.787	29.710	1265.659	1204.906
851.801	29.764	1264.133	1203.664
852.816	29.798	1263.061	1202.723
853.831	29.588	1261.695	1199.902
854.845	29.579	1260.252	1198.326
855.860	29.801	1258.836	1198.285
856.874	29.622	1258.093	1196.268
857.889	30.155	1257.887	1199.395
858.904	30.853	1257.589	1203.508
859.918	31.436	1256.955	1206.538
860.933	31.549	1256.215	1206.417
861.947	31.328	1253.829	1202.551
862.962	30.428	1251.656	1194.506
863.977	30.153	1250.202	1191.203
864.991	30.053	1249.098	1189.359
866.006	29.665	1248.988	1186.607
867.020	29.642	1247.482	1184.891
868.035	29.629	1246.019	1183.271
869.049	29.695	1245.030	1182.619
870.064	29.665	1244.058	1181.363
871.079	29.755	1243.239	1181.020
872.093	29.724	1243.105	1180.549
873.108	29.992	1241.549	1180.648
874.122	29.881	1240.419	1178.725
875.137	29.678	1240.149	1177.024
876.152	29.914	1238.865	1177.177
877.166	30.043	1236.494	1175.606
878.181	29.765	1235.299	1172.555
879.195	29.583	1235.513	1171.458
880.210	29.673	1235.017	1171.420
881.225	29.560	1233.674	1169.287
882.239	29.583	1232.414	1168.101
883.254	29.636	1231.511	1167.443
884.268	29.580	1230.822	1166.292
885.283	29.567	1229.595	1164.905
886.298	29.663	1227.619	1163.506
887.312	29.560	1226.963	1162.094
888.327	29.342	1226.215	1159.866
889.341	29.554	1224.437	1159.384
890.356	29.358	1224.135	1157.719
891.371	29.531	1223.998	1158.548
892.385	29.511	1223.709	1158.007
893.400	29.568	1222.670	1157.246
894.414	29.879	1220.792	1157.285
895.429	30.196	1220.174	1158.549
896.444	31.224	1220.665	1165.329
897.458	32.271	1220.763	1171.849
898.473	31.611	1218.990	1165.878
899.487	30.527	1216.947	1157.007
900.502	29.991	1214.946	1151.617
901.517	29.724	1213.200	1148.155
902.531	29.579	1211.870	1145.853
903.546	29.557	1211.500	1145.229
904.560	29.346	1210.649	1142.976
905.575	29.391	1209.821	1142.336
906.589	29.634	1208.529	1142.490
907.604	29.539	1208.107	1141.362
