DTS Sentinel unit serial number:	SN409020Multiplexer serial number:	ORYXHardware model number:	OX4-SRSoftware version number:	ORYX F/W v3.00 Oryx Data Collector v3.7.2.0data status	okinstallation	HaddamTimeLapsedifferential loss correction	single-endedforward channel	channel 3reverse channel	N/Adate	2011/06/22time	04:51:17forward acquisition time	30.00reverse acquisition time	0.00gamma	498.7831k internal	0.1752k external	0.1752temperature offset calibration	1.0074default loss term (dB/km)	0.3790temperature slope calibration	1.3530multiplexer offset coefficient	1.0000multiplexer slope coefficient	1.0000fibre end	0.00T internal ref (°C)	22.72T ext. ref 1 (°C)	17.83T ext. ref 2 (°C)	0.15length (m)	temperature (°C)	Stokes	anti-Stokes-747.200	-52.872	-0.596	0.363
-746.185	800.000	-0.184	0.806
-745.171	-0.814	-0.310	-0.291
-744.156	-106.172	0.228	-0.067
-743.142	92.508	-0.146	-0.219
-742.127	-110.416	-0.468	-0.128
-741.112	294.673	0.129	0.315
-740.098	573.815	-0.038	-0.125
-739.083	-68.213	-0.166	-0.085
-738.069	-200.000	0.035	0.267
-737.054	7.451	-0.355	-0.352
-736.039	-102.858	-0.567	-0.178
-735.025	-5.544	0.273	0.249
-734.010	-88.689	0.231	-0.091
-732.996	592.820	-0.048	-0.157
-731.981	-178.448	-0.481	0.015
-730.966	-155.800	-0.158	-0.013
-729.952	126.756	-0.076	0.129
-728.937	143.945	0.120	-0.212
-727.923	800.000	-0.066	-0.334
-726.908	800.000	-0.046	0.216
-725.894	-55.476	0.087	-0.052
-724.879	116.859	0.105	-0.171
-723.864	-131.499	-0.294	-0.051
-722.850	-13.222	0.119	-0.102
-721.835	-4.061	-0.191	-0.175
-720.821	-71.031	0.154	0.077
-719.806	-25.749	0.171	0.133
-718.791	-200.000	0.017	-0.418
-717.777	-41.039	-0.179	-0.122
-716.762	359.156	0.111	-0.296
-715.748	212.625	-0.157	-0.329
-714.733	209.306	-0.203	-0.424
-713.718	-141.003	0.308	0.041
-712.704	-114.036	0.072	-0.018
-711.689	58.120	0.127	0.165
-710.675	-67.449	0.526	-0.272
-709.660	-24.702	-0.155	-0.122
-708.645	-146.329	-0.515	-0.059
-707.631	-4.537	-0.497	0.454
-706.616	-200.000	-0.027	-0.622
-705.602	47.944	-0.323	-0.400
-704.587	-200.000	-0.004	-0.160
-703.572	70.227	0.353	-0.484
-702.558	314.154	-0.051	-0.129
-701.543	38.480	-0.223	-0.264
-700.529	-84.234	-0.293	-0.122
-699.514	-28.431	-0.365	-0.278
-698.499	8.284	0.220	0.218
-697.485	126.673	-0.243	-0.409
-696.470	48.361	-0.212	-0.263
-695.456	-80.237	-0.511	0.226
-694.441	-98.760	-0.239	-0.080
-693.426	-120.454	0.317	-0.071
-692.412	-105.314	0.185	0.056
-691.397	-93.864	0.277	-0.100
-690.383	800.000	-0.064	0.301
-689.368	147.829	0.214	-0.383
-688.354	185.267	0.232	-0.458
-687.339	-29.741	-0.227	0.171
-686.324	596.745	0.260	-0.857
-685.310	-119.634	-0.170	-0.039
-684.295	186.773	-0.211	-0.417
-683.281	-36.104	-0.495	-0.353
-682.266	800.000	-0.097	-0.399
-681.251	800.000	-0.011	0.048
-680.237	-174.133	0.237	0.009
-679.222	-85.130	0.130	0.053
-678.208	54.232	-0.347	-0.442
-677.193	-183.346	-0.485	-0.011
-676.178	162.009	0.235	-0.438
-675.164	356.383	0.182	-0.482
-674.149	-27.379	-0.312	-0.240
-673.135	634.755	-0.045	0.150
-672.120	-200.000	-0.169	0.000
-671.105	800.000	-0.070	-0.337
-670.091	-38.403	-0.362	-0.253
-669.076	494.384	0.119	-0.364
-668.062	-74.541	-0.368	-0.174
-667.047	-146.523	-0.502	-0.057
-666.032	-200.000	0.382	0.000
-665.018	51.049	-0.007	0.009
-664.003	283.956	0.119	0.285
-662.989	-60.128	-0.552	-0.311
-661.974	-33.235	-0.253	-0.185
-660.959	-115.670	0.249	0.061
-659.945	-106.773	0.266	-0.078
-658.930	-68.897	-0.288	-0.147
-657.916	68.911	0.398	-0.541
-656.901	-8.601	0.494	-0.438
-655.886	-200.000	0.048	-0.518
-654.872	-37.544	-0.194	-0.137
-653.857	-63.739	0.090	-0.049
-652.843	576.315	0.099	0.321
-651.828	180.846	0.085	0.165
-650.814	-57.360	0.147	0.085
-649.799	-43.327	-0.223	0.149
-648.784	800.000	-0.050	0.192
-647.770	-145.039	-0.391	0.047
-646.755	561.702	-0.149	0.479
-645.741	-200.000	0.004	0.085
-644.726	-38.269	-0.381	0.267
-643.711	40.011	-0.312	-0.370
-642.697	-63.408	0.282	0.153
-641.682	-103.635	0.607	-0.187
-640.668	-127.400	0.283	-0.054
-639.653	800.000	0.021	-0.101
-638.638	-141.455	0.301	-0.040
-637.624	-172.683	-0.208	0.008
-636.609	-72.800	0.256	-0.124
-635.595	-36.891	0.099	0.070
-634.580	-116.714	-0.038	0.009
-633.565	-200.000	0.002	-0.105
-632.551	-29.805	0.142	0.107
-631.536	24.937	0.057	-0.063
-630.522	12.776	0.142	0.145
-629.507	800.000	-0.076	0.360
-628.492	-30.422	-0.048	0.036
-627.478	-63.286	-0.238	0.129
-626.463	18.958	-0.221	0.234
-625.449	-45.982	0.167	0.109
-624.434	-47.387	-0.241	0.155
-623.419	-68.599	-0.376	0.191
-622.405	-44.041	-0.313	0.207
-621.390	-77.876	0.232	0.105
-620.376	206.581	0.107	-0.221
-619.361	-65.736	0.274	0.145
-618.346	-85.994	0.198	-0.080
-617.332	38.092	-0.106	-0.124
-616.317	-200.000	-0.030	-0.450
-615.303	-84.261	-0.559	0.233
-614.288	519.555	-0.087	-0.270
-613.273	204.364	-0.095	0.194
-612.259	-32.630	0.468	0.343
-611.244	95.104	0.161	0.242
-610.230	800.000	0.048	0.226
-609.215	-53.673	0.201	-0.121
-608.201	800.000	-0.129	-0.584
-607.186	800.000	-0.076	-0.422
-606.171	9.203	-0.313	0.312
-605.157	-200.000	0.021	-0.173
-604.142	-46.767	-0.239	0.154
-603.128	-58.118	0.151	-0.087
-602.113	-200.000	-0.006	0.045
-601.098	-85.638	-0.685	0.279
-600.084	-30.585	0.194	0.144
-599.069	-72.839	-0.251	-0.122
-598.055	15.526	0.069	-0.071
-597.040	-200.000	-0.069	-0.620
-596.025	-61.972	-0.191	0.105
-595.011	800.000	0.032	-0.154
-593.996	301.512	-0.046	-0.111
-592.982	-146.334	0.256	0.029
-591.967	-116.746	0.338	0.081
-590.952	119.540	0.122	-0.199
-589.938	-101.061	0.038	-0.012
-588.923	800.000	-0.036	0.169
-587.909	236.207	0.271	0.593
-586.894	-166.632	-0.380	0.021
-585.879	-5.292	-0.093	0.084
-584.865	249.366	-0.099	-0.223
-583.850	-200.000	0.122	-0.790
-582.836	341.158	0.080	-0.207
-581.821	-135.564	0.193	0.030
-580.806	86.940	-0.133	0.195
-579.792	20.452	-0.163	-0.174
-578.777	-57.966	-0.299	-0.172
-577.763	486.490	0.033	0.100
-576.748	-71.724	-0.340	0.166
-575.733	2.256	0.175	0.167
-574.719	-53.732	0.207	0.124
-573.704	664.206	0.152	0.520
-572.690	-43.002	0.240	-0.160
-571.675	-70.033	0.399	-0.199
-570.661	24.358	0.186	0.203
-569.646	-68.350	0.341	-0.174
-568.631	-126.287	-0.211	0.041
-567.617	214.658	0.083	0.174
-566.602	-164.267	-0.302	0.018
-565.588	727.904	0.089	0.314
-564.573	-200.000	-0.057	0.348
-563.558	38.801	0.267	0.315
-562.544	800.000	0.040	0.200
-561.529	19.992	-0.172	-0.183
-560.515	800.000	0.104	0.471
-559.500	139.989	0.235	-0.409
-558.485	-88.894	0.465	0.181
-557.471	800.000	-0.155	0.607
-556.456	-145.998	-0.504	0.058
-555.442	-63.172	0.535	0.290
-554.427	281.348	-0.181	0.429
-553.412	-88.539	0.370	-0.144
-552.398	-104.705	0.043	0.013
-551.383	-106.820	-0.320	-0.093
-550.369	-85.411	-0.104	0.043
-549.354	800.000	-0.093	-0.351
-548.339	26.184	-0.228	-0.251
-547.325	272.526	0.192	-0.449
-546.310	-200.000	-0.054	-0.477
-545.296	-62.194	-0.323	0.177
-544.281	-123.776	0.236	-0.049
-543.266	-200.000	-0.021	0.192
-542.252	223.073	-0.068	0.145
-541.237	-85.103	0.125	-0.051
-540.223	-200.000	-0.001	0.044
-539.208	-50.866	-0.238	-0.147
-538.193	-112.677	0.199	0.052
-537.179	-89.307	-0.397	-0.153
-536.164	181.349	0.076	-0.147
-535.150	715.376	-0.156	-0.549
-534.135	215.020	-0.182	-0.382
-533.121	124.610	0.117	-0.194
-532.106	800.000	0.038	-0.142
-531.091	-148.820	0.394	-0.041
-530.077	252.029	0.206	0.464
-529.062	-63.498	0.042	0.023
-528.048	800.000	-0.060	-0.232
-527.033	90.986	0.149	0.221
-526.018	-154.728	0.293	-0.025
-525.004	-15.307	-0.156	0.131
-523.989	46.197	0.182	-0.222
-522.975	800.000	0.069	-0.374
-521.960	26.585	0.302	-0.332
-520.945	715.185	0.120	0.420
-519.931	-43.211	0.122	-0.081
-518.916	-200.000	-0.002	-0.119
-517.902	-17.738	-0.290	0.239
-516.887	95.083	-0.219	0.329
-515.872	-200.000	0.039	0.282
-514.858	-179.726	0.061	0.002
-513.843	106.871	0.222	0.347
-512.829	-120.305	-0.413	0.092
-511.814	53.214	-0.253	-0.320
-510.799	-200.000	0.007	0.181
-509.785	45.870	-0.430	0.523
-508.770	-96.623	-0.433	0.149
-507.756	-162.894	0.477	0.030
-506.741	122.486	0.200	0.329
-505.726	-24.782	-0.340	0.265
-504.712	456.200	-0.070	-0.205
-503.697	-200.000	0.069	0.508
-502.683	87.128	-0.218	0.317
-501.668	-77.810	-0.254	0.115
-500.653	-104.479	-0.390	0.118
-499.639	-198.007	-0.099	0.001
-498.624	-81.117	-0.285	0.123
-497.610	-200.000	-0.040	0.455
-496.595	95.057	-0.265	-0.397
-495.581	-139.657	0.292	-0.040
-494.566	-158.147	0.169	-0.013
-493.551	32.861	0.109	-0.124
-492.537	157.406	-0.026	-0.048
-491.522	-41.049	0.314	0.212
-490.508	196.244	0.247	-0.496
-489.493	-35.216	0.287	0.205
-488.478	38.162	-0.119	-0.140
-487.464	-186.242	0.506	-0.009
-486.449	253.050	0.237	0.534
-485.435	10.557	0.253	0.253
-484.420	275.522	-0.161	-0.377
-483.405	-200.000	0.075	0.492
-482.391	167.932	-0.174	-0.326
-481.376	-87.708	-0.177	0.070
-480.362	554.098	-0.105	0.334
-479.347	-17.461	-0.087	0.072
-478.332	-138.750	-0.194	0.028
-477.318	145.180	-0.097	-0.170
-476.303	-200.000	0.025	-0.150
-475.289	800.000	0.050	-0.199
-474.274	313.580	-0.139	-0.345
-473.259	-126.764	-0.483	-0.093
-472.245	732.483	0.077	-0.273
-471.230	-200.000	0.029	-0.215
-470.216	-0.848	-0.116	-0.108
-469.201	-86.540	-0.133	0.053
-468.186	-200.000	0.022	-0.249
-467.172	0.952	-0.350	0.329
-466.157	188.181	-0.153	0.302
-465.143	68.735	-0.223	-0.300
-464.128	-10.925	0.142	0.123
-463.113	-154.308	-0.297	-0.026
-462.099	630.887	0.069	-0.232
-461.084	272.281	-0.212	0.494
-460.070	-171.250	-0.587	-0.025
-459.055	-106.829	-0.283	-0.082
-458.040	-25.603	0.399	-0.309
-457.026	69.091	-0.119	-0.161
-456.011	303.006	-0.121	0.296
-454.997	-135.250	-0.307	0.048
-453.982	637.551	-0.043	-0.143
-452.968	-141.686	0.296	-0.039
-451.953	-99.782	0.019	-0.006
-450.938	-18.106	0.099	0.082
-449.924	473.641	0.091	0.269
-448.909	-78.734	0.311	0.139
-447.895	-76.723	0.459	0.210
-446.880	-191.606	0.160	-0.002
-445.865	-56.520	-0.432	0.251
-444.851	99.668	-0.090	0.137
-443.836	581.644	0.023	-0.075
-442.822	-19.891	0.169	0.136
-441.807	800.000	0.047	0.241
-440.792	-43.594	-0.166	0.110
-439.778	-140.363	0.219	0.030
-438.763	-158.957	0.515	0.038
-437.749	800.000	0.032	0.118
-436.734	215.155	-0.107	0.224
-435.719	-200.000	-0.013	-0.133
-434.705	-200.000	0.009	-0.266
-433.690	-200.000	-0.036	0.263
-432.676	-113.663	-0.316	-0.080
-431.661	800.000	-0.063	-0.257
-430.646	-3.451	-0.320	-0.292
-429.632	800.000	-0.152	0.580
-428.617	-60.177	-0.338	-0.188
-427.603	296.555	0.198	0.477
-426.588	-90.414	-0.574	0.217
-425.573	-54.759	-0.162	0.096
-424.559	81.313	-0.258	0.366
-423.544	239.637	0.123	-0.269
-422.530	-77.280	-0.025	-0.011
-421.515	57.819	0.190	0.244
-420.500	274.590	-0.117	0.272
-419.486	-172.010	-0.299	-0.012
-418.471	-79.749	0.240	-0.106
-417.457	-142.244	0.669	-0.086
-416.442	-127.383	0.173	0.033
-415.428	342.976	0.060	0.155
-414.413	206.904	-0.326	0.668
-413.398	-80.078	0.248	0.109
-412.384	-9.524	0.259	0.226
-411.369	-137.154	0.332	-0.049
-410.355	-188.826	0.742	-0.012
-409.340	-87.730	0.259	0.102
-408.325	-154.093	0.286	0.025
-407.311	-19.652	0.159	0.129
-406.296	59.933	-0.179	0.232
-405.282	-79.467	-0.510	0.225
-404.267	-142.700	-0.177	0.022
-403.252	-147.645	0.427	0.046
-402.238	583.222	0.111	-0.359
-401.223	10.124	-0.320	-0.318
-400.209	261.216	0.116	0.264
-399.194	-66.601	-0.315	0.163
-398.179	17.310	0.246	0.256
-397.165	-126.490	0.210	-0.040
-396.150	18.308	0.264	0.276
-395.136	254.971	0.089	0.200
-394.121	-123.271	0.362	0.075
-393.106	-200.000	-0.010	0.098
-392.092	-136.830	-0.149	0.022
-391.077	-75.595	0.153	-0.071
-390.063	597.316	-0.039	-0.128
-389.048	-9.447	0.352	-0.307
-388.033	-160.541	-0.307	-0.021
-387.019	-85.295	0.192	-0.078
-386.004	-90.972	0.104	0.039
-384.990	-114.716	-0.719	-0.179
-383.975	-103.609	0.372	-0.114
-382.960	287.623	0.057	0.135
-381.946	-21.422	0.495	-0.395
-380.931	96.758	0.087	0.130
-379.917	800.000	0.053	0.265
-378.902	182.287	-0.102	0.197
-377.888	-200.000	-0.031	-0.430
-376.873	70.976	0.169	0.229
-375.858	36.026	-0.332	-0.383
-374.844	-15.085	-0.653	-0.547
-373.829	800.000	0.051	-0.243
-372.815	120.762	0.226	-0.368
-371.800	-59.641	-0.089	-0.050
-370.785	-47.403	-0.242	-0.153
-369.771	-11.354	0.092	0.079
-368.756	-119.034	0.413	-0.094
-367.742	502.696	0.144	-0.438
-366.727	161.077	-0.082	0.151
-365.712	-58.075	0.535	0.304
-364.698	-33.009	-0.157	-0.114
-363.683	-200.000	-0.016	0.449
-362.669	800.000	-0.026	-0.119
-361.654	-14.720	0.036	0.030
-360.639	-22.176	-0.432	-0.342
-359.625	-200.000	0.003	0.186
-358.610	-126.678	0.287	0.055
-357.596	-70.631	0.468	-0.230
-356.581	-77.024	0.421	-0.191
-355.566	-200.000	-0.064	-0.763
-354.552	492.287	-0.081	-0.244
-353.537	800.000	-0.055	-0.221
-352.523	14.851	-0.095	0.097
-351.508	-21.463	-0.111	0.088
-350.493	-97.353	0.531	0.180
-349.479	-170.172	0.368	0.017
-348.464	136.216	0.177	-0.303
-347.450	92.334	0.169	-0.249
-346.435	-94.814	-0.218	0.077
-345.420	-57.347	-0.177	0.102
-344.406	-102.125	-0.248	0.077
-343.391	800.000	0.047	0.239
-342.377	-144.489	-0.125	-0.015
-341.362	-138.651	-0.327	-0.046
-340.348	368.043	-0.076	0.201
-339.333	140.995	0.146	-0.254
-338.318	-200.000	-0.012	0.232
-337.304	536.512	-0.153	0.477
-336.289	-186.770	-0.190	-0.003
-335.275	-107.021	-0.395	0.113
-334.260	-125.642	0.286	0.056
-333.245	157.454	0.199	-0.361
-332.231	-158.575	0.736	-0.055
-331.216	-69.617	0.567	-0.282
-330.202	-24.868	-0.279	0.216
-329.187	-24.393	0.149	0.116
-328.172	-148.446	0.161	0.017
-327.158	-106.839	0.048	-0.014
-326.143	-76.224	0.133	-0.061
-325.129	-88.830	-0.218	0.084
-324.114	-33.451	-0.322	-0.232
-323.099	25.560	-0.161	-0.175
-322.085	800.000	0.048	-0.190
-321.070	261.944	-0.054	-0.122
-320.056	141.782	0.291	-0.505
-319.041	-139.387	0.336	0.047
-318.026	-12.733	-0.151	-0.128
-317.012	82.969	0.271	-0.385
-315.997	-200.000	-0.061	-0.594
-314.983	-51.877	-0.302	0.183
-313.968	56.814	-0.187	-0.238
-312.953	192.119	-0.015	0.029
-311.939	-156.059	-0.218	-0.018
-310.924	137.397	0.072	-0.124
-309.910	180.122	-0.202	-0.387
-308.895	127.532	-0.231	-0.384
-307.880	-192.019	0.330	-0.004
-306.866	-200.000	0.020	-0.156
-305.851	-98.588	0.069	0.023
-304.837	-200.000	-0.007	-0.060
-303.822	-77.704	-0.432	0.194
-302.807	261.918	-0.170	-0.386
-301.793	48.490	0.232	-0.283
-300.778	-200.000	0.035	0.239
-299.764	-55.396	-0.331	0.193
-298.749	75.873	-0.095	-0.132
-297.735	-200.000	-0.003	0.071
-296.720	-158.756	-0.229	0.017
-295.705	-12.358	0.328	0.280
-294.691	-147.770	0.230	-0.025
-293.676	-6.105	0.196	-0.175
-292.662	-200.000	0.040	-0.285
-291.647	-27.143	0.347	-0.264
-290.632	-200.000	-0.014	-0.276
-289.618	121.818	-0.027	-0.044
-288.603	-200.000	0.042	0.249
-287.589	47.816	0.264	-0.321
-286.574	-58.070	0.331	-0.188
-285.559	43.266	0.274	-0.327
-284.545	-200.000	-0.022	0.174
-283.530	-2.638	0.162	0.148
-282.516	-200.000	0.008	0.049
-281.501	-35.206	0.209	-0.148
-280.486	-76.354	-0.078	-0.036
-279.472	153.089	-0.071	-0.128
-278.457	248.375	0.201	-0.444
-277.443	-63.188	-0.439	-0.235
-276.428	36.548	-0.426	0.490
-275.413	73.094	-0.206	-0.281
-274.399	-32.408	0.414	-0.300
-273.384	-15.193	0.158	0.132
-272.370	800.000	-0.060	0.236
-271.355	-103.219	0.365	-0.112
-270.340	-59.752	-0.299	-0.166
-269.326	239.274	-0.028	-0.061
-268.311	-82.047	0.087	0.037
-267.297	624.351	-0.102	0.336
-266.282	-135.114	-0.320	0.050
-265.267	114.149	0.061	-0.097
-264.253	-41.648	-0.209	-0.139
-263.238	-0.476	0.317	-0.293
-262.224	19.753	0.209	0.219
-261.209	-119.843	0.140	-0.031
-260.195	86.205	0.030	-0.044
-259.180	-200.000	0.024	-0.248
-258.165	143.834	0.169	0.294
-257.151	-111.408	0.428	-0.113
-256.136	-200.000	-0.000	0.015
-255.122	18.490	-0.227	0.236
-254.107	81.676	-0.253	-0.356
-253.092	-103.371	-0.518	0.158
-252.078	800.000	-0.028	-0.134
-251.063	-200.000	0.023	-0.267
-250.049	-130.957	0.251	0.043
-249.034	118.932	-0.168	0.271
-248.019	-0.367	-0.167	-0.154
-247.005	45.457	-0.304	-0.365
-245.990	-105.998	0.137	0.040
-244.976	-200.000	0.002	0.186
-243.961	50.323	-0.211	0.260
-242.946	-122.212	0.295	-0.062
-241.932	-91.310	0.178	0.066
-240.917	-122.963	-0.221	0.046
-239.903	-122.895	0.274	0.057
-238.888	-200.000	-0.001	0.312
-237.873	-31.952	0.020	0.014
-236.859	156.949	0.059	0.107
-235.844	-63.223	0.210	-0.112
-234.830	-2.276	0.207	-0.189
-233.815	-45.025	-0.057	-0.037
-232.800	-107.588	0.270	-0.076
-231.786	800.000	-0.037	-0.211
-230.771	800.000	-0.064	-0.280
-229.757	75.913	0.208	-0.287
-228.742	800.000	0.096	-0.415
-227.727	-200.000	0.427	-0.001
-226.713	-143.579	-0.651	-0.080
-225.698	800.000	-0.070	0.273
-224.684	-71.118	-0.217	0.106
-223.669	-63.379	-0.596	0.318
-222.655	-99.337	-0.847	-0.276
-221.640	358.608	0.113	-0.295
-220.625	63.148	-0.095	-0.124
-219.611	-162.005	-0.182	-0.012
-218.596	-45.707	0.156	0.100
-217.582	12.440	-0.038	-0.038
-216.567	-127.710	-0.215	0.040
-215.552	184.590	0.036	-0.069
-214.538	8.080	-0.044	-0.043
-213.523	-129.791	-0.465	0.082
-212.509	158.200	0.103	0.186
-211.494	217.980	0.080	-0.167
-210.479	-200.000	-0.003	0.125
-209.465	99.875	0.298	0.450
-208.450	-200.000	-0.033	0.509
-207.436	33.525	-0.069	0.078
-206.421	-121.546	-0.407	0.087
-205.406	81.755	0.073	0.103
-204.392	-200.000	0.050	-0.536
-203.377	144.976	-0.180	0.314
-202.363	28.441	0.231	0.254
-201.348	5.286	0.130	0.124
-200.333	-43.415	0.259	0.170
-199.319	-144.529	0.196	-0.023
-198.304	-73.841	-0.129	0.061
-197.290	-200.000	0.027	0.244
-196.275	21.546	-0.371	0.392
-195.260	-64.158	-0.325	-0.171
-194.246	91.430	-0.064	-0.094
-193.231	-21.219	-0.154	-0.122
-192.217	72.706	0.227	-0.309
-191.202	-144.027	0.223	-0.027
-190.187	228.947	-0.054	0.115
-189.173	800.000	-0.194	-0.834
-188.158	-200.000	0.011	0.438
-187.144	-66.514	0.357	-0.184
-186.129	800.000	0.093	-0.405
-185.114	320.587	-0.150	-0.370
-184.100	-200.000	0.065	0.598
-183.085	-200.000	-0.063	-0.384
-182.071	-68.145	0.379	-0.191
-181.056	5.380	0.106	0.102
-180.042	465.097	-0.127	0.371
-179.027	358.478	-0.038	0.099
-178.012	99.999	0.176	0.266
-176.998	-35.950	-0.254	-0.178
-175.983	-200.000	0.020	0.142
-174.969	-89.230	0.284	0.108
-173.954	-66.915	0.189	-0.096
-172.939	-39.160	0.117	0.079
-171.925	25.952	-0.142	0.153
-170.910	800.000	-0.129	-0.504
-169.896	-40.001	-0.305	0.206
-168.881	800.000	0.024	0.125
-167.866	-23.514	0.219	0.170
-166.852	-200.000	-0.019	-0.360
-165.837	69.396	0.146	-0.195
-164.823	-147.597	0.181	-0.020
-163.808	-169.420	-0.474	-0.022
-162.793	-72.005	0.289	0.139
-161.779	265.510	0.252	0.573
-160.764	-109.177	0.323	-0.089
-159.750	-200.000	-0.009	-0.385
-158.735	115.568	-0.173	-0.275
-157.720	-178.804	-0.203	-0.006
-156.706	-98.504	-0.070	-0.023
-155.691	-60.886	-0.579	0.317
-154.677	19.619	-0.215	0.224
-153.662	-146.111	-0.630	0.071
-152.647	129.976	0.057	0.095
-151.633	-200.000	-0.066	-0.393
-150.618	-111.987	-0.392	-0.102
-149.604	-120.850	0.316	0.069
-148.589	-53.140	-0.222	-0.132
-147.574	-61.352	0.611	0.332
-146.560	-102.676	-0.336	-0.103
-145.545	112.737	-0.186	0.292
-144.531	-121.069	0.099	-0.021
-143.516	35.335	-0.169	0.192
-142.502	-147.811	0.116	-0.012
-141.487	-69.963	0.249	0.123
-140.472	211.385	0.086	0.177
-139.458	51.958	0.075	0.093
-138.443	-45.039	0.277	-0.178
-137.429	-200.000	-0.041	-0.245
-136.414	-6.690	0.353	0.311
-135.399	-85.899	-0.248	-0.099
-134.385	-146.048	-0.538	0.061
-133.370	446.998	0.082	-0.235
-132.356	-49.910	0.246	-0.151
-131.341	-170.177	0.313	-0.014
-130.326	-21.650	-0.225	0.177
-129.312	70.821	0.219	0.294
-128.297	-82.095	0.231	0.097
-127.283	257.356	-0.211	-0.472
-126.268	-29.010	0.169	-0.125
-125.253	38.416	-0.269	-0.311
-124.239	264.035	0.146	-0.331
-123.224	-77.078	0.277	0.125
-122.210	-200.000	-0.038	-0.234
-121.195	-84.756	0.152	0.061
-120.180	-200.000	-0.355	0.001
-119.166	-61.146	-0.206	0.112
-118.151	94.279	-0.266	0.392
-117.137	421.157	-0.184	-0.513
-116.122	-200.000	0.027	0.515
-115.107	564.279	-0.097	-0.307
-114.093	350.654	-0.074	-0.190
-113.078	-21.567	-0.184	0.145
-112.064	-200.000	-0.026	0.451
-111.049	181.594	-0.099	0.189
-110.034	37.691	-0.203	0.233
-109.020	-94.825	0.149	-0.052
-108.005	800.000	-0.112	0.440
-106.991	-127.000	-0.570	-0.108
-105.976	800.000	-0.059	-0.298
-104.962	163.523	-0.187	0.341
-103.947	800.000	-0.108	0.443
-102.932	-45.562	0.236	-0.151
-101.918	114.437	-0.393	-0.621
-100.903	326.533	0.102	-0.255
-99.889	51.238	0.037	-0.045
-98.874	351.951	0.098	-0.252
-97.859	-84.772	-0.422	0.171
-96.845	161.198	-0.026	-0.047
-95.830	614.859	-0.073	0.238
-94.816	192.472	0.099	-0.193
-93.801	7.013	0.039	0.037
-92.786	-50.924	-0.402	0.244
-91.772	230.393	-0.338	-0.717
-90.757	33.954	0.201	-0.227
-89.743	-200.000	-0.068	0.472
-88.728	-158.323	-0.203	-0.015
-87.713	-87.601	-0.285	-0.111
-86.699	322.505	-0.109	0.270
-85.684	-54.696	0.187	-0.109
-84.670	0.124	0.344	-0.317
-83.655	-77.661	0.117	0.052
-82.640	-59.768	0.285	-0.157
-81.626	161.046	0.228	0.414
-80.611	-5.382	0.147	0.130
-79.597	-137.653	0.388	-0.056
-78.582	164.935	-0.099	-0.182
-77.567	-199.091	-0.277	-0.002
-76.553	420.931	-0.078	-0.217
-75.538	103.576	-0.142	0.216
-74.524	-112.207	-0.084	-0.022
-73.509	-4.145	-0.165	0.148
-72.494	44.489	-0.180	0.214
-71.480	-106.085	-0.441	0.127
-70.465	262.410	-0.104	0.234
-69.451	135.651	0.119	-0.200
-68.436	800.000	0.113	0.443
-67.422	-0.764	0.069	-0.063
-66.407	171.146	-0.043	0.079
-65.392	57.566	0.096	0.121
-64.378	661.660	0.146	0.489
-63.363	-111.002	0.062	0.016
-62.349	-51.688	-0.218	-0.131
-61.334	58.653	-2.375	-3.016
-60.319	0.524	1.056	0.974
-59.305	233.013	-3.538	-7.542
-58.290	58.804	3.848	4.890
-57.276	363.951	3.699	9.655
-56.261	-200.000	24.502	318.450
-55.246	358.783	1297.699	3365.365
-54.232	53.598	2839.449	3522.969
-53.217	51.775	2659.893	3271.918
-52.203	32.147	2389.336	2662.787
-51.188	28.044	2054.831	2239.512
-50.173	24.630	1941.238	2075.834
-49.159	23.501	1929.784	2050.394
-48.144	23.116	1925.015	2040.774
-47.130	22.978	1922.817	2036.769
-46.115	22.901	1921.382	2034.282
-45.100	23.016	1919.686	2033.732
-44.086	22.974	1918.091	2031.476
-43.071	22.898	1916.705	2029.046
-42.057	22.783	1915.971	2026.867
-41.042	22.907	1913.447	2025.546
-40.027	23.027	1911.371	2024.641
-39.013	22.991	1910.264	2022.976
-37.998	22.912	1910.384	2022.117
-36.984	22.860	1908.142	2019.070
-35.969	22.839	1907.498	2018.062
-34.954	22.828	1907.087	2017.424
-33.940	22.740	1906.194	2015.382
-32.925	22.763	1904.336	2013.609
-31.911	22.750	1902.434	2011.361
-30.896	22.878	1901.079	2011.316
-29.881	22.781	1899.817	2008.789
-28.867	22.806	1897.731	2006.799
-27.852	22.680	1896.356	2003.823
-26.838	22.792	1894.549	2003.115
-25.823	22.703	1893.090	2000.469
-24.809	22.803	1891.673	2000.036
-23.794	22.732	1891.920	1999.415
-22.779	22.817	1889.816	1998.075
-21.765	22.719	1889.161	1996.188
-20.750	22.643	1887.937	1993.946
-19.736	22.700	1886.670	1993.178
-18.721	22.771	1885.387	1992.551
-17.706	22.677	1884.745	1990.725
-16.692	22.723	1882.811	1989.133
-15.677	22.647	1881.490	1986.791
-14.663	22.561	1880.606	1984.808
-13.648	22.629	1879.320	1984.139
-12.633	22.637	1878.231	1983.005
-11.619	22.656	1877.022	1981.859
-10.604	22.543	1875.457	1978.852
-9.590	22.610	1874.480	1978.505
-8.575	22.691	1872.657	1977.416
-7.560	22.551	1871.516	1974.557
-6.546	22.587	1870.542	1973.845
-5.531	22.629	1869.256	1972.888
-4.517	22.579	1867.406	1970.298
-3.502	22.594	1867.963	1970.969
-2.487	22.676	1866.165	1969.923
-1.473	22.651	1862.566	1965.760
-0.458	22.506	1844.042	1944.519
0.556	19.049	1990.328	2045.277
1.571	17.765	2193.335	2236.704
2.586	18.592	2233.219	2288.198
3.600	18.536	2235.159	2289.162
4.615	18.670	2233.776	2289.272
5.629	18.548	2232.905	2286.463
6.644	18.625	2230.426	2284.690
7.659	18.636	2227.061	2281.119
8.673	18.582	2226.606	2279.651
9.688	18.276	2235.478	2284.358
10.702	17.129	2314.579	2348.967
11.717	15.567	2378.937	2391.649
12.731	7.383	2360.729	2256.420
13.746	1.070	2341.883	2148.379
14.761	0.254	2338.225	2133.160
15.775	0.180	2336.874	2130.620
16.790	0.121	2335.572	2128.331
17.804	-0.072	2335.161	2124.966
18.819	0.051	2333.730	2125.153
19.834	0.037	2331.895	2123.024
20.848	-0.011	2331.417	2121.655
21.863	0.067	2328.488	2119.843
22.877	0.074	2326.301	2117.706
23.892	-0.010	2325.006	2115.075
24.907	0.052	2321.401	2112.424
25.921	-0.028	2320.788	2110.478
26.936	0.050	2317.639	2108.464
27.950	-0.044	2316.062	2105.451
28.965	-0.004	2313.923	2103.816
29.980	0.097	2311.889	2103.139
30.994	0.105	2310.440	2101.682
32.009	4.069	2321.838	2167.639
33.023	13.255	2348.945	2322.951
34.038	17.225	2354.336	2384.090
35.053	17.468	2352.611	2385.489
36.067	17.537	2350.003	2383.530
37.082	17.485	2347.959	2380.431
38.096	17.443	2346.892	2378.483
39.111	17.680	2343.793	2378.372
40.126	17.755	2341.244	2376.556
41.140	17.913	2340.844	2378.085
42.155	17.705	2339.147	2373.158
43.169	17.721	2336.615	2370.525
44.184	17.724	2333.996	2367.627
45.199	17.535	2332.618	2363.310
46.213	17.621	2331.803	2363.399
47.228	17.588	2330.663	2361.502
48.242	17.652	2328.222	2359.640
49.257	17.762	2326.891	2359.543
50.271	17.735	2323.639	2355.579
51.286	17.663	2321.658	2352.290
52.301	17.645	2319.451	2349.530
53.315	17.985	2321.811	2356.355
54.330	19.941	2325.921	2387.377
55.344	21.098	2325.764	2402.967
56.359	21.191	2322.068	2400.136
57.374	21.357	2321.839	2401.907
58.388	21.561	2319.134	2401.636
59.403	21.413	2315.436	2395.484
60.417	21.244	2312.379	2389.715
61.432	21.356	2311.524	2390.086
62.447	21.507	2310.960	2391.280
63.461	21.618	2309.319	2390.821
64.476	21.718	2307.023	2389.533
65.490	21.526	2304.782	2384.302
66.505	20.953	2301.545	2372.824
67.520	19.453	2296.493	2346.837
68.534	17.962	2289.384	2318.964
69.549	17.607	2285.574	2309.986
70.563	17.604	2283.706	2307.782
71.578	17.620	2282.338	2306.340
72.593	17.638	2280.551	2304.499
73.607	17.688	2278.639	2302.978
74.622	17.802	2276.174	2301.759
75.636	17.722	2273.169	2297.348
76.651	17.693	2271.814	2295.323
77.666	17.609	2269.837	2291.915
78.680	17.616	2267.935	2289.812
79.695	17.697	2264.706	2287.368
80.709	17.560	2264.641	2285.182
81.724	17.554	2262.898	2283.063
82.739	17.507	2259.620	2278.850
83.753	17.489	2258.073	2276.775
84.768	17.401	2256.604	2273.847
85.782	17.466	2255.046	2272.879
86.797	17.514	2252.527	2270.710
87.812	17.500	2251.029	2268.738
88.826	17.502	2249.207	2266.650
89.841	17.616	2246.365	2265.048
90.855	17.572	2243.460	2261.257
91.870	17.535	2243.183	2260.207
92.884	17.584	2240.762	2258.153
93.899	17.539	2239.784	2256.295
94.914	17.868	2241.830	2262.474
95.928	19.565	2247.221	2290.288
96.943	20.205	2244.751	2296.023
97.957	18.501	2236.219	2264.407
98.972	17.626	2231.672	2247.932
99.987	17.550	2228.469	2243.433
101.001	17.461	2226.026	2239.525
102.016	17.531	2224.109	2238.262
103.030	17.474	2222.162	2235.278
104.045	17.598	2220.321	2234.792
105.060	17.530	2217.927	2231.220
106.074	17.551	2215.909	2229.202
107.089	17.561	2214.745	2227.889
108.103	17.538	2213.598	2226.177
109.118	17.570	2211.105	2223.819
110.133	17.650	2210.014	2223.507
111.147	17.625	2208.353	2221.239
112.162	17.688	2206.501	2219.935
113.176	17.603	2203.959	2215.996
114.191	17.584	2203.378	2214.910
115.206	17.580	2201.245	2212.441
116.220	17.510	2199.697	2209.702
117.235	17.652	2196.552	2208.140
118.249	17.539	2195.430	2205.268
119.264	17.531	2194.221	2203.690
120.279	17.566	2192.289	2201.936
121.293	17.666	2189.940	2200.613
122.308	17.615	2188.767	2198.507
123.322	17.504	2188.180	2196.215
124.337	17.938	2187.619	2201.016
125.352	19.815	2193.188	2230.709
126.366	20.282	2191.172	2234.444
127.381	18.404	2182.195	2200.791
128.395	17.554	2178.800	2186.139
129.410	17.550	2176.402	2183.422
130.424	17.645	2174.677	2182.646
131.439	17.468	2173.751	2179.181
132.454	17.573	2171.565	2178.078
133.468	17.533	2169.726	2175.464
134.483	17.683	2167.251	2174.639
135.497	17.658	2166.159	2172.968
136.512	17.647	2164.141	2170.537
137.527	17.598	2162.086	2167.593
138.541	17.546	2160.970	2165.554
139.556	17.438	2160.393	2163.331
140.570	17.488	2158.754	2162.072
141.585	17.453	2156.892	2159.504
142.600	17.502	2154.664	2157.644
143.614	17.515	2153.067	2155.948
144.629	17.446	2151.764	2153.510
145.643	17.418	2149.392	2150.514
146.658	17.443	2148.484	2149.664
147.673	17.385	2146.805	2146.989
148.687	17.538	2145.366	2147.237
149.702	17.509	2144.126	2145.375
150.716	17.558	2142.654	2144.261
151.731	17.532	2141.738	2142.765
152.746	17.490	2140.783	2141.015
153.760	18.059	2142.377	2149.546
154.775	19.857	2147.732	2177.427
155.789	20.287	2144.970	2179.799
156.804	18.564	2136.207	2148.953
157.819	17.555	2131.671	2131.452
158.833	17.574	2128.827	2128.584
159.848	17.616	2126.303	2126.341
160.862	17.534	2125.549	2124.294
161.877	17.593	2123.992	2123.229
162.892	17.546	2122.966	2121.364
163.906	17.566	2121.860	2120.244
164.921	17.547	2120.162	2118.064
165.935	17.612	2118.023	2116.483
166.950	17.659	2116.156	2114.949
167.964	17.651	2114.242	2112.680
168.979	17.629	2112.774	2110.692
169.994	17.549	2111.559	2108.235
171.008	17.553	2108.741	2105.215
172.023	17.570	2107.750	2104.183
173.037	17.540	2106.235	2102.046
174.052	17.633	2104.767	2101.488
175.067	17.556	2102.947	2098.461
176.081	17.436	2102.522	2096.299
177.096	17.569	2100.666	2095.845
178.110	17.567	2098.687	2093.599
179.125	17.619	2097.159	2092.458
180.140	17.539	2096.318	2090.384
181.154	17.703	2094.764	2090.604
182.169	17.611	2093.429	2087.885
183.183	18.155	2094.194	2095.101
184.198	20.058	2098.882	2122.999
185.213	20.427	2097.318	2125.710
186.227	18.594	2089.661	2095.203
187.242	17.738	2086.961	2081.757
188.256	17.639	2084.326	2077.658
189.271	17.681	2082.422	2076.026
190.286	17.641	2080.756	2073.631
191.300	17.685	2078.560	2071.724
192.315	17.490	2077.474	2068.023
193.329	17.679	2075.788	2068.402
194.344	17.818	2074.478	2068.539
195.359	17.691	2073.797	2066.059
196.373	17.690	2071.320	2063.337
197.388	17.505	2069.469	2058.999
198.402	17.373	2067.608	2055.302
199.417	17.476	2065.318	2054.024
200.432	17.561	2063.896	2053.391
201.446	17.579	2062.610	2052.087
202.461	17.420	2061.042	2048.360
203.475	17.447	2059.714	2047.117
204.490	17.541	2057.480	2045.786
205.504	17.476	2055.028	2042.326
206.519	17.471	2053.125	2040.132
207.534	17.481	2051.609	2038.493
208.548	17.501	2050.587	2037.483
209.563	17.519	2049.973	2036.836
210.577	17.517	2047.804	2034.416
211.592	17.620	2047.491	2035.099
212.607	18.520	2050.388	2048.551
213.621	20.681	2055.328	2079.227
214.636	20.181	2049.718	2067.311
215.650	18.128	2042.545	2035.284
216.665	17.584	2039.731	2025.740
217.680	17.493	2038.509	2023.195
218.694	17.536	2036.978	2021.947
219.709	17.582	2034.903	2020.192
220.723	17.543	2033.817	2018.413
221.738	17.560	2032.319	2016.885
222.753	17.566	2030.474	2014.889
223.767	17.492	2029.009	2012.306
224.782	17.557	2027.196	2011.048
225.796	17.649	2025.517	2010.225
226.811	17.703	2023.012	2008.136
227.826	17.628	2022.438	2006.437
228.840	17.510	2021.127	2003.512
229.855	17.585	2019.442	2002.480
230.869	17.579	2017.996	2000.743
231.884	17.641	2016.319	1999.567
232.899	17.516	2015.033	1996.583
233.913	17.540	2014.153	1995.752
234.928	17.594	2012.119	1994.133
235.942	17.474	2011.690	1992.061
236.957	17.564	2010.166	1991.369
237.972	17.514	2007.740	1988.134
238.986	17.493	2007.645	1987.564
240.001	17.488	2005.728	1985.360
241.015	17.700	2003.522	1985.428
242.030	18.088	2005.479	1991.669
243.045	19.804	2009.055	2015.096
244.059	20.092	2005.555	2014.715
245.074	18.154	1998.863	1985.164
246.088	17.570	1996.311	1975.585
247.103	17.705	1993.315	1973.946
248.117	17.656	1992.620	1972.461
249.132	17.579	1990.861	1969.585
250.147	17.688	1988.739	1968.518
251.161	17.558	1987.635	1965.679
252.176	17.570	1986.778	1964.733
253.190	17.785	1984.796	1965.030
254.205	17.914	1982.382	1963.891
255.220	17.667	1981.833	1960.262
256.234	17.775	1980.679	1960.136
257.249	17.758	1979.072	1958.115
258.263	17.701	1978.550	1956.703
259.278	17.557	1977.874	1954.142
260.293	17.695	1975.068	1952.726
261.307	17.582	1972.834	1948.977
262.322	17.564	1971.244	1946.969
263.336	17.499	1969.416	1944.180
264.351	17.455	1968.413	1942.455
265.366	17.568	1966.849	1941.981
266.380	17.389	1966.854	1939.693
267.395	17.466	1965.045	1938.558
268.409	17.500	1962.686	1936.390
269.424	17.471	1961.442	1934.598
270.439	17.547	1960.756	1934.563
271.453	18.180	1961.747	1942.540
272.468	20.087	1964.889	1967.193
273.482	20.025	1962.453	1963.820
274.497	18.179	1955.237	1935.387
275.512	17.541	1951.647	1924.356
276.526	17.508	1949.037	1921.180
277.541	17.588	1947.332	1920.169
278.555	17.581	1945.853	1918.409
279.570	17.409	1944.228	1914.628
280.585	17.423	1942.579	1912.927
281.599	17.576	1941.463	1913.334
282.614	17.694	1940.060	1913.050
283.628	17.636	1939.664	1911.772
284.643	17.741	1938.101	1911.189
285.657	17.842	1936.670	1910.689
286.672	17.868	1936.002	1910.093
287.687	17.664	1934.530	1906.113
288.701	17.755	1933.130	1905.530
289.716	17.753	1931.431	1903.611
290.730	17.724	1929.835	1901.479
291.745	17.780	1928.425	1900.487
292.760	17.709	1927.535	1898.591
293.774	17.704	1926.482	1897.276
294.789	17.823	1924.966	1896.882
295.803	17.684	1922.268	1892.445
296.818	17.540	1921.716	1890.073
297.833	17.599	1920.900	1889.703
298.847	17.691	1918.921	1888.548
299.862	17.730	1917.523	1887.382
300.876	18.222	1917.979	1893.075
301.891	20.148	1921.620	1917.880
302.906	20.436	1920.261	1919.500
303.920	18.440	1914.539	1891.419
304.935	17.692	1911.084	1879.493
305.949	17.757	1907.325	1876.293
306.964	17.688	1905.879	1873.889
307.979	17.636	1905.697	1872.910
308.993	17.699	1904.781	1872.481
310.008	17.819	1901.932	1870.772
311.022	17.805	1901.177	1869.655
312.037	17.824	1899.511	1868.001
313.052	17.750	1897.214	1864.706
314.066	17.863	1895.473	1864.013
315.081	17.781	1894.745	1862.178
316.095	17.762	1894.106	1861.117
317.110	17.808	1893.028	1860.335
318.125	17.639	1891.413	1856.679
319.139	17.725	1889.491	1855.512
320.154	17.719	1888.016	1853.774
321.168	17.711	1886.688	1852.152
322.183	17.685	1884.336	1849.345
323.197	17.595	1883.773	1847.585
324.212	17.563	1880.725	1844.035
325.227	17.422	1880.241	1841.803
326.241	17.465	1878.823	1840.661
327.256	17.633	1876.559	1840.043
328.270	17.506	1876.455	1838.345
329.285	17.558	1876.484	1838.716
330.300	18.258	1878.403	1847.981
331.314	20.546	1881.828	1875.969
332.329	20.155	1878.127	1867.821
333.343	18.255	1871.536	1840.526
334.358	17.586	1868.446	1830.043
335.373	17.635	1866.116	1828.068
336.387	17.650	1863.285	1825.246
337.402	17.434	1863.452	1822.859
338.416	17.425	1862.129	1821.257
339.431	17.623	1860.207	1821.280
340.446	17.641	1858.693	1819.775
341.460	17.705	1858.366	1819.921
342.475	17.802	1856.097	1818.521
343.489	17.896	1854.497	1817.741
344.504	17.796	1854.715	1816.674
345.519	17.663	1852.743	1813.095
346.533	17.884	1850.626	1813.170
347.548	17.953	1850.093	1813.163
348.562	17.856	1849.238	1811.081
349.577	17.869	1847.954	1809.741
350.592	17.919	1846.335	1808.476
351.606	17.953	1844.892	1807.206
352.621	17.865	1843.245	1804.438
353.635	17.621	1841.868	1800.288
354.650	17.660	1840.019	1798.671
355.665	17.763	1837.797	1797.376
356.679	17.663	1837.050	1795.378
357.694	17.649	1835.478	1793.477
358.708	17.707	1835.018	1793.425
359.723	18.547	1837.757	1804.779
360.738	20.516	1840.104	1827.697
361.752	19.972	1835.391	1817.058
362.767	18.177	1829.803	1792.421
363.781	17.621	1827.398	1784.001
364.796	17.565	1826.471	1782.290
365.810	17.479	1825.594	1780.323
366.825	17.545	1824.337	1779.576
367.840	17.659	1823.059	1779.309
368.854	17.578	1822.256	1777.462
369.869	17.583	1819.406	1774.521
370.883	17.493	1818.325	1772.313
371.898	17.547	1817.091	1771.472
372.913	17.581	1815.459	1770.015
373.927	17.531	1814.859	1768.699
374.942	17.594	1813.593	1767.915
375.956	17.470	1813.156	1765.980
376.971	17.718	1809.870	1765.152
377.986	17.652	1807.873	1762.309
379.000	17.617	1807.472	1761.345
380.015	17.646	1806.330	1760.322
381.029	17.774	1803.871	1759.037
382.044	17.710	1802.064	1756.407
383.059	17.693	1800.225	1754.228
384.073	17.525	1800.395	1752.439
385.088	17.584	1798.922	1751.411
386.102	17.530	1797.325	1749.088
387.117	17.554	1795.261	1747.115
388.132	17.541	1795.545	1747.048
389.146	18.074	1798.843	1755.553
390.161	20.356	1801.316	1781.316
391.175	20.138	1794.890	1772.515
392.190	18.119	1788.121	1744.925
393.205	17.584	1784.869	1736.063
394.219	17.660	1783.655	1735.453
395.234	17.453	1783.103	1732.592
396.248	17.623	1781.240	1732.309
397.263	17.615	1778.421	1729.280
398.278	17.602	1777.369	1727.914
399.292	17.617	1776.659	1727.168
400.307	17.611	1776.338	1726.596
401.321	17.715	1774.969	1726.113
402.336	17.754	1773.372	1724.749
403.350	17.639	1772.154	1722.188
404.365	17.739	1770.731	1721.618
405.380	17.914	1769.989	1722.457
406.394	18.040	1769.246	1722.811
407.409	18.056	1767.482	1721.049
408.423	18.018	1765.385	1718.412
409.438	17.931	1763.963	1715.949
410.453	17.818	1763.638	1714.282
411.467	17.842	1762.654	1713.368
412.482	17.838	1760.553	1711.081
413.496	17.866	1759.246	1709.882
414.511	17.700	1757.328	1706.142
415.526	17.693	1755.146	1703.748
416.540	17.605	1753.301	1700.877
417.555	17.594	1752.872	1700.142
418.569	17.681	1752.914	1700.856
419.584	17.658	1753.215	1700.714
420.599	17.724	1752.720	1700.693
421.613	17.714	1751.339	1699.046
422.628	17.763	1749.963	1697.995
423.642	17.698	1748.125	1695.365
424.657	17.804	1746.935	1695.067
425.672	17.683	1744.951	1691.731
426.686	17.703	1743.865	1690.670
427.701	17.574	1741.951	1687.326
428.715	17.676	1740.814	1687.044
429.730	17.752	1739.415	1686.238
430.745	17.769	1738.688	1685.506
431.759	17.669	1737.967	1683.611
432.774	17.706	1737.391	1683.217
433.788	17.846	1736.384	1683.429
434.803	17.854	1736.760	1683.668
435.818	17.852	1736.122	1682.827
436.832	17.793	1735.389	1681.335
437.847	16.978	1728.267	1666.192
438.861	9.436	1707.900	1572.527
439.876	1.722	1693.387	1483.627
440.890	0.318	1689.137	1466.009
441.905	0.292	1688.070	1464.653
442.920	0.196	1687.080	1462.682
443.934	0.280	1685.510	1461.967
444.949	0.186	1684.553	1460.041
445.963	0.098	1684.211	1458.711
446.978	0.127	1683.111	1457.873
447.993	0.184	1681.505	1456.863
449.007	0.115	1679.340	1454.133
450.022	0.168	1678.032	1453.347
451.036	0.132	1677.546	1452.403
452.051	1.077	1680.294	1463.787
453.066	8.747	1697.516	1553.625
454.080	16.266	1708.935	1637.460
455.095	17.539	1710.840	1651.502
456.109	17.965	1710.976	1655.591
457.124	17.931	1709.977	1654.093
458.139	18.023	1708.793	1653.644
459.153	17.894	1707.415	1650.855
460.168	17.867	1705.541	1648.590
461.182	17.880	1703.764	1646.801
462.197	17.907	1702.210	1645.356
463.212	17.806	1700.175	1642.217
464.226	17.691	1699.817	1640.560
465.241	17.867	1698.370	1640.675
466.255	17.889	1698.059	1640.391
467.270	17.816	1696.879	1638.342
468.285	17.730	1695.493	1635.979
469.299	17.736	1693.227	1633.661
470.314	17.850	1691.900	1633.278
471.328	17.803	1690.430	1631.209
472.343	17.781	1690.246	1630.634
473.358	17.814	1688.839	1629.397
474.372	17.870	1687.386	1628.329
475.387	17.807	1686.343	1626.532
476.401	17.908	1684.257	1625.286
477.416	17.829	1683.602	1623.703
478.430	17.799	1683.643	1623.262
479.445	17.784	1681.235	1620.603
480.460	17.838	1680.038	1619.771
481.474	17.770	1678.659	1617.600
482.489	17.916	1677.221	1617.412
483.503	17.788	1676.309	1615.124
484.518	17.935	1674.317	1614.406
485.533	17.916	1673.339	1613.084
486.547	17.898	1672.308	1611.735
487.562	18.073	1671.252	1612.180
488.576	18.061	1669.589	1610.265
489.591	17.994	1668.202	1608.103
490.606	17.983	1666.649	1606.307
491.620	18.067	1664.627	1604.960
492.635	17.998	1664.152	1603.660
493.649	18.057	1662.581	1602.509
494.664	17.967	1661.239	1600.176
495.679	17.738	1659.276	1595.946
496.693	17.951	1657.908	1596.438
497.708	17.934	1657.380	1595.580
498.722	17.948	1656.115	1594.304
499.737	17.994	1655.710	1594.155
500.752	17.927	1652.874	1590.605
501.766	17.965	1651.615	1589.555
502.781	17.890	1649.925	1587.035
503.795	17.938	1649.365	1586.755
504.810	18.054	1648.275	1586.606
505.825	18.002	1647.901	1585.566
506.839	18.033	1646.132	1583.960
507.854	17.991	1645.146	1582.433
508.868	18.056	1642.723	1580.523
509.883	18.017	1642.789	1580.027
510.898	18.104	1641.097	1579.018
511.912	17.960	1639.765	1576.215
512.927	17.872	1637.991	1573.508
513.941	17.930	1636.962	1572.868
514.956	17.961	1635.389	1571.452
515.971	18.117	1634.421	1571.775
516.985	18.088	1633.516	1570.455
518.000	17.952	1632.679	1568.198
519.014	18.016	1631.819	1567.782
520.029	18.081	1630.338	1566.772
521.043	17.811	1629.284	1563.078
522.058	17.924	1626.924	1561.667
523.073	17.992	1626.951	1562.134
524.087	18.063	1625.618	1561.321
525.102	18.204	1623.400	1560.298
526.116	17.959	1622.709	1557.201
527.131	17.960	1621.715	1556.070
528.146	17.937	1621.543	1555.500
529.160	18.180	1619.215	1555.310
530.175	18.147	1619.172	1554.774
531.189	18.131	1617.503	1552.841
532.204	18.238	1615.711	1551.911
533.219	17.957	1614.913	1548.403
534.233	18.000	1614.165	1547.885
535.248	17.988	1613.609	1547.063
536.262	18.173	1611.989	1547.001
537.277	18.113	1611.032	1545.352
538.292	18.086	1609.281	1543.248
539.306	18.076	1607.643	1541.403
540.321	18.120	1606.641	1540.651
541.335	18.230	1605.067	1539.957
542.350	18.259	1603.153	1538.199
543.365	18.196	1602.023	1536.361
544.379	18.218	1601.390	1535.769
545.394	18.244	1600.260	1534.736
546.408	18.166	1597.545	1531.248
547.423	17.962	1596.955	1528.659
548.438	17.986	1595.554	1527.355
549.452	18.122	1594.811	1527.681
550.467	17.981	1594.029	1525.485
551.481	18.096	1592.443	1524.812
552.496	18.155	1591.729	1524.471
553.511	18.254	1590.179	1523.690
554.525	18.262	1589.113	1522.561
555.540	18.229	1588.575	1521.570
556.554	18.277	1587.074	1520.380
557.569	18.078	1585.576	1516.983
558.583	18.037	1584.845	1515.744
559.598	18.099	1583.937	1515.240
560.613	18.004	1582.842	1513.168
561.627	18.149	1581.200	1512.707
562.642	18.084	1580.124	1510.918
563.656	18.216	1578.391	1510.252
564.671	18.286	1577.072	1509.429
565.686	18.207	1576.384	1507.888
566.700	18.099	1574.798	1505.232
567.715	18.105	1573.171	1503.555
568.729	18.063	1572.080	1501.956
569.744	18.173	1570.657	1501.387
570.759	18.127	1569.639	1499.838
571.773	18.188	1568.104	1498.726
572.788	18.022	1567.500	1496.504
573.802	18.212	1565.680	1496.256
574.817	18.307	1563.984	1495.294
575.832	18.189	1563.803	1493.905
576.846	18.342	1561.836	1493.193
577.861	18.229	1560.906	1491.129
578.875	18.113	1560.670	1489.713
579.890	18.402	1558.269	1489.767
580.905	18.101	1558.558	1487.239
581.919	18.285	1558.048	1488.181
582.934	18.479	1556.639	1488.349
583.948	18.341	1555.309	1485.693
584.963	18.276	1553.314	1483.049
585.978	18.176	1552.317	1481.046
586.992	18.181	1552.395	1480.986
588.007	18.257	1551.240	1480.370
589.021	18.305	1550.221	1479.635
590.036	18.398	1548.437	1478.559
591.051	18.385	1547.476	1477.354
592.065	18.386	1545.926	1475.708
593.080	18.412	1544.257	1474.162
594.094	18.329	1543.110	1472.176
595.109	18.224	1541.435	1469.494
596.123	18.125	1539.319	1466.446
597.138	18.062	1538.728	1465.162
598.153	18.174	1538.237	1465.484
599.167	18.220	1536.498	1464.046
600.182	18.368	1534.713	1463.448
601.196	18.381	1534.989	1463.646
602.211	18.271	1533.352	1460.964
603.226	18.247	1532.796	1460.055
604.240	18.145	1531.879	1458.135
605.255	18.320	1529.839	1457.517
606.269	18.421	1528.574	1456.997
607.284	18.318	1527.396	1454.821
608.299	18.315	1525.526	1452.836
609.313	18.483	1524.095	1452.734
610.328	18.397	1523.550	1451.304
611.342	18.359	1522.717	1450.020
612.357	18.468	1521.834	1449.930
613.372	18.368	1520.742	1447.862
614.386	18.344	1519.780	1446.570
615.401	18.337	1519.540	1446.113
616.415	18.359	1518.767	1445.394
617.430	18.378	1517.465	1444.139
618.445	18.335	1515.858	1442.075
619.459	18.243	1514.723	1440.047
620.474	18.254	1513.109	1438.425
621.488	18.198	1512.632	1437.326
622.503	18.253	1511.589	1436.628
623.518	18.296	1509.663	1434.992
624.532	18.358	1508.573	1434.309
625.547	18.419	1507.455	1433.582
626.561	18.335	1507.035	1432.310
627.576	18.512	1506.013	1432.649
628.591	18.448	1504.105	1430.125
629.605	18.405	1503.240	1428.770
630.620	18.300	1502.168	1426.706
631.634	18.297	1501.111	1425.501
632.649	18.330	1500.192	1424.737
633.663	18.177	1499.091	1422.243
634.678	18.363	1497.635	1422.244
635.693	18.394	1496.600	1421.347
636.707	18.406	1495.052	1419.808
637.722	18.447	1494.167	1419.142
638.736	18.569	1492.857	1418.740
639.751	18.500	1491.494	1416.697
640.766	18.471	1489.866	1414.747
641.780	18.535	1488.406	1413.722
642.795	18.540	1487.992	1413.199
643.809	18.510	1487.505	1412.318
644.824	18.553	1486.481	1411.533
645.839	18.438	1485.828	1409.789
646.853	18.408	1484.435	1408.055
647.868	18.589	1482.377	1407.425
648.882	18.511	1481.928	1406.188
649.897	18.481	1481.012	1404.906
650.912	18.549	1478.757	1403.159
651.926	18.571	1477.945	1402.398
652.941	18.545	1477.150	1401.265
653.955	18.524	1474.658	1398.556
654.970	18.530	1473.547	1397.385
655.985	18.490	1472.512	1395.910
656.999	18.732	1471.223	1396.500
658.014	18.584	1470.163	1394.121
659.028	18.490	1469.876	1392.911
660.043	18.635	1468.779	1392.887
661.058	18.629	1467.412	1391.379
662.072	18.625	1466.421	1390.234
663.087	18.403	1465.771	1387.649
664.101	18.446	1464.111	1386.257
665.116	18.616	1462.802	1386.233
666.131	18.548	1461.493	1384.275
667.145	18.479	1461.082	1383.166
668.160	18.533	1459.662	1382.093
669.174	18.612	1457.994	1380.987
670.189	18.649	1457.070	1380.244
671.204	18.578	1456.542	1379.007
672.218	18.527	1455.900	1377.821
673.233	18.660	1454.249	1377.168
674.247	18.642	1453.362	1376.013
675.262	18.649	1452.180	1374.783
676.276	18.471	1451.936	1372.958
677.291	18.364	1451.296	1371.326
678.306	18.364	1449.991	1369.932
679.320	18.404	1448.188	1368.387
680.335	18.546	1447.127	1368.359
681.349	18.435	1447.176	1367.348
682.364	18.527	1445.670	1366.497
683.379	18.592	1443.767	1365.057
684.393	18.521	1442.993	1363.597
685.408	18.435	1441.579	1361.409
686.422	18.383	1441.451	1360.709
687.437	18.540	1440.644	1361.041
688.452	18.544	1439.693	1360.008
689.466	18.464	1437.720	1357.347
690.481	18.579	1435.972	1356.450
691.495	18.510	1435.535	1355.323
692.510	18.498	1434.928	1354.488
693.525	18.361	1433.394	1351.793
694.539	18.390	1432.447	1350.966
695.554	18.297	1431.962	1349.614
696.568	18.357	1430.849	1348.874
697.583	18.621	1429.516	1349.545
698.598	18.537	1428.784	1348.028
699.612	18.639	1427.139	1347.126
700.627	18.591	1425.923	1345.435
701.641	18.656	1424.416	1344.364
702.656	18.551	1424.598	1343.550
703.671	18.720	1424.060	1344.209
704.685	18.722	1423.242	1343.293
705.700	18.684	1421.963	1341.623
706.714	18.804	1419.288	1339.882
707.729	18.537	1418.599	1336.982
708.744	18.639	1417.087	1336.196
709.758	18.664	1416.605	1335.772
710.773	18.548	1415.853	1333.999
711.787	18.736	1414.147	1333.699
712.802	18.694	1412.466	1331.629
713.816	18.577	1412.230	1330.337
714.831	18.518	1411.376	1328.912
715.846	18.662	1410.385	1328.937
716.860	18.685	1409.132	1327.775
717.875	18.460	1408.619	1325.387
718.889	18.536	1407.311	1324.584
719.904	18.750	1405.630	1324.505
720.919	18.626	1404.533	1322.356
721.933	18.739	1403.924	1322.500
722.948	18.639	1403.112	1320.800
723.962	18.804	1401.143	1320.060
724.977	18.800	1400.084	1318.872
725.992	18.652	1399.664	1317.182
727.006	18.692	1398.219	1315.970
728.021	18.728	1396.838	1314.790
729.035	18.589	1396.032	1312.804
730.050	18.671	1394.870	1312.189
731.065	18.705	1393.294	1310.810
732.079	18.725	1392.123	1309.701
733.094	18.830	1390.959	1309.255
734.108	18.900	1389.449	1308.215
735.123	18.659	1388.875	1305.668
736.138	18.634	1387.895	1304.403
737.152	18.597	1386.792	1302.927
738.167	18.795	1385.607	1303.171
739.181	18.840	1384.253	1302.085
740.196	18.823	1384.140	1301.690
741.211	18.607	1383.924	1299.686
742.225	18.741	1382.510	1299.219
743.240	18.819	1380.328	1297.606
744.254	18.733	1378.915	1295.474
745.269	18.680	1378.506	1294.531
746.284	18.655	1377.930	1293.649
747.298	18.523	1377.282	1291.880
748.313	18.539	1375.791	1290.453
749.327	18.510	1374.919	1289.261
750.342	18.393	1373.947	1287.312
751.356	18.458	1372.705	1286.484
752.371	18.342	1371.474	1284.298
753.386	18.597	1370.646	1285.295
754.400	18.610	1369.558	1284.217
755.415	18.807	1368.349	1284.411
756.429	18.895	1367.166	1283.805
757.444	18.666	1366.195	1281.024
758.459	18.800	1365.399	1281.125
759.473	18.610	1364.865	1279.050
760.488	18.860	1362.894	1278.923
761.502	18.787	1362.393	1277.750
762.517	18.809	1361.270	1276.712
763.532	18.820	1359.468	1274.946
764.546	18.823	1358.519	1273.926
765.561	18.740	1358.641	1273.269
766.575	18.667	1357.195	1271.222
767.590	18.777	1355.613	1270.406
768.605	18.806	1354.649	1269.563
769.619	18.834	1353.588	1268.627
770.634	18.709	1352.761	1266.771
771.648	18.816	1351.873	1266.578
772.663	18.867	1351.237	1266.209
773.678	18.846	1350.100	1264.837
774.692	18.873	1349.403	1264.236
775.707	18.691	1349.213	1262.560
776.721	18.854	1348.095	1262.564
777.736	18.795	1346.692	1260.666
778.751	18.977	1345.729	1260.958
779.765	18.802	1344.260	1258.138
780.780	18.778	1344.154	1257.713
781.794	18.713	1343.458	1256.434
782.809	18.675	1341.940	1254.583
783.824	18.586	1340.739	1252.660
784.838	18.622	1338.926	1251.074
785.853	18.458	1338.020	1248.883
786.867	18.584	1337.364	1249.040
787.882	18.514	1337.397	1248.411
788.897	18.511	1336.863	1247.737
789.911	18.659	1335.667	1247.552
790.926	18.563	1334.316	1245.446
791.940	18.642	1332.222	1243.919
792.955	18.755	1331.058	1243.498
793.969	18.659	1330.563	1242.192
794.984	18.801	1329.602	1242.178
795.999	18.863	1328.072	1241.052
797.013	18.843	1326.888	1239.648
798.028	18.664	1325.500	1236.911
799.042	18.873	1325.032	1237.834
800.057	18.896	1324.027	1236.917
801.072	18.881	1322.471	1235.205
802.086	18.777	1321.314	1233.230
803.101	18.929	1320.590	1233.503
804.115	18.918	1319.492	1232.245
805.130	18.782	1318.826	1230.500
806.145	18.777	1318.041	1229.583
807.159	18.898	1316.265	1228.646
808.174	18.824	1314.813	1226.616
809.188	18.710	1313.679	1224.591
810.203	18.815	1312.235	1223.853
811.218	18.786	1311.045	1222.387
812.232	18.676	1310.064	1220.545
813.247	18.747	1309.074	1219.982
814.261	18.817	1308.550	1219.843
815.276	18.770	1307.427	1218.317
816.291	18.894	1306.372	1218.070
817.305	19.038	1305.328	1217.980
818.320	18.968	1303.711	1215.825
819.334	18.922	1302.498	1214.222
820.349	18.786	1301.087	1211.799
821.364	18.864	1299.722	1210.934
822.378	18.786	1298.967	1209.536
823.393	18.784	1297.130	1207.665
824.407	18.762	1296.496	1206.775
825.422	18.653	1296.028	1205.423
826.437	18.754	1294.467	1204.540
827.451	18.618	1293.170	1202.233
828.466	18.583	1291.317	1200.118
829.480	18.602	1289.724	1198.627
830.495	18.649	1287.861	1197.084
831.509	18.668	1287.535	1196.768
832.524	18.657	1286.680	1195.755
833.539	18.681	1285.968	1195.118
834.553	18.750	1284.573	1194.159
835.568	18.856	1283.258	1193.534
836.582	18.935	1282.020	1192.791
837.597	19.147	1280.099	1192.339
838.612	18.938	1279.617	1190.289
839.626	18.935	1278.678	1189.254
840.641	19.015	1277.857	1188.904
841.655	18.957	1277.198	1187.745
842.670	18.942	1276.061	1186.441
843.685	18.598	1275.260	1183.172
844.699	18.748	1274.265	1183.149
845.714	18.886	1272.776	1182.574
846.728	18.915	1272.024	1181.937
847.743	18.936	1270.761	1180.768
848.758	18.972	1269.613	1179.806
849.772	19.010	1267.667	1178.116
850.787	18.933	1266.269	1176.147
851.801	18.774	1265.712	1174.396
852.816	18.925	1263.848	1173.565
853.831	18.871	1262.582	1171.879
854.845	18.628	1261.694	1169.249
855.860	18.562	1260.083	1167.165
856.874	18.674	1258.581	1166.396
857.889	18.698	1257.004	1164.962
858.904	18.669	1255.874	1163.578
859.918	18.394	1254.442	1160.236
860.933	18.655	1252.872	1160.423
861.947	18.602	1252.132	1159.236
862.962	18.756	1250.895	1158.999
863.977	18.688	1250.135	1157.692
864.991	18.604	1249.857	1156.728
866.006	18.676	1249.159	1156.436
867.020	18.600	1248.385	1155.065
868.035	18.895	1247.067	1155.700
869.049	19.003	1245.801	1155.115
870.064	18.981	1245.149	1154.227
871.079	18.785	1244.613	1152.267
872.093	18.909	1243.852	1152.266
873.108	19.054	1242.735	1152.064
874.122	19.029	1241.202	1150.336
875.137	18.988	1241.110	1149.838
876.152	19.016	1239.681	1148.570
877.166	18.966	1238.523	1147.024
878.181	19.133	1237.261	1146.834
879.195	18.947	1237.015	1145.221
880.210	18.916	1235.850	1143.800
881.225	18.804	1235.340	1142.444
882.239	19.102	1233.850	1142.918
883.254	19.093	1232.728	1141.681
884.268	19.018	1231.870	1140.253
885.283	19.099	1230.321	1139.219
886.298	18.895	1229.209	1136.694
887.312	19.011	1228.397	1136.580
888.327	19.029	1227.470	1135.709
889.341	19.030	1225.516	1133.767
890.356	18.970	1225.033	1132.791
891.371	19.050	1224.950	1133.109
892.385	18.966	1223.932	1131.471
893.400	18.914	1222.782	1129.933
894.414	18.784	1221.960	1128.181
895.429	18.838	1220.612	1127.156
896.444	18.538	1218.954	1123.513
897.458	18.658	1217.312	1122.655
898.473	18.527	1217.023	1121.390
899.487	18.690	1216.717	1122.046
900.502	18.928	1215.399	1122.258
901.517	18.870	1214.652	1121.056
902.531	18.801	1213.988	1119.853
903.546	18.936	1213.188	1119.870
904.560	18.877	1212.045	1118.290
905.575	19.021	1211.226	1118.343
906.589	18.988	1210.392	1117.227
907.604	18.982	1209.815	1116.516
