DTS Sentinel unit serial number:	SN409020Multiplexer serial number:	ORYXHardware model number:	OX4-SRSoftware version number:	ORYX F/W v3.00 Oryx Data Collector v3.7.2.0data status	okinstallation	HaddamTimeLapsedifferential loss correction	single-endedforward channel	channel 3reverse channel	N/Adate	2011/06/22time	08:51:17forward acquisition time	30.00reverse acquisition time	0.00gamma	498.7831k internal	0.1793k external	0.1793temperature offset calibration	1.0074default loss term (dB/km)	0.3790temperature slope calibration	1.3530multiplexer offset coefficient	1.0000multiplexer slope coefficient	1.0000fibre end	0.00T internal ref (°C)	27.03T ext. ref 1 (°C)	25.02T ext. ref 2 (°C)	0.17length (m)	temperature (°C)	Stokes	anti-Stokes-747.200	-200.000	-0.018	0.307
-746.185	35.899	0.269	0.307
-745.171	-56.838	0.206	0.118
-744.156	256.358	0.362	0.809
-743.142	-200.000	0.048	0.446
-742.127	49.264	0.672	0.820
-741.112	267.000	-0.094	0.213
-740.098	-65.163	0.098	0.051
-739.083	-200.000	0.008	0.101
-738.069	-61.753	-0.119	-0.065
-737.054	85.306	-0.135	-0.192
-736.039	-148.910	-0.635	-0.066
-735.025	25.296	-0.093	0.100
-734.010	538.426	0.139	0.432
-732.996	20.993	-0.256	0.269
-731.981	115.782	-0.270	-0.429
-730.966	-76.469	-0.471	0.214
-729.952	-103.191	-0.183	0.056
-728.937	-112.814	-0.396	0.101
-727.923	214.887	0.139	-0.287
-726.908	800.000	-0.051	-0.232
-725.894	800.000	-0.077	0.323
-724.879	-110.321	-0.360	0.096
-723.864	-200.000	-0.258	0.001
-722.850	122.055	-0.113	-0.183
-721.835	-200.000	-0.088	-0.505
-720.821	800.000	-0.016	0.075
-719.806	-1.911	0.255	-0.232
-718.791	-200.000	-0.032	0.590
-717.777	-75.534	0.270	-0.124
-716.762	487.112	-0.045	0.132
-715.748	-13.733	-0.173	-0.145
-714.733	-103.239	0.226	-0.069
-713.718	-27.045	-0.255	0.193
-712.704	26.072	0.215	0.233
-711.689	800.000	0.037	0.194
-710.675	-200.000	0.005	-0.129
-709.660	-200.000	0.005	0.050
-708.645	168.170	0.202	-0.373
-707.631	-150.626	0.355	-0.035
-706.616	-139.823	0.255	0.035
-705.602	322.550	-0.129	0.320
-704.587	-143.413	0.193	-0.024
-703.572	-0.880	0.279	-0.255
-702.558	-91.295	-0.305	0.112
-701.543	753.192	-0.118	-0.417
-700.529	-102.781	-0.106	-0.032
-699.514	-46.001	0.063	0.040
-698.499	23.737	-0.056	0.060
-697.485	200.444	0.205	-0.408
-696.470	87.511	-0.340	-0.488
-695.456	-59.484	-0.431	0.239
-694.441	222.840	-0.032	-0.067
-693.426	-96.813	-0.401	0.136
-692.412	-90.569	-0.351	-0.131
-691.397	-34.181	0.265	-0.188
-690.383	-59.022	-0.335	-0.186
-689.368	-40.931	0.037	-0.025
-688.354	-90.343	0.262	-0.098
-687.339	800.000	0.062	-0.263
-686.324	-131.970	-0.280	-0.047
-685.310	115.099	0.138	0.218
-684.295	89.787	0.204	0.295
-683.281	-0.959	-0.143	0.130
-682.266	-11.922	-0.299	0.254
-681.251	-19.074	0.500	0.402
-680.237	-136.622	-0.354	0.052
-679.222	20.163	0.181	-0.189
-678.208	9.897	-0.449	-0.440
-677.193	-87.937	-0.430	0.166
-676.178	-200.000	-0.006	-0.547
-675.164	-200.000	-0.028	-0.209
-674.149	-94.344	-0.327	-0.115
-673.135	-163.193	0.374	0.023
-672.120	-109.324	0.312	0.085
-671.105	-184.143	0.408	0.009
-670.091	9.546	0.377	-0.369
-669.076	-99.248	-0.198	-0.064
-668.062	-30.169	-0.115	0.085
-667.047	-200.000	0.012	-0.272
-666.032	-40.117	0.298	0.200
-665.018	-133.424	-0.157	-0.025
-664.003	38.753	-0.095	0.110
-662.989	-55.558	-0.490	0.283
-661.974	-86.907	0.466	-0.183
-660.959	-149.935	0.547	0.055
-659.945	323.033	-0.141	0.349
-658.930	138.743	0.144	0.244
-657.916	800.000	0.151	0.723
-656.901	349.014	-0.317	-0.812
-655.886	-200.000	0.086	-0.493
-654.872	433.110	-0.060	0.169
-653.857	1.336	-0.583	0.541
-652.843	-44.235	0.274	0.177
-651.828	-47.080	0.410	0.258
-650.814	26.127	0.233	-0.251
-649.799	800.000	-0.143	-0.519
-648.784	-98.227	-0.243	-0.080
-647.770	-193.818	0.208	0.002
-646.755	-103.906	0.206	-0.062
-645.741	-110.799	0.358	-0.095
-644.726	-60.524	0.314	0.172
-643.711	-152.224	-0.163	-0.015
-642.697	-90.557	-0.405	-0.151
-641.682	387.402	-0.058	0.155
-640.668	-196.534	0.353	0.003
-639.653	-80.528	-0.116	0.050
-638.638	115.508	-0.026	-0.041
-637.624	-144.471	0.222	-0.026
-636.609	-120.206	0.301	0.066
-635.595	-127.435	-0.063	0.012
-634.580	428.040	0.137	0.383
-633.565	-146.457	0.822	0.091
-632.551	-87.589	0.542	-0.210
-631.536	-49.082	-0.173	-0.106
-630.522	125.960	-0.105	0.172
-629.507	800.000	0.039	0.150
-628.492	237.128	-0.097	-0.208
-627.478	-200.000	0.014	-0.173
-626.463	-58.357	-0.253	0.141
-625.449	4.360	-0.301	-0.285
-624.434	514.285	-0.132	-0.400
-623.419	128.008	-0.203	-0.334
-622.405	171.961	-0.101	-0.188
-621.390	-76.291	0.508	0.230
-620.376	-200.000	-0.016	0.092
-619.361	-78.876	0.298	0.131
-618.346	-200.000	-0.029	-0.365
-617.332	-99.782	-0.385	0.124
-616.317	-83.785	-0.145	-0.059
-615.303	-105.055	-0.298	0.087
-614.288	-24.468	-0.866	-0.665
-613.273	592.113	0.125	0.401
-612.259	-147.664	-0.192	0.021
-611.244	-105.792	-0.192	-0.056
-610.230	389.259	-0.263	-0.705
-609.215	-200.000	-0.204	0.000
-608.201	10.707	0.107	-0.106
-607.186	2.670	0.385	-0.360
-606.171	80.431	0.050	0.070
-605.157	60.830	0.240	-0.307
-604.142	107.261	0.276	0.423
-603.128	800.000	0.070	-0.386
-602.113	336.610	0.217	-0.545
-601.098	-89.676	0.569	0.214
-600.084	-66.485	-0.087	0.044
-599.069	87.661	0.038	0.054
-598.055	-93.433	-0.267	-0.095
-597.040	-126.668	-0.497	-0.094
-596.025	69.905	-0.137	-0.183
-595.011	-33.858	-0.551	0.391
-593.996	-36.272	-0.220	0.153
-592.982	98.478	-0.023	-0.034
-591.967	-129.596	0.208	0.037
-590.952	-43.636	-0.173	0.112
-589.938	-119.127	-0.267	-0.060
-588.923	296.665	0.141	0.334
-587.909	-157.919	0.530	-0.040
-586.894	-200.000	0.035	-0.229
-585.879	-77.739	0.585	-0.260
-584.865	-200.000	0.037	0.322
-583.850	800.000	-0.079	-0.327
-582.836	-158.448	0.200	-0.015
-581.821	800.000	-0.005	-0.018
-580.806	201.327	-0.196	-0.390
-579.792	-135.632	-0.363	-0.055
-578.777	-200.000	0.022	0.388
-577.763	-48.688	-0.279	-0.172
-576.748	63.190	-0.387	-0.500
-575.733	698.268	-0.165	-0.561
-574.719	-167.061	-0.212	0.011
-573.704	-84.273	-0.248	0.101
-572.690	-160.709	0.231	0.016
-571.675	-127.047	0.542	0.102
-570.661	-48.460	0.053	-0.033
-569.646	-200.000	-0.016	0.259
-568.631	177.899	0.073	0.137
-567.617	-200.000	0.014	0.095
-566.602	-200.000	-0.024	-0.225
-565.588	141.860	-0.199	-0.340
-564.573	-51.313	-0.211	0.127
-563.558	-79.507	-0.446	-0.193
-562.544	-200.000	-0.004	-0.671
-561.529	243.661	-0.117	0.254
-560.515	356.793	-0.169	-0.437
-559.500	800.000	0.143	0.578
-558.485	-200.000	0.001	0.260
-557.471	145.879	0.199	-0.345
-556.456	734.015	0.170	-0.589
-555.442	-200.000	0.028	0.426
-554.427	-115.416	-0.242	-0.058
-553.412	-102.987	-0.204	0.062
-552.398	-18.290	-0.428	0.344
-551.383	-29.976	-0.261	-0.191
-550.369	-200.000	-0.031	-0.388
-549.354	9.709	-0.332	0.324
-548.339	185.125	0.025	-0.049
-547.325	173.727	-0.084	0.157
-546.310	-104.774	-0.052	0.015
-545.296	-11.540	-0.059	-0.050
-544.281	-81.278	-0.144	0.061
-543.266	-165.792	-0.144	-0.008
-542.252	78.296	-0.164	-0.225
-541.237	120.383	0.161	-0.259
-540.223	-200.000	0.008	0.243
-539.208	-200.000	0.011	0.291
-538.193	-200.000	0.016	-0.281
-537.179	-79.626	-0.237	-0.103
-536.164	-110.260	-0.296	-0.079
-535.150	-59.582	-0.171	-0.094
-534.135	-28.677	0.226	-0.167
-533.121	800.000	0.126	-0.455
-532.106	21.326	-0.299	-0.313
-531.091	-85.942	0.038	-0.015
-530.077	203.494	-0.271	-0.541
-529.062	-113.534	-0.077	-0.019
-528.048	-99.518	0.212	0.068
-527.033	217.570	0.084	-0.173
-526.018	800.000	0.063	-0.305
-525.004	40.090	0.334	-0.387
-523.989	-200.000	-0.012	0.077
-522.975	-62.736	0.317	-0.168
-521.960	-36.983	0.232	0.160
-520.945	-200.000	0.015	0.379
-519.931	-200.000	-0.052	-0.305
-518.916	-92.961	0.305	-0.109
-517.902	-137.327	-0.198	-0.029
-516.887	-28.377	0.506	-0.374
-515.872	587.821	-0.098	-0.313
-514.858	-109.581	-0.364	0.098
-513.843	37.702	-0.196	-0.224
-512.829	-174.541	0.306	0.011
-511.814	-62.258	-0.265	-0.142
-510.799	-63.658	-0.271	-0.142
-509.785	50.834	0.207	-0.252
-508.770	32.982	-0.280	0.312
-507.756	-134.331	-0.395	-0.062
-506.741	-132.603	0.259	-0.042
-505.726	571.192	0.204	-0.642
-504.712	-123.871	0.255	-0.051
-503.697	-200.000	-0.020	-0.242
-502.683	175.572	0.134	-0.250
-501.668	-52.300	0.222	-0.132
-500.653	-3.034	0.404	-0.362
-499.639	485.366	-0.107	-0.313
-498.624	566.185	-0.058	0.182
-497.610	-125.463	-0.323	0.063
-496.595	-121.468	-0.137	0.029
-495.581	-12.427	-0.073	-0.062
-494.566	-30.077	0.771	0.562
-493.551	-118.837	-0.558	-0.125
-492.537	-108.841	0.057	0.016
-491.522	-200.000	-0.051	0.687
-490.508	375.279	-0.076	0.200
-489.493	-200.000	-0.046	-0.689
-488.478	125.402	-0.168	-0.273
-487.464	-74.819	0.262	0.120
-486.449	-100.630	0.110	0.035
-485.435	-52.177	0.160	-0.095
-484.420	800.000	-0.091	0.334
-483.405	38.690	0.172	0.198
-482.391	-85.126	-0.524	0.209
-481.376	53.011	0.477	-0.587
-480.362	-107.302	-0.507	0.142
-479.347	-200.000	0.015	0.235
-478.332	-118.980	-0.054	-0.012
-477.318	788.331	0.056	-0.198
-476.303	-14.605	-0.092	0.076
-475.289	-96.456	-0.028	-0.009
-474.274	286.082	-0.098	0.228
-473.259	335.969	0.133	-0.332
-472.245	-53.653	0.731	0.427
-471.230	-200.000	-0.021	-0.586
-470.216	-200.000	0.002	-0.218
-469.201	73.009	0.217	0.292
-468.186	10.234	0.240	-0.234
-467.172	-80.713	-0.114	-0.049
-466.157	800.000	0.023	0.097
-465.143	79.935	-0.217	0.300
-464.128	-200.000	-0.033	0.641
-463.113	368.025	0.091	0.237
-462.099	-173.478	-0.233	-0.009
-461.084	-59.679	-0.162	-0.089
-460.070	-127.316	-0.543	-0.101
-459.055	-200.000	0.037	0.310
-458.040	-146.581	-0.192	0.021
-457.026	-200.000	-0.023	-0.246
-456.011	18.984	0.374	-0.385
-454.997	131.424	-0.232	-0.384
-453.982	-109.508	0.382	-0.103
-452.968	-200.000	0.071	0.528
-451.953	-62.539	-0.155	-0.082
-450.938	-200.000	-0.019	-0.159
-449.924	-77.824	-0.149	0.066
-448.909	-125.178	0.053	-0.010
-447.895	565.694	-0.138	-0.430
-446.880	-90.009	0.104	-0.039
-445.865	-167.075	-0.180	0.009
-444.851	-200.000	0.017	0.374
-443.836	-157.218	0.098	-0.008
-442.822	-82.979	-0.812	0.334
-441.807	141.215	-0.093	0.158
-440.792	-200.000	0.045	0.376
-439.778	-200.000	-0.014	-0.142
-438.763	-80.883	-0.510	0.216
-437.749	-117.157	0.239	0.055
-436.734	-200.000	-0.012	-0.197
-435.719	-54.686	-0.445	-0.257
-434.705	10.874	0.549	-0.537
-433.690	-17.828	0.539	-0.433
-432.676	109.400	-0.094	-0.145
-431.661	800.000	0.075	0.359
-430.646	-170.457	-0.230	0.010
-429.632	-125.022	0.531	-0.104
-428.617	800.000	-0.085	0.464
-427.603	409.269	-0.138	-0.376
-426.588	-200.000	0.006	-0.120
-425.573	43.181	-0.250	0.292
-424.559	-6.862	-0.058	-0.051
-423.544	781.376	-0.098	0.345
-422.530	-95.114	-0.088	0.030
-421.515	-92.478	-0.229	-0.082
-420.500	-200.000	-0.004	0.090
-419.486	361.931	-0.189	-0.488
-418.471	13.075	0.067	-0.066
-417.457	800.000	-0.057	0.219
-416.442	-143.074	-0.262	0.032
-415.428	-200.000	-0.002	-0.307
-414.413	397.365	0.122	0.329
-413.398	93.690	-0.067	-0.097
-412.384	-70.954	-0.373	0.179
-411.369	-133.481	-0.067	0.011
-410.355	800.000	0.073	-0.372
-409.340	222.221	0.077	0.159
-408.325	-200.000	0.013	0.260
-407.311	-200.000	0.055	0.432
-406.296	93.110	0.143	-0.207
-405.282	37.520	-0.160	-0.182
-404.267	-124.177	0.354	-0.070
-403.252	-200.000	-0.005	-0.247
-402.238	-69.101	0.478	-0.235
-401.223	-200.000	0.036	-0.638
-400.209	142.711	0.319	-0.544
-399.194	503.362	-0.152	0.451
-398.179	73.162	0.186	0.249
-397.165	86.562	-0.176	-0.249
-396.150	-200.000	0.040	0.280
-395.136	265.300	0.070	-0.156
-394.121	207.620	-0.132	0.264
-393.106	117.328	0.187	-0.295
-392.092	52.665	-0.262	0.320
-391.077	105.599	-0.178	0.269
-390.063	-10.276	0.380	0.322
-389.048	-7.402	-0.113	0.098
-388.033	54.965	-0.221	0.274
-387.019	20.583	0.189	0.196
-386.004	-132.312	0.131	-0.022
-384.990	371.957	-0.117	-0.305
-383.975	164.147	-0.102	0.185
-382.960	111.235	-0.197	-0.305
-381.946	-200.000	-0.027	0.163
-380.931	32.759	-0.208	-0.231
-379.917	0.077	-0.345	-0.314
-378.902	-139.553	-0.344	-0.046
-377.888	-92.434	-0.220	0.079
-376.873	-11.200	0.278	-0.234
-375.858	-133.736	-0.229	-0.036
-374.844	-148.297	-0.027	-0.003
-373.829	800.000	0.049	0.258
-372.815	415.205	-0.054	0.147
-371.800	-181.787	0.319	-0.008
-370.785	624.097	0.080	0.260
-369.771	143.177	0.248	-0.422
-368.756	491.614	0.159	-0.466
-367.742	255.131	0.016	-0.035
-366.727	-138.445	-0.268	-0.037
-365.712	5.154	0.457	0.430
-364.698	800.000	0.118	0.533
-363.683	-200.000	-0.034	0.334
-362.669	163.341	0.239	-0.430
-361.654	800.000	-0.053	-0.217
-360.639	-44.608	-0.182	-0.116
-359.625	-200.000	0.044	-0.352
-358.610	73.648	-0.103	0.139
-357.596	-106.206	-0.219	0.062
-356.581	-44.794	-0.296	-0.188
-355.566	6.314	0.512	0.485
-354.552	800.000	0.048	0.265
-353.537	-141.696	0.462	0.059
-352.523	159.623	-0.112	0.200
-351.508	133.911	0.161	0.267
-350.493	-200.000	-0.039	0.441
-349.479	31.374	-0.257	0.282
-348.464	800.000	-0.044	0.160
-347.450	6.251	-0.172	0.162
-346.435	-44.957	0.387	0.246
-345.420	-200.000	-0.012	-0.284
-344.406	-200.000	0.016	-0.206
-343.391	-113.508	0.415	-0.103
-342.377	800.000	-0.221	0.893
-341.362	-67.232	-0.420	-0.210
-340.348	-200.000	0.002	0.240
-339.333	-17.555	0.124	0.099
-338.318	-96.190	-0.349	0.117
-337.304	-26.522	0.161	0.120
-336.289	-200.000	0.012	0.404
-335.275	279.467	0.030	0.068
-334.260	-12.174	-0.450	0.375
-333.245	-200.000	0.022	0.702
-332.231	624.667	-0.091	0.294
-331.216	-200.000	-0.054	0.625
-330.202	-200.000	0.001	0.166
-329.187	-45.339	-0.481	0.304
-328.172	800.000	0.059	-0.256
-327.158	-200.000	0.042	-0.253
-326.143	-40.401	-0.277	-0.183
-325.129	-200.000	0.014	0.173
-324.114	-186.889	0.362	0.006
-323.099	-171.452	0.628	0.026
-322.085	-26.669	-0.353	0.263
-321.070	-74.739	-0.185	-0.084
-320.056	-77.997	0.498	-0.218
-319.041	800.000	0.077	-0.276
-318.026	-200.000	0.007	0.312
-317.012	-66.299	-0.075	0.038
-315.997	140.608	0.199	0.336
-314.983	-42.618	0.268	0.174
-313.968	45.572	-0.131	-0.154
-312.953	-127.907	-0.326	-0.059
-311.939	-102.115	0.193	-0.059
-310.924	-57.382	0.256	-0.143
-309.910	30.022	-0.320	-0.348
-308.895	55.814	-0.220	0.272
-307.880	-145.581	-0.398	0.045
-306.866	-114.853	-0.693	0.167
-305.851	306.886	-0.190	-0.453
-304.837	-127.251	-0.314	-0.058
-303.822	-200.000	0.004	0.452
-302.807	-102.423	0.310	0.094
-301.793	800.000	0.085	-0.317
-300.778	-105.273	0.278	0.080
-299.764	-75.161	0.410	-0.186
-298.749	633.481	-0.154	0.500
-297.735	-37.759	0.289	0.196
-296.720	-146.635	-0.287	-0.031
-295.705	-67.348	-0.024	0.012
-294.691	-17.553	0.098	-0.078
-293.676	15.767	-0.193	0.194
-292.662	-122.174	0.556	-0.115
-291.647	181.923	0.187	-0.352
-290.632	-84.552	0.545	-0.218
-289.618	-61.775	0.320	0.170
-288.603	-194.869	0.213	0.002
-287.589	624.292	0.095	0.308
-286.574	135.956	0.076	0.127
-285.559	90.987	0.291	0.417
-284.545	132.957	-0.090	0.148
-283.530	-115.050	-0.120	0.029
-282.516	-200.000	0.042	0.266
-281.501	-11.949	0.485	-0.404
-280.486	120.225	0.151	-0.239
-279.472	-27.292	-0.331	0.245
-278.457	-94.120	-0.679	0.236
-277.443	15.760	-0.171	0.171
-276.428	-14.920	-0.081	-0.066
-275.413	-200.000	0.093	0.876
-274.399	800.000	0.077	0.334
-273.384	212.834	-0.029	0.058
-272.370	-32.206	-0.171	-0.121
-271.355	14.037	0.185	0.183
-270.340	800.000	-0.134	-0.504
-269.326	-142.960	-0.463	0.057
-268.311	-164.377	-0.217	-0.012
-267.297	-153.692	0.120	-0.010
-266.282	-25.818	-0.272	0.204
-265.267	426.587	-0.058	0.159
-264.253	-200.000	-0.005	-0.217
-263.238	-67.772	0.137	-0.068
-262.224	800.000	0.185	-0.680
-261.209	254.999	0.169	-0.371
-260.195	546.266	-0.162	-0.496
-259.180	25.407	0.284	-0.301
-258.165	15.085	0.135	-0.135
-257.151	-122.781	0.157	-0.032
-256.136	590.221	0.083	0.262
-255.122	105.833	0.156	-0.235
-254.107	-35.395	-0.082	-0.057
-253.092	-76.565	0.180	-0.080
-252.078	412.989	0.249	0.678
-251.063	-75.631	-0.245	0.110
-250.049	37.686	-0.389	-0.439
-249.034	-200.000	-0.054	0.322
-248.019	-62.136	0.333	-0.176
-247.005	-118.357	-0.336	-0.075
-245.990	-59.372	0.418	-0.228
-244.976	-183.599	-0.240	0.005
-243.961	61.041	-0.104	-0.131
-242.946	22.170	0.274	0.285
-241.932	800.000	-0.048	0.188
-240.917	-137.011	-0.287	-0.041
-239.903	-28.685	0.302	0.221
-238.888	-200.000	0.063	0.493
-237.873	-48.345	-0.395	0.241
-236.859	800.000	0.070	0.315
-235.844	-182.324	0.246	-0.006
-234.830	30.643	0.328	-0.357
-233.815	-186.668	0.341	0.006
-232.800	-104.533	-0.211	0.062
-231.786	-128.071	0.078	0.014
-230.771	-15.082	0.239	0.195
-229.757	800.000	-0.183	0.849
-228.742	-198.534	0.230	-0.002
-227.727	-200.000	-0.026	0.165
-226.713	226.541	0.102	0.211
-225.698	209.820	0.236	-0.471
-224.684	-96.435	0.273	0.091
-223.669	-31.319	0.063	-0.045
-222.655	800.000	-0.059	0.293
-221.640	106.325	-0.100	0.151
-220.625	-131.123	0.192	-0.032
-219.611	-200.000	0.032	0.326
-218.596	176.012	-0.233	-0.431
-217.582	-34.465	-0.131	-0.091
-216.567	16.408	0.157	0.157
-215.552	-71.634	0.126	-0.060
-214.538	-200.000	0.069	0.442
-213.523	-23.838	-0.318	0.241
-212.509	-110.919	-0.196	0.051
-211.494	-11.534	-0.060	0.050
-210.479	-15.919	0.338	0.273
-209.465	-182.447	-0.284	-0.007
-208.450	-4.029	-0.271	-0.238
-207.436	-200.000	-0.044	0.502
-206.421	-59.906	0.214	0.116
-205.406	-88.390	0.171	0.064
-204.392	-167.161	-0.354	0.018
-203.377	-43.938	0.276	0.176
-202.363	-94.307	0.216	0.074
-201.348	386.853	-0.213	0.561
-200.333	-200.000	-0.010	0.114
-199.319	-200.000	-0.024	0.156
-198.304	-142.425	-0.606	-0.075
-197.290	423.548	-0.072	0.198
-196.275	-106.660	0.394	-0.110
-195.260	-74.003	0.197	0.090
-194.246	-146.477	-0.148	0.016
-193.231	84.569	0.037	0.052
-192.217	191.119	0.133	-0.255
-191.202	-23.483	0.122	-0.093
-190.187	-75.989	0.417	-0.186
-189.173	800.000	0.041	-0.188
-188.158	-133.697	0.362	0.057
-187.144	-6.983	0.110	0.095
-186.129	-151.651	-0.272	-0.025
-185.114	-145.826	0.188	0.021
-184.100	-127.266	0.545	0.100
-183.085	-132.818	-0.085	-0.014
-182.071	-19.414	0.057	-0.045
-181.056	-200.000	0.052	0.484
-180.042	-95.643	-0.498	0.168
-179.027	315.020	0.108	-0.259
-178.012	24.517	-0.389	-0.409
-176.998	643.572	-0.152	-0.495
-175.983	-200.000	0.005	-0.255
-174.969	-200.000	-0.005	-0.078
-173.954	47.886	0.078	-0.092
-172.939	-200.000	0.017	0.130
-171.925	274.752	0.131	-0.297
-170.910	-64.832	-0.124	0.063
-169.896	-96.370	-0.382	0.127
-168.881	-146.054	-0.356	-0.039
-167.866	-18.758	0.359	0.283
-166.852	245.989	0.113	-0.242
-165.837	44.387	-0.129	-0.150
-164.823	1.317	0.140	0.127
-163.808	199.138	0.126	-0.245
-162.793	375.619	0.076	0.198
-161.779	-98.270	0.082	0.027
-160.764	-26.399	0.360	-0.267
-159.750	257.863	0.043	-0.095
-158.735	21.460	0.350	-0.361
-157.720	138.628	0.138	-0.230
-156.706	-200.000	-0.069	0.484
-155.691	30.066	-0.449	0.485
-154.677	116.675	0.140	-0.218
-153.662	-19.647	0.395	-0.309
-152.647	-200.000	-0.041	0.440
-151.633	-40.308	0.509	0.335
-150.618	-2.532	-0.153	-0.136
-149.604	800.000	-0.146	0.687
-148.589	-40.058	-0.289	0.190
-147.574	-125.996	-0.496	0.094
-146.560	149.998	0.129	-0.222
-145.545	-96.882	0.254	0.084
-144.531	-200.000	0.052	0.584
-143.516	102.964	0.251	0.373
-142.502	-101.833	-0.243	-0.074
-141.487	-118.850	0.267	0.059
-140.472	800.000	-0.067	0.363
-139.458	-126.880	0.290	0.054
-138.443	-165.651	0.157	0.008
-137.429	-200.000	-0.044	-0.323
-136.414	-3.392	0.249	0.219
-135.399	-200.000	0.045	0.444
-134.385	274.491	0.023	-0.052
-133.370	-74.275	0.149	0.068
-132.356	-95.009	-0.301	0.102
-131.341	-198.405	-0.400	0.003
-130.326	-200.000	0.002	-0.041
-129.312	254.359	-0.185	-0.402
-128.297	169.724	-0.291	0.529
-127.283	-11.325	0.182	0.152
-126.268	800.000	-0.048	0.266
-125.253	-125.604	0.311	0.059
-124.239	800.000	0.175	-0.624
-123.224	-160.424	0.204	0.014
-122.210	-200.000	0.003	0.258
-121.195	333.787	-0.117	-0.289
-120.180	69.343	-0.153	0.199
-119.166	-73.595	-0.171	-0.078
-118.151	63.660	-0.273	-0.348
-117.137	-36.916	0.420	-0.284
-116.122	800.000	-0.023	0.114
-115.107	-200.000	-0.002	0.249
-114.093	800.000	-0.021	-0.105
-113.078	-52.117	0.174	0.102
-112.064	-137.250	-0.219	-0.031
-111.049	369.958	0.136	-0.350
-110.034	694.918	0.068	-0.227
-109.020	275.257	0.146	-0.328
-108.005	-89.524	0.372	-0.137
-106.991	131.199	-0.174	-0.283
-105.976	-27.336	-0.189	-0.139
-104.962	-59.979	-0.192	-0.103
-103.947	569.507	-0.101	-0.314
-102.932	186.005	-0.122	0.230
-101.918	-127.784	-0.294	-0.053
-100.903	-58.746	-0.253	-0.138
-99.889	-52.586	0.102	-0.059
-98.874	-76.063	0.085	0.038
-97.859	800.000	0.121	0.546
-96.845	34.302	0.279	-0.308
-95.830	648.621	-0.071	-0.231
-94.816	-100.349	0.243	-0.076
-93.801	-45.817	-0.070	0.044
-92.786	94.297	0.176	0.254
-91.772	-200.000	-0.033	0.223
-90.757	-71.275	-0.497	-0.235
-89.743	-142.947	-0.599	-0.073
-88.728	-187.998	-0.353	0.006
-87.713	-79.914	-0.355	-0.150
-86.699	800.000	0.042	-0.229
-85.684	114.258	-0.059	0.090
-84.670	-85.056	-0.281	-0.111
-83.655	130.729	-0.153	-0.249
-82.640	137.433	-0.270	-0.448
-81.626	248.967	-0.204	-0.438
-80.611	112.957	0.098	-0.151
-79.597	-172.140	0.113	-0.005
-78.582	-83.950	0.119	0.048
-77.567	-47.578	-0.380	0.233
-76.553	310.917	-0.099	-0.236
-75.538	-160.157	-0.377	-0.025
-74.524	-200.000	-0.021	-0.173
-73.509	-108.809	0.132	-0.035
-72.494	-82.457	0.461	-0.188
-71.480	217.617	-0.119	-0.241
-70.465	-96.411	0.441	-0.146
-69.451	-200.000	0.008	-0.271
-68.436	-200.000	0.107	-0.608
-67.422	-13.028	-0.138	-0.113
-66.407	-37.532	-0.411	-0.277
-65.392	-60.301	0.339	-0.182
-64.378	-108.614	-0.407	0.110
-63.363	13.247	0.361	0.354
-62.349	-200.000	0.000	0.033
-61.334	-6.712	-2.201	-1.890
-60.319	11.379	0.998	0.965
-59.305	284.508	-3.151	-7.190
-58.290	24.663	4.138	4.326
-57.276	366.417	4.209	10.770
-56.261	-200.000	17.561	274.202
-55.246	422.048	1221.725	3326.810
-54.232	60.715	2814.280	3525.137
-53.217	70.737	2692.634	3522.719
-52.203	45.894	2427.147	2836.161
-51.188	36.731	2088.487	2330.088
-50.173	29.231	1969.130	2110.862
-49.159	28.019	1957.662	2084.599
-48.144	27.477	1953.732	2074.124
-47.130	27.409	1951.349	2070.737
-46.115	27.404	1950.106	2069.283
-45.100	27.159	1949.730	2065.995
-44.086	27.269	1947.924	2065.258
-43.071	27.184	1946.180	2062.355
-42.057	27.239	1944.154	2060.761
-41.042	27.243	1942.692	2059.166
-40.027	27.206	1941.090	2056.972
-39.013	27.164	1939.869	2055.122
-37.998	27.126	1938.891	2053.570
-36.984	27.146	1937.736	2052.489
-35.969	27.210	1935.711	2050.993
-34.954	27.116	1934.217	2048.256
-33.940	27.033	1933.360	2046.332
-32.925	27.204	1931.888	2046.630
-31.911	27.126	1930.940	2044.661
-30.896	27.251	1929.603	2044.580
-29.881	27.073	1928.820	2041.648
-28.867	27.110	1926.759	2039.812
-27.852	27.134	1924.961	2038.094
-26.838	27.110	1923.842	2036.556
-25.823	27.049	1922.241	2034.097
-24.809	27.170	1920.519	2033.550
-23.794	27.005	1919.950	2031.021
-22.779	27.122	1917.820	2029.999
-21.765	27.019	1917.932	2028.873
-20.750	26.929	1916.727	2026.509
-19.736	26.958	1915.355	2025.301
-18.721	27.028	1913.750	2024.318
-17.706	26.995	1912.673	2022.724
-16.692	26.934	1912.066	2021.318
-15.677	26.961	1909.994	2019.345
-14.663	26.958	1908.697	2017.866
-13.648	26.975	1907.401	2016.607
-12.633	26.956	1906.924	2015.809
-11.619	26.950	1904.847	2013.470
-10.604	26.941	1903.538	2011.902
-9.590	26.853	1903.462	2010.760
-8.575	26.870	1901.829	2009.148
-7.560	26.981	1900.126	2008.499
-6.546	26.882	1899.187	2006.329
-5.531	26.940	1897.484	2005.090
-4.517	27.000	1896.512	2004.658
-3.502	26.930	1896.285	2003.562
-2.487	26.929	1894.449	2001.527
-1.473	27.129	1890.871	1999.874
-0.458	27.324	1874.480	1984.602
0.556	24.600	2020.014	2094.133
1.571	24.027	2234.399	2308.647
2.586	25.329	2278.401	2371.126
3.600	25.426	2280.643	2374.458
4.615	25.619	2280.394	2376.486
5.629	25.724	2277.204	2374.263
6.644	25.665	2276.450	2372.412
7.659	25.649	2274.579	2369.967
8.673	25.721	2272.630	2368.601
9.688	25.293	2279.446	2369.739
10.702	23.967	2359.547	2434.501
11.717	22.979	2426.269	2489.063
12.731	11.575	2395.604	2297.000
13.746	1.805	2369.721	2134.797
14.761	0.365	2364.812	2109.877
15.775	0.158	2362.871	2104.987
16.790	0.201	2360.970	2103.638
17.804	0.196	2359.103	2101.654
18.819	0.135	2358.591	2100.086
19.834	0.188	2356.518	2098.741
20.848	0.121	2355.316	2096.482
21.863	0.279	2352.384	2095.832
22.877	0.164	2351.612	2093.280
23.892	0.210	2349.153	2091.480
24.907	0.265	2346.768	2089.871
25.921	0.172	2344.921	2086.692
26.936	0.159	2342.583	2084.179
27.950	0.143	2340.178	2081.562
28.965	0.203	2338.065	2080.272
29.980	0.161	2336.009	2077.600
30.994	0.295	2334.316	2077.712
32.009	6.102	2355.237	2177.110
33.023	21.417	2403.857	2437.999
34.038	29.257	2419.132	2563.285
35.053	30.457	2419.660	2580.306
36.067	30.166	2415.510	2571.510
37.082	29.456	2412.200	2557.798
38.096	29.367	2410.455	2554.405
39.111	30.072	2411.571	2565.096
40.126	31.256	2412.281	2582.003
41.140	32.008	2413.292	2593.235
42.155	30.966	2407.502	2572.254
43.169	30.400	2404.711	2561.112
44.184	31.107	2403.469	2569.284
45.199	30.926	2401.361	2564.214
46.213	30.840	2399.452	2560.682
47.228	30.737	2398.847	2558.313
48.242	30.621	2395.213	2552.524
49.257	30.974	2394.678	2556.523
50.271	31.268	2393.282	2558.773
51.286	31.592	2392.034	2561.582
52.301	31.270	2389.041	2553.652
53.315	28.883	2379.961	2510.917
54.330	24.839	2366.506	2441.100
55.344	23.141	2358.097	2408.913
56.359	22.938	2353.754	2401.421
57.374	22.603	2352.217	2394.981
58.388	22.722	2349.993	2394.051
59.403	22.983	2347.202	2394.482
60.417	23.321	2345.482	2397.037
61.432	23.581	2343.767	2398.531
62.447	23.460	2342.209	2395.002
63.461	23.308	2339.286	2389.673
64.476	23.366	2336.840	2387.676
65.490	23.846	2337.940	2395.007
66.505	24.772	2341.691	2411.121
67.520	26.998	2347.580	2447.088
68.534	29.332	2352.806	2483.895
69.549	30.894	2355.198	2507.267
70.563	31.753	2352.266	2515.445
71.578	31.651	2351.237	2512.668
72.593	31.567	2348.532	2508.342
73.607	31.607	2346.131	2506.021
74.622	31.534	2345.490	2504.049
75.636	31.294	2341.953	2496.752
76.651	31.101	2339.309	2491.052
77.666	31.280	2338.720	2492.523
78.680	31.417	2337.234	2492.473
79.695	31.747	2336.200	2495.496
80.709	31.942	2336.159	2497.757
81.724	32.319	2333.666	2499.836
82.739	31.965	2329.130	2489.957
83.753	31.553	2326.580	2481.439
84.768	31.523	2324.330	2478.349
85.782	31.131	2323.299	2471.736
86.797	31.026	2320.579	2467.148
87.812	30.767	2317.828	2460.483
88.826	30.687	2315.219	2456.354
89.841	31.053	2313.258	2458.843
90.855	31.565	2312.970	2465.022
91.870	31.103	2310.444	2455.915
92.884	30.950	2308.342	2451.368
93.899	31.191	2307.530	2453.390
94.914	29.970	2303.173	2432.360
95.928	26.432	2290.215	2371.843
96.943	24.861	2286.458	2346.982
97.957	28.138	2295.004	2398.746
98.972	30.588	2297.284	2433.106
99.987	30.527	2295.463	2430.088
101.001	30.504	2292.790	2426.667
102.016	30.684	2291.996	2427.898
103.030	30.948	2290.041	2428.995
104.045	31.135	2288.161	2429.161
105.060	31.314	2286.838	2429.807
106.074	31.066	2284.615	2423.916
107.089	30.861	2281.432	2417.567
108.103	31.237	2282.236	2423.040
109.118	31.397	2279.523	2421.957
110.133	31.294	2278.676	2419.415
111.147	31.768	2278.093	2424.680
112.162	31.783	2275.846	2422.193
113.176	31.215	2271.181	2409.572
114.191	31.154	2269.941	2407.179
115.206	31.358	2268.478	2407.978
116.220	31.139	2266.729	2402.997
117.235	31.171	2262.812	2398.978
118.249	31.102	2261.944	2396.872
119.264	31.586	2261.828	2402.718
120.279	31.725	2260.775	2403.106
121.293	31.442	2258.166	2396.393
122.308	31.397	2256.410	2393.667
123.322	31.484	2255.084	2393.087
124.337	30.651	2249.041	2375.696
125.352	26.928	2237.046	2315.110
126.366	25.693	2236.031	2297.937
127.381	28.730	2242.199	2343.021
128.395	30.586	2243.097	2367.455
129.410	31.229	2242.752	2375.037
130.424	31.503	2242.473	2377.954
131.439	31.166	2239.283	2369.989
132.454	30.970	2237.034	2364.821
133.468	31.233	2234.720	2365.450
134.483	30.898	2233.163	2359.251
135.497	30.485	2230.569	2350.978
136.512	30.778	2228.869	2352.619
137.527	30.962	2226.939	2352.638
138.541	30.853	2226.993	2351.031
139.556	30.766	2224.958	2347.494
140.570	30.922	2224.593	2348.807
141.585	31.201	2223.024	2350.402
142.600	31.233	2220.866	2348.243
143.614	30.976	2218.926	2342.668
144.629	31.332	2217.921	2345.821
145.643	30.956	2215.537	2338.280
146.658	31.109	2212.713	2336.949
147.673	31.268	2212.582	2338.520
148.687	31.343	2211.349	2337.886
149.702	30.953	2209.033	2330.260
150.716	30.710	2207.013	2324.795
151.731	30.698	2206.836	2324.184
152.746	31.262	2206.785	2330.932
153.760	29.891	2200.811	2307.175
154.775	25.953	2186.647	2242.917
155.789	24.293	2183.270	2218.442
156.804	27.687	2191.702	2269.274
157.819	30.385	2194.509	2305.637
158.833	31.103	2193.711	2313.471
159.848	31.356	2191.640	2314.167
160.862	31.500	2190.627	2314.610
161.877	31.722	2189.952	2316.377
162.892	31.543	2189.072	2312.949
163.906	31.532	2187.024	2310.369
164.921	31.268	2185.442	2305.146
165.935	31.308	2182.997	2302.783
166.950	31.214	2181.250	2299.497
167.964	31.033	2177.808	2293.362
168.979	30.903	2176.651	2290.257
169.994	31.305	2175.842	2294.094
171.008	31.622	2174.480	2296.298
172.023	31.378	2173.396	2291.872
173.037	31.278	2171.933	2288.822
174.052	31.219	2168.228	2283.920
175.067	30.747	2166.294	2275.804
176.081	30.934	2165.868	2277.392
177.096	31.214	2164.544	2279.164
178.110	30.809	2161.467	2270.683
179.125	30.786	2160.705	2269.327
180.140	31.129	2159.999	2272.512
181.154	31.126	2157.892	2269.986
182.169	30.792	2155.958	2263.603
183.183	29.528	2150.330	2242.007
184.198	25.687	2136.551	2180.689
185.213	24.654	2136.134	2167.417
186.227	28.685	2145.927	2226.345
187.242	30.807	2149.025	2255.155
188.256	30.927	2147.949	2255.211
189.271	31.373	2147.118	2259.494
190.286	31.532	2146.499	2260.499
191.300	31.290	2142.502	2253.085
192.315	31.126	2140.152	2248.368
193.329	31.025	2139.912	2246.617
194.344	31.065	2137.706	2244.515
195.359	31.262	2136.359	2245.222
196.373	31.615	2135.119	2247.907
197.388	31.495	2133.890	2244.890
198.402	31.309	2130.353	2238.663
199.417	30.893	2127.874	2230.790
200.432	30.974	2126.424	2229.977
201.446	30.992	2125.895	2229.366
202.461	31.206	2124.244	2229.936
203.475	31.134	2122.613	2227.101
204.490	31.195	2119.364	2224.148
205.504	31.132	2117.664	2221.350
206.519	31.035	2114.730	2216.840
207.534	30.593	2113.494	2210.003
208.548	30.762	2112.854	2211.092
209.563	30.955	2111.189	2211.386
210.577	30.584	2109.499	2204.926
211.592	30.554	2108.227	2202.977
212.607	28.903	2101.216	2175.765
213.621	24.674	2087.939	2111.659
214.636	24.800	2090.694	2115.696
215.650	29.019	2099.579	2174.674
216.665	30.665	2099.613	2193.979
217.680	30.808	2098.820	2194.585
218.694	30.891	2098.656	2195.135
219.709	31.052	2098.600	2196.711
220.723	31.249	2095.465	2195.499
221.738	30.970	2093.983	2190.387
222.753	31.146	2091.779	2189.894
223.767	31.264	2090.117	2189.288
224.782	30.838	2087.242	2180.999
225.796	30.655	2085.391	2176.652
226.811	30.597	2084.340	2174.613
227.826	31.204	2084.618	2181.776
228.840	31.539	2083.600	2184.379
229.855	31.387	2080.994	2179.606
230.869	31.532	2079.877	2179.873
231.884	31.370	2078.735	2176.521
232.899	31.278	2077.027	2173.389
233.913	31.205	2075.503	2170.681
234.928	31.108	2074.169	2167.893
235.942	31.317	2072.919	2168.770
236.957	31.548	2071.459	2169.673
237.972	31.392	2068.726	2164.736
238.986	31.505	2069.222	2166.312
240.001	31.695	2067.591	2166.560
241.015	31.067	2064.146	2155.396
242.030	29.832	2058.823	2135.262
243.045	26.321	2047.582	2082.760
244.059	25.455	2047.379	2072.271
245.074	29.489	2054.100	2125.632
246.088	31.035	2056.245	2145.490
247.103	30.892	2053.534	2140.748
248.117	30.831	2052.058	2138.249
249.132	31.219	2052.232	2142.654
250.147	31.295	2050.350	2141.314
251.161	30.975	2047.678	2134.581
252.176	30.665	2045.493	2128.485
253.190	29.979	2038.862	2113.458
254.205	28.037	2032.370	2084.249
255.220	27.313	2030.608	2073.895
256.234	27.639	2030.974	2077.762
257.249	28.181	2030.736	2083.474
258.263	28.005	2028.176	2078.589
259.278	27.242	2025.252	2066.632
260.293	27.183	2025.042	2065.498
261.307	29.190	2029.212	2092.444
262.322	30.769	2031.330	2112.400
263.336	31.104	2029.355	2113.910
264.351	31.152	2028.215	2113.022
265.366	31.563	2027.810	2117.016
266.380	31.497	2027.082	2115.252
267.395	30.984	2024.292	2106.265
268.409	30.860	2022.246	2102.479
269.424	31.369	2021.600	2107.326
270.439	31.591	2020.564	2108.503
271.453	30.066	2012.141	2082.252
272.468	25.619	1998.984	2018.359
273.482	25.008	1999.809	2012.054
274.497	29.050	2008.624	2066.408
275.512	31.084	2009.975	2090.486
276.526	31.278	2008.568	2090.959
277.541	31.346	2006.121	2088.926
278.555	31.222	2005.999	2087.157
279.570	30.716	2002.482	2077.572
280.585	30.628	2000.571	2074.356
281.599	31.008	1998.811	2076.539
282.614	30.402	1995.116	2065.668
283.628	28.191	1989.318	2034.744
284.643	27.331	1986.341	2021.859
285.657	27.579	1985.706	2023.736
286.672	27.297	1982.985	2017.577
287.687	26.908	1979.864	2009.828
288.701	26.799	1979.368	2007.872
289.716	26.616	1977.542	2003.744
290.730	26.814	1975.248	2003.379
291.745	26.980	1974.423	2004.142
292.760	27.045	1974.678	2004.884
293.774	27.908	1976.911	2016.495
294.789	29.385	1978.284	2034.039
295.803	30.378	1979.043	2045.580
296.818	30.968	1979.366	2052.198
297.833	31.290	1979.255	2055.406
298.847	31.482	1977.532	2055.485
299.862	31.574	1976.051	2054.718
300.876	30.239	1969.703	2033.178
301.891	26.084	1957.242	1974.481
302.906	25.063	1959.651	1965.417
303.920	29.423	1966.920	2020.596
304.935	30.855	1967.920	2037.130
305.949	30.874	1965.568	2034.662
306.964	31.258	1965.020	2038.064
307.979	30.752	1961.458	2028.592
308.993	29.512	1955.747	2008.887
310.008	28.348	1950.853	1990.907
311.022	27.461	1948.177	1978.258
312.037	27.359	1945.185	1973.870
313.052	26.736	1942.666	1964.301
314.066	26.292	1939.829	1956.365
315.081	25.982	1938.152	1951.072
316.095	25.592	1936.558	1944.986
317.110	25.762	1936.028	1946.067
318.125	26.440	1935.424	1952.592
319.139	27.011	1935.836	1958.970
320.154	27.823	1935.708	1967.409
321.168	27.876	1935.400	1967.426
322.183	29.234	1937.945	1984.494
323.197	30.859	1939.663	2003.607
324.212	31.149	1938.678	2005.476
325.227	30.996	1938.061	2002.946
326.241	31.302	1935.354	2003.214
327.256	31.347	1934.771	2002.851
328.270	31.247	1934.263	2001.010
329.285	31.097	1932.677	1997.517
330.300	29.690	1926.535	1975.816
331.314	25.521	1915.319	1919.446
332.329	24.936	1916.151	1913.767
333.343	29.376	1923.068	1968.189
334.358	31.338	1925.131	1991.106
335.373	31.295	1924.502	1989.757
336.387	31.372	1920.738	1986.454
337.402	31.455	1919.301	1985.615
338.416	31.152	1918.234	1981.034
339.431	31.236	1916.929	1980.344
340.446	31.401	1915.595	1980.494
341.460	29.564	1908.132	1953.027
342.475	26.998	1900.207	1917.482
343.489	26.159	1897.372	1905.495
344.504	26.003	1896.434	1902.673
345.519	25.992	1894.409	1900.295
346.533	26.212	1892.278	1900.255
347.548	25.954	1891.371	1896.398
348.562	26.213	1891.327	1898.857
349.577	26.778	1890.488	1903.753
350.592	26.825	1890.040	1903.569
351.606	27.249	1890.252	1908.030
352.621	27.597	1888.529	1909.727
353.635	28.259	1890.292	1918.255
354.650	29.182	1890.411	1927.864
355.665	30.036	1890.741	1936.946
356.679	31.012	1891.078	1947.318
357.694	31.241	1891.339	1949.758
358.708	31.324	1891.186	1950.237
359.723	29.944	1883.641	1927.784
360.738	25.553	1872.650	1870.504
361.752	25.896	1876.595	1877.815
362.767	30.020	1881.842	1926.048
363.781	30.706	1880.654	1931.764
364.796	30.609	1879.131	1928.963
365.810	30.793	1878.780	1930.283
366.825	31.050	1879.453	1933.428
367.840	31.153	1878.444	1933.229
368.854	31.047	1875.598	1928.969
369.869	29.464	1869.012	1905.542
370.883	27.734	1863.364	1881.646
371.898	26.244	1859.598	1862.190
372.913	25.559	1857.188	1852.464
373.927	25.752	1856.324	1853.374
374.942	25.705	1853.564	1849.908
375.956	25.534	1850.861	1845.228
376.971	25.330	1849.153	1841.206
377.986	25.251	1847.919	1838.938
379.000	26.345	1849.552	1851.618
380.015	28.898	1854.954	1883.124
381.029	30.418	1855.968	1899.566
382.044	30.841	1855.224	1902.921
383.059	31.524	1855.442	1909.934
384.073	31.422	1853.967	1907.137
385.088	30.720	1851.071	1896.742
386.102	30.720	1849.024	1894.415
387.117	30.959	1847.097	1894.663
388.132	30.769	1847.544	1892.951
389.146	29.695	1843.378	1877.496
390.161	25.442	1832.724	1823.151
391.175	25.107	1833.296	1820.077
392.190	29.418	1837.859	1868.386
393.205	30.647	1838.720	1881.538
394.219	30.987	1837.421	1883.443
395.234	31.158	1837.104	1884.627
396.248	31.015	1835.103	1880.900
397.263	31.099	1832.046	1878.394
398.278	30.795	1830.192	1873.195
399.292	30.566	1828.511	1868.931
400.307	30.560	1827.910	1868.029
401.321	30.139	1824.495	1860.072
402.336	27.725	1817.290	1828.226
403.350	25.981	1811.977	1805.128
404.365	26.110	1810.652	1804.888
405.380	26.230	1811.174	1806.400
406.394	26.283	1809.799	1805.343
407.409	26.286	1807.854	1803.216
408.423	26.111	1805.664	1799.068
409.438	26.415	1806.780	1803.005
410.453	28.210	1809.925	1823.929
411.467	29.057	1810.013	1832.284
412.482	29.555	1810.499	1837.539
413.496	30.428	1811.502	1847.066
414.511	30.521	1809.524	1845.758
415.526	30.855	1807.340	1846.641
416.540	31.466	1807.723	1852.897
417.555	31.391	1806.175	1850.341
418.569	30.793	1805.040	1843.008
419.584	31.101	1805.399	1846.222
420.599	31.734	1805.711	1852.611
421.613	31.473	1804.437	1848.485
422.628	31.367	1802.693	1845.424
423.642	31.708	1802.084	1847.969
424.657	31.447	1798.522	1841.509
425.672	30.556	1795.840	1829.727
426.686	30.827	1795.155	1831.493
427.701	31.125	1794.905	1833.963
428.715	31.442	1793.696	1835.639
429.730	31.612	1793.200	1836.591
430.745	31.262	1789.754	1829.394
431.759	29.292	1783.661	1803.590
432.774	26.666	1776.762	1770.643
433.788	25.919	1775.009	1761.344
434.803	26.025	1775.516	1762.682
435.818	26.446	1775.369	1766.458
436.832	26.371	1775.101	1765.242
437.847	25.377	1766.094	1746.371
438.861	14.601	1736.113	1612.407
439.876	2.689	1714.140	1477.001
440.890	0.493	1708.942	1451.137
441.905	0.304	1707.643	1448.035
442.920	0.149	1706.527	1445.421
443.934	0.169	1704.923	1444.074
444.949	0.183	1703.422	1442.765
445.963	0.142	1702.545	1441.456
446.978	0.141	1702.760	1441.456
447.993	0.152	1700.886	1439.805
449.007	0.254	1698.454	1438.553
450.022	0.269	1696.009	1436.457
451.036	0.281	1694.583	1435.185
452.051	0.758	1697.924	1442.420
453.066	9.355	1721.210	1545.331
454.080	20.514	1739.841	1670.254
455.095	23.314	1743.953	1701.071
456.109	23.955	1744.374	1707.467
457.124	24.042	1742.504	1706.264
458.139	24.073	1741.796	1705.671
459.153	23.957	1741.335	1703.894
460.168	23.958	1739.834	1702.235
461.182	24.079	1738.126	1701.522
462.197	24.237	1736.857	1701.593
463.212	24.434	1736.171	1702.601
464.226	24.545	1735.121	1702.432
465.241	24.480	1733.437	1699.962
466.255	24.376	1731.442	1696.800
467.270	24.285	1730.422	1694.734
468.285	24.457	1730.108	1695.863
469.299	24.575	1728.632	1695.336
470.314	24.443	1726.442	1691.735
471.328	24.428	1724.849	1689.822
472.343	24.384	1723.979	1688.353
473.358	24.245	1722.061	1684.951
474.372	24.147	1721.168	1682.947
475.387	24.077	1719.984	1680.925
476.401	24.076	1717.720	1678.501
477.416	23.752	1716.829	1674.354
478.430	23.629	1715.175	1671.381
479.445	23.904	1714.022	1672.657
480.460	24.120	1712.450	1672.960
481.474	24.097	1712.173	1672.271
482.489	24.088	1709.999	1669.866
483.503	23.804	1708.271	1665.305
484.518	23.772	1706.924	1663.486
485.533	23.753	1705.441	1661.669
486.547	23.485	1702.863	1656.436
487.562	22.999	1701.250	1650.115
488.576	23.165	1700.890	1651.120
489.591	23.264	1699.864	1650.861
490.606	23.506	1698.438	1651.543
491.620	23.717	1697.471	1652.380
492.635	23.436	1694.622	1646.783
493.649	23.254	1693.316	1643.616
494.664	23.738	1693.200	1647.826
495.679	24.396	1692.603	1653.177
496.693	24.413	1691.514	1652.075
497.708	24.308	1690.310	1649.718
498.722	24.119	1688.285	1645.790
499.737	23.972	1687.712	1643.671
500.752	24.068	1687.360	1644.020
501.766	24.374	1685.770	1645.112
502.781	24.396	1683.022	1642.442
503.795	24.321	1682.062	1640.617
504.810	24.231	1680.901	1638.451
505.825	24.054	1680.319	1636.053
506.839	24.141	1678.580	1634.965
507.854	23.960	1677.622	1632.172
508.868	23.792	1675.194	1628.061
509.883	23.542	1674.229	1624.629
510.898	23.511	1672.715	1622.681
511.912	23.650	1670.546	1621.658
512.927	23.915	1669.359	1622.749
513.941	23.590	1668.851	1619.077
514.956	23.815	1667.701	1619.832
515.971	23.604	1666.140	1616.186
516.985	23.731	1664.026	1615.102
518.000	23.683	1663.469	1613.936
519.014	23.342	1661.675	1608.883
520.029	23.198	1660.028	1605.781
521.043	23.369	1658.848	1606.011
522.058	23.430	1658.313	1605.858
523.073	23.464	1656.511	1604.226
524.087	23.280	1654.749	1600.655
525.102	23.287	1654.447	1600.239
526.116	23.926	1654.644	1606.039
527.131	24.234	1653.646	1607.666
528.146	23.831	1652.039	1602.265
529.160	23.595	1650.150	1598.109
530.175	23.673	1648.871	1597.383
531.189	23.491	1647.563	1594.279
532.204	23.400	1645.748	1591.513
533.219	23.626	1644.773	1592.417
534.233	23.933	1644.936	1595.147
535.248	23.600	1642.989	1590.071
536.262	22.897	1641.048	1581.679
537.277	22.700	1639.809	1578.525
538.292	22.753	1639.164	1578.184
539.306	22.923	1636.615	1577.073
540.321	22.791	1634.653	1573.812
541.335	22.705	1633.970	1572.194
542.350	22.833	1631.961	1571.214
543.365	22.838	1630.002	1569.187
544.379	22.643	1628.473	1565.782
545.394	22.549	1627.994	1564.297
546.408	23.129	1628.221	1569.503
547.423	23.792	1627.668	1574.693
548.438	23.875	1626.291	1573.913
549.452	23.582	1624.456	1569.342
550.467	23.595	1622.876	1567.744
551.481	23.682	1622.199	1567.672
552.496	23.421	1620.396	1563.429
553.511	23.028	1619.305	1558.708
554.525	23.113	1618.484	1558.480
555.540	23.090	1617.066	1556.725
556.554	23.045	1615.997	1555.114
557.569	23.102	1614.314	1553.813
558.583	23.370	1613.089	1554.807
559.598	23.380	1612.284	1553.940
560.613	23.330	1610.970	1552.048
561.627	23.036	1609.098	1547.470
562.642	22.761	1607.177	1543.021
563.656	22.524	1604.889	1538.556
564.671	22.338	1604.371	1536.245
565.686	22.419	1602.923	1535.386
566.700	22.680	1602.785	1537.359
567.715	22.820	1601.400	1537.065
568.729	22.873	1600.114	1536.115
569.744	23.181	1598.337	1536.913
570.759	22.881	1597.375	1533.187
571.773	22.856	1596.362	1531.814
572.788	22.671	1594.342	1528.078
573.802	22.652	1592.314	1525.791
574.817	22.490	1590.711	1522.660
575.832	22.289	1589.606	1519.679
576.846	22.497	1588.927	1520.647
577.861	22.849	1588.339	1522.955
578.875	22.774	1587.710	1521.524
579.890	22.758	1586.233	1519.786
580.905	22.678	1585.306	1518.025
581.919	22.454	1585.206	1515.805
582.934	22.479	1582.640	1513.388
583.948	22.438	1581.246	1511.521
584.963	22.524	1579.900	1510.797
585.978	22.739	1579.726	1512.299
586.992	22.394	1577.971	1507.474
588.007	21.939	1576.572	1502.044
589.021	22.302	1576.419	1504.833
590.036	22.660	1574.318	1505.724
591.051	22.386	1573.254	1502.174
592.065	22.037	1571.313	1497.152
593.080	22.020	1569.030	1494.657
594.094	21.957	1568.103	1493.056
595.109	22.548	1567.814	1497.651
596.123	23.291	1566.196	1502.259
597.138	22.870	1565.742	1498.055
598.153	22.615	1563.640	1493.694
599.167	22.533	1562.105	1491.349
600.182	22.620	1560.526	1490.403
601.196	22.459	1560.206	1488.553
602.211	22.599	1558.548	1487.982
603.226	22.440	1557.456	1485.415
604.240	22.235	1555.638	1481.769
605.255	22.141	1554.385	1479.601
606.269	22.344	1553.431	1480.227
607.284	22.486	1552.695	1480.552
608.299	22.241	1552.020	1477.662
609.313	22.485	1550.641	1478.229
610.328	22.314	1549.531	1475.552
611.342	22.372	1547.263	1473.707
612.357	22.185	1546.920	1471.630
613.372	22.104	1546.270	1470.154
614.386	22.073	1544.859	1468.372
615.401	21.981	1543.282	1465.930
616.415	21.975	1542.585	1465.036
617.430	21.868	1541.570	1463.005
618.445	21.812	1539.447	1460.348
619.459	21.780	1539.007	1459.487
620.474	21.908	1539.541	1460.888
621.488	22.313	1538.648	1463.255
622.503	22.656	1537.374	1464.727
623.518	22.142	1535.054	1458.062
624.532	21.704	1533.265	1452.539
625.547	21.631	1531.783	1450.351
626.561	21.404	1530.460	1447.037
627.576	21.222	1529.849	1444.770
628.591	21.787	1528.800	1448.304
629.605	22.071	1528.312	1450.023
630.620	22.131	1527.524	1449.596
631.634	22.305	1526.571	1449.963
632.649	22.225	1525.031	1447.668
633.663	21.830	1523.610	1442.876
634.678	21.706	1520.297	1438.542
635.693	21.438	1518.945	1434.878
636.707	21.276	1517.294	1431.814
637.722	21.230	1516.092	1430.134
638.736	21.483	1515.317	1431.308
639.751	21.668	1514.927	1432.294
640.766	21.718	1514.439	1432.071
641.780	21.796	1512.697	1430.888
642.795	21.803	1512.513	1430.605
643.809	21.835	1511.621	1429.850
644.824	21.959	1510.355	1429.496
645.839	21.994	1509.482	1428.787
646.853	21.950	1508.055	1426.903
647.868	21.847	1506.176	1424.118
648.882	21.902	1505.271	1423.533
649.897	21.980	1503.611	1422.433
650.912	21.757	1502.393	1419.299
651.926	21.416	1501.409	1415.425
652.941	21.505	1500.693	1415.303
653.955	21.796	1499.258	1416.141
654.970	22.192	1497.395	1417.425
655.985	22.022	1496.860	1415.366
656.999	21.926	1495.881	1413.493
658.014	21.632	1493.511	1408.708
659.028	21.667	1491.617	1407.037
660.043	21.515	1491.734	1405.756
661.058	21.497	1490.267	1404.058
662.072	21.324	1488.812	1401.123
663.087	21.741	1487.982	1403.533
664.101	21.688	1487.687	1402.664
665.116	21.697	1486.193	1401.153
666.131	21.500	1485.373	1398.635
667.145	21.579	1483.887	1397.702
668.160	21.522	1482.614	1395.879
669.174	21.450	1480.776	1393.403
670.189	21.366	1480.187	1392.008
671.204	21.703	1479.898	1394.266
672.218	21.713	1478.660	1393.015
673.233	21.725	1476.571	1390.971
674.247	21.358	1474.983	1386.387
675.262	21.337	1473.268	1384.445
676.276	21.373	1472.891	1384.204
677.291	21.517	1472.891	1385.187
678.306	21.758	1472.062	1386.158
679.320	21.610	1471.126	1383.935
680.335	21.441	1469.869	1381.244
681.349	21.367	1468.763	1379.456
682.364	21.477	1467.040	1378.546
683.379	21.371	1465.886	1376.454
684.393	21.289	1463.914	1373.790
685.408	21.168	1463.097	1371.904
686.422	21.259	1462.407	1371.810
687.437	21.067	1461.610	1369.386
688.452	20.837	1460.469	1366.341
689.466	20.925	1458.799	1365.307
690.481	20.973	1457.527	1364.331
691.495	21.092	1457.562	1365.133
692.510	21.571	1457.258	1368.451
693.525	21.866	1455.658	1369.099
694.539	21.621	1453.793	1365.261
695.554	21.010	1452.784	1359.361
696.568	20.780	1452.232	1356.881
697.583	20.837	1450.225	1355.291
698.598	20.829	1448.987	1353.907
699.612	20.752	1448.194	1352.405
700.627	20.937	1446.773	1352.359
701.641	21.083	1445.987	1352.601
702.656	21.275	1444.784	1352.804
703.671	21.056	1444.357	1350.539
704.685	20.995	1443.408	1349.015
705.700	21.079	1442.105	1348.294
706.714	21.159	1441.398	1348.089
707.729	21.238	1439.534	1346.801
708.744	21.035	1438.397	1344.000
709.758	20.845	1438.374	1342.351
710.773	21.232	1437.073	1343.966
711.787	21.533	1435.334	1344.506
712.802	21.345	1433.690	1341.355
713.816	21.153	1432.517	1338.619
714.831	21.116	1430.846	1336.607
715.846	20.923	1429.641	1333.840
716.860	20.932	1428.141	1332.348
717.875	21.055	1427.306	1332.353
718.889	20.995	1427.100	1331.546
719.904	20.898	1426.441	1330.022
720.919	20.927	1424.891	1328.643
721.933	20.811	1424.268	1327.015
722.948	20.763	1422.805	1325.122
723.962	20.818	1421.097	1323.797
724.977	20.708	1420.156	1321.919
725.992	20.689	1419.516	1321.018
727.006	21.031	1417.697	1321.774
728.021	20.892	1416.216	1319.180
729.035	20.667	1415.254	1316.413
730.050	20.834	1414.305	1316.643
731.065	21.004	1413.687	1317.198
732.079	20.910	1412.350	1315.083
733.094	20.877	1411.839	1314.204
734.108	21.117	1410.710	1314.810
735.123	21.071	1408.475	1312.219
736.138	21.006	1407.779	1310.925
737.152	20.923	1407.052	1309.467
738.167	20.689	1405.708	1306.293
739.181	20.826	1404.579	1306.118
740.196	20.780	1403.576	1304.684
741.211	20.659	1403.100	1303.174
742.225	20.778	1402.157	1303.035
743.240	20.635	1400.655	1300.409
744.254	20.613	1398.641	1298.219
745.269	20.590	1397.626	1296.954
746.284	20.637	1397.066	1296.630
747.298	20.640	1396.420	1295.894
748.313	20.807	1394.974	1295.650
749.327	21.189	1394.965	1298.344
750.342	21.467	1395.136	1300.419
751.356	21.783	1394.178	1301.730
752.371	21.602	1392.386	1298.552
753.386	21.007	1390.429	1292.143
754.400	20.772	1389.105	1289.011
755.415	20.758	1387.623	1287.374
756.429	20.701	1386.629	1285.876
757.444	20.749	1385.707	1285.222
758.459	20.663	1384.297	1283.125
759.473	20.674	1382.800	1281.667
760.488	20.683	1381.267	1280.153
761.502	20.593	1380.457	1278.585
762.517	20.581	1379.785	1277.720
763.532	20.772	1378.698	1277.976
764.546	20.738	1377.767	1276.706
765.561	20.846	1378.534	1278.061
766.575	21.438	1378.055	1281.824
767.590	21.611	1376.666	1281.653
768.605	21.066	1374.765	1275.724
769.619	20.783	1372.953	1271.812
770.634	20.645	1371.860	1269.640
771.648	20.499	1370.728	1267.370
772.663	20.437	1369.303	1265.445
773.678	20.344	1369.004	1264.338
774.692	20.635	1367.973	1265.362
775.707	20.516	1367.836	1264.211
776.721	20.598	1366.654	1263.564
777.736	20.618	1364.884	1261.923
778.751	20.697	1363.786	1261.332
779.765	20.603	1362.801	1259.590
780.780	20.586	1362.791	1259.303
781.794	20.612	1362.005	1258.614
782.809	20.461	1360.704	1256.170
783.824	20.281	1359.004	1253.139
784.838	20.569	1358.433	1254.556
785.853	21.063	1358.256	1257.822
786.867	20.933	1357.232	1255.778
787.882	20.605	1355.968	1252.090
788.897	20.463	1354.784	1249.820
789.911	20.392	1353.884	1248.325
790.926	20.334	1351.930	1245.956
791.940	20.331	1350.756	1244.705
792.955	20.271	1349.105	1242.602
793.969	20.217	1348.044	1241.088
794.984	20.241	1347.680	1240.771
795.999	20.265	1346.429	1239.648
797.013	20.437	1344.943	1239.363
798.028	20.277	1343.875	1237.083
799.042	20.282	1343.171	1236.325
800.057	20.267	1342.081	1235.067
801.072	20.475	1340.212	1234.681
802.086	20.291	1339.334	1232.414
803.101	20.175	1338.666	1230.825
804.115	20.227	1337.269	1229.761
805.130	20.262	1336.311	1228.982
806.145	20.302	1334.871	1227.795
807.159	20.386	1333.525	1227.006
808.174	20.461	1332.104	1226.085
809.188	20.483	1331.750	1225.773
810.203	20.463	1330.473	1224.304
811.218	20.745	1329.590	1225.342
812.232	20.924	1328.610	1225.561
813.247	21.092	1327.932	1225.972
814.261	20.767	1326.563	1222.268
815.276	20.454	1324.947	1218.428
816.291	20.239	1324.130	1216.013
817.305	20.295	1322.462	1214.734
818.320	20.209	1321.323	1212.937
819.334	20.219	1320.087	1211.727
820.349	20.289	1318.840	1210.930
821.364	20.314	1317.265	1209.511
822.378	20.348	1315.743	1208.205
823.393	20.329	1314.426	1206.724
824.407	20.189	1312.894	1204.191
825.422	20.230	1312.624	1204.088
826.437	20.177	1311.689	1202.713
827.451	20.101	1310.460	1200.916
828.466	20.533	1309.542	1202.939
829.480	20.854	1308.222	1203.811
830.495	20.556	1305.874	1199.442
831.509	20.217	1305.039	1196.178
832.524	20.129	1304.341	1194.786
833.539	20.128	1303.093	1193.492
834.553	20.264	1301.281	1192.629
835.568	20.204	1299.700	1190.622
836.582	20.188	1299.054	1189.780
837.597	20.260	1298.444	1189.574
838.612	20.224	1296.811	1187.692
839.626	20.286	1296.314	1187.522
840.641	20.367	1295.197	1186.911
841.655	20.529	1295.154	1187.844
842.670	20.928	1294.942	1190.241
843.685	21.329	1294.220	1192.192
844.699	20.842	1292.766	1187.370
845.714	20.568	1290.448	1183.223
846.728	20.349	1289.160	1180.408
847.743	20.362	1287.397	1178.741
848.758	20.301	1286.140	1177.031
849.772	20.333	1284.501	1175.612
850.787	20.262	1282.885	1173.508
851.801	20.269	1281.962	1172.566
852.816	20.086	1281.427	1170.697
853.831	20.230	1279.151	1169.455
854.845	20.115	1277.536	1167.062
855.860	20.095	1275.927	1165.313
856.874	20.048	1275.461	1164.432
857.889	20.263	1274.976	1165.301
858.904	20.608	1274.398	1166.957
859.918	20.750	1273.225	1166.706
860.933	21.024	1271.516	1166.838
861.947	20.695	1270.611	1163.657
862.962	20.494	1268.673	1160.394
863.977	20.278	1266.854	1157.142
864.991	20.044	1266.319	1154.953
866.006	20.131	1266.233	1155.314
867.020	20.215	1264.453	1154.114
868.035	20.094	1263.333	1152.148
869.049	20.078	1262.517	1151.158
870.064	20.145	1261.698	1150.719
871.079	20.278	1260.577	1150.449
872.093	20.229	1260.671	1150.066
873.108	20.401	1259.391	1149.907
874.122	20.519	1258.330	1149.589
875.137	20.782	1258.036	1150.926
876.152	21.101	1257.090	1152.039
877.166	20.864	1255.391	1148.775
878.181	20.675	1253.717	1145.854
879.195	20.632	1252.540	1144.359
880.210	20.447	1252.097	1142.592
881.225	20.485	1250.470	1141.225
882.239	20.467	1249.778	1140.335
883.254	20.224	1249.211	1138.081
884.268	20.301	1247.726	1137.098
885.283	20.227	1246.985	1135.803
886.298	20.249	1244.857	1133.873
887.312	20.211	1244.584	1133.236
888.327	20.346	1243.753	1133.232
889.341	20.301	1242.445	1131.607
890.356	20.101	1241.761	1129.540
891.371	20.096	1241.452	1129.091
892.385	20.216	1240.178	1128.583
893.400	20.293	1239.303	1128.152
894.414	20.186	1238.461	1126.554
895.429	20.324	1237.615	1126.547
896.444	21.044	1236.465	1130.057
897.458	21.391	1235.930	1131.692
898.473	20.968	1234.902	1127.867
899.487	20.612	1233.113	1123.782
900.502	20.342	1232.189	1121.052
901.517	20.363	1230.326	1119.364
902.531	20.178	1230.097	1117.818
903.546	20.105	1229.537	1116.708
904.560	20.196	1228.368	1116.097
905.575	20.225	1227.358	1115.236
906.589	20.497	1225.796	1115.435
907.604	20.467	1225.723	1115.043
