DTS Sentinel unit serial number:	SN409020Multiplexer serial number:	ORYXHardware model number:	OX4-SRSoftware version number:	ORYX F/W v3.00 Oryx Data Collector v3.7.2.0data status	okinstallation	HaddamTimeLapsedifferential loss correction	single-endedforward channel	channel 3reverse channel	N/Adate	2011/06/21time	21:36:17forward acquisition time	30.00reverse acquisition time	0.00gamma	498.7831k internal	0.1761k external	0.1761temperature offset calibration	1.0074default loss term (dB/km)	0.3790temperature slope calibration	1.3530multiplexer offset coefficient	1.0000multiplexer slope coefficient	1.0000fibre end	0.00T internal ref (°C)	25.87T ext. ref 1 (°C)	19.53T ext. ref 2 (°C)	0.03length (m)	temperature (°C)	Stokes	anti-Stokes-747.200	-77.239	-0.609	0.279
-746.185	6.572	-0.300	0.295
-745.171	147.148	0.151	0.269
-744.156	-74.707	-0.233	-0.110
-743.142	32.982	-0.272	-0.311
-742.127	-132.350	0.255	0.043
-741.112	109.688	0.104	-0.164
-740.098	-200.000	0.132	0.910
-739.083	-24.296	0.105	-0.083
-738.069	126.412	0.083	-0.139
-737.054	-78.510	-0.615	0.277
-736.039	242.493	-0.120	0.266
-735.025	24.965	-0.186	-0.204
-734.010	56.560	-0.088	0.113
-732.996	125.825	0.125	-0.209
-731.981	-91.472	-0.162	0.061
-730.966	-63.868	-0.286	-0.154
-729.952	-121.442	0.239	0.052
-728.937	800.000	-0.073	0.276
-727.923	394.432	-0.125	0.346
-726.908	120.702	-0.161	0.265
-725.894	20.665	0.228	-0.244
-724.879	-11.389	-0.095	0.082
-723.864	-153.851	0.141	-0.013
-722.850	-6.341	-0.132	-0.119
-721.835	800.000	0.073	-0.309
-720.821	-11.593	-0.267	0.232
-719.806	800.000	-0.177	0.684
-718.791	-76.969	-0.319	-0.146
-717.777	294.730	-0.083	-0.202
-716.762	12.362	-0.284	-0.289
-715.748	-156.142	-0.100	0.008
-714.733	800.000	-0.038	-0.151
-713.718	-166.210	0.506	0.028
-712.704	-200.000	-0.014	0.228
-711.689	-25.085	-0.215	-0.168
-710.675	-67.714	-0.165	0.085
-709.660	479.016	0.102	-0.307
-708.645	-200.000	-0.022	-0.200
-707.631	-88.837	0.299	0.116
-706.616	46.041	-0.136	-0.166
-705.602	-95.728	0.176	-0.062
-704.587	192.152	0.122	-0.243
-703.572	-128.694	-0.399	0.074
-702.558	-57.988	-0.257	-0.148
-701.543	-25.476	0.248	0.193
-700.529	-125.476	0.702	-0.140
-699.514	487.306	-0.200	-0.604
-698.499	585.653	-0.068	-0.221
-697.485	-187.555	0.482	-0.008
-696.470	-3.013	0.076	-0.070
-695.456	93.836	-0.072	0.108
-694.441	53.947	0.090	0.114
-693.426	-200.000	0.005	0.394
-692.412	43.963	0.029	-0.035
-691.397	-94.264	0.207	0.074
-690.383	-200.000	-0.002	0.030
-689.368	-24.407	0.354	-0.278
-688.354	107.167	0.271	-0.425
-687.339	800.000	0.066	0.271
-686.324	-136.260	-0.415	0.063
-685.310	-200.000	-0.020	0.214
-684.295	143.538	0.113	-0.198
-683.281	14.697	-0.221	-0.227
-682.266	-6.182	0.185	0.167
-681.251	-200.000	0.017	-0.247
-680.237	-197.738	-0.595	-0.005
-679.222	77.917	-0.105	0.148
-678.208	-69.644	-0.194	0.097
-677.193	-143.473	0.198	0.025
-676.178	-108.025	0.472	-0.134
-675.164	666.685	0.080	-0.276
-674.149	585.465	0.022	-0.072
-673.135	-130.350	-0.210	-0.037
-672.120	-200.000	0.059	-0.736
-671.105	-96.030	0.197	-0.069
-670.091	-97.919	-0.595	-0.201
-669.076	-25.666	-0.464	-0.360
-668.062	-200.000	-0.031	-0.319
-667.047	-145.074	0.262	0.031
-666.032	-200.000	-0.087	-0.648
-665.018	462.413	0.081	-0.239
-664.003	-200.000	-0.026	-0.571
-662.989	-87.719	0.163	-0.064
-661.974	-37.003	-0.313	0.220
-660.959	60.018	-0.047	0.061
-659.945	-6.564	0.342	-0.306
-658.930	-53.618	-0.161	0.096
-657.916	-79.045	0.090	-0.040
-656.901	-35.715	-0.067	0.048
-655.886	-122.107	-0.398	-0.085
-654.872	103.733	-0.047	-0.073
-653.857	757.155	-0.065	-0.233
-652.843	-200.000	-0.058	-0.370
-651.828	154.827	-0.130	0.235
-650.814	-60.175	0.308	-0.172
-649.799	185.506	0.340	-0.666
-648.784	14.654	0.389	0.400
-647.770	132.224	0.190	0.323
-646.755	-10.242	0.182	-0.159
-645.741	3.440	-0.258	-0.247
-644.726	-31.356	0.030	-0.022
-643.711	125.451	0.179	0.297
-642.697	-200.000	0.012	0.231
-641.682	146.817	0.091	0.162
-640.668	-152.733	0.229	-0.021
-639.653	-112.817	-0.395	-0.102
-638.638	-32.573	-0.436	0.319
-637.624	-169.509	0.346	-0.016
-636.609	-108.709	0.164	-0.046
-635.595	-40.927	-0.028	-0.019
-634.580	-67.858	0.440	0.225
-633.565	364.118	-0.087	-0.230
-632.551	-200.000	0.011	-0.731
-631.536	-200.000	0.068	-0.464
-630.522	-200.000	-0.026	0.000
-629.507	550.354	-0.056	0.178
-628.492	-39.803	0.094	0.065
-627.478	800.000	-0.043	0.182
-626.463	273.040	-0.164	0.382
-625.449	47.195	-0.170	-0.208
-624.434	-157.190	0.111	-0.009
-623.419	-91.324	0.204	-0.076
-622.405	800.000	-0.053	0.226
-621.390	-39.913	0.195	0.134
-620.376	-162.078	0.257	0.017
-619.361	-200.000	-0.024	-0.372
-618.346	-60.007	-0.454	0.254
-617.332	-150.028	-0.508	0.051
-616.317	-74.495	0.289	-0.136
-615.303	-200.000	0.023	0.466
-614.288	-67.900	0.319	-0.163
-613.273	340.897	0.149	0.384
-612.259	79.711	-0.184	0.261
-611.244	-90.030	0.486	-0.185
-610.230	-200.000	-0.336	-0.001
-609.215	-64.319	-0.164	-0.087
-608.201	54.008	-0.318	-0.402
-607.186	-104.452	-0.303	0.092
-606.171	-100.427	0.311	-0.101
-605.157	5.145	0.365	0.353
-604.142	-165.191	0.444	-0.025
-603.128	-200.000	0.023	0.138
-602.113	-84.304	0.150	0.062
-601.098	-200.000	0.180	-0.001
-600.084	356.503	0.119	0.312
-599.069	-109.136	0.517	-0.143
-598.055	-33.741	-0.114	-0.083
-597.040	459.703	0.078	0.230
-596.025	-24.583	-0.167	-0.131
-595.011	-147.974	0.106	0.011
-593.996	-50.981	0.351	-0.216
-592.982	677.284	-0.183	0.629
-591.967	1.237	0.130	-0.122
-590.952	-75.893	0.275	0.127
-589.938	183.157	-0.071	-0.138
-588.923	259.287	0.071	-0.162
-587.909	-90.211	0.456	0.173
-586.894	-86.376	-0.716	0.288
-585.879	-58.439	-0.312	0.177
-584.865	-160.613	0.276	0.019
-583.850	-106.693	0.156	0.045
-582.836	-108.918	0.638	0.178
-581.821	-37.667	0.174	0.122
-580.806	800.000	-0.032	-0.166
-579.792	-98.685	0.427	-0.142
-578.777	78.548	-0.126	0.177
-577.763	141.571	0.074	0.128
-576.748	744.202	-0.087	0.309
-575.733	-115.193	-0.161	0.040
-574.719	-200.000	-0.027	0.406
-573.704	-200.000	-0.013	0.124
-572.690	-200.000	-0.030	0.271
-571.675	-164.240	-0.086	-0.005
-570.661	14.108	0.222	-0.227
-569.646	-200.000	-0.000	0.162
-568.631	26.951	-0.386	0.425
-567.617	-75.630	0.340	-0.158
-566.602	-99.238	0.063	-0.021
-565.588	-135.760	0.396	-0.061
-564.573	591.257	-0.067	-0.218
-563.558	-200.000	0.000	-0.359
-562.544	-176.661	-0.473	0.016
-561.529	113.149	-0.071	0.114
-560.515	800.000	0.084	-0.423
-559.500	-50.136	-0.283	0.175
-558.485	-200.000	0.014	0.194
-557.471	94.288	-0.263	0.393
-556.456	51.867	0.398	-0.497
-555.442	-112.786	-0.316	-0.082
-554.427	-188.600	-0.210	-0.003
-553.412	-28.537	0.319	0.240
-552.398	800.000	-0.074	-0.287
-551.383	-135.806	-0.405	0.062
-550.369	-183.780	-0.115	-0.003
-549.354	-77.782	-0.291	0.131
-548.339	-200.000	-0.084	-0.671
-547.325	-176.511	-0.274	-0.009
-546.310	19.360	-0.315	0.331
-545.296	169.465	-0.124	-0.233
-544.281	-200.000	0.029	-0.449
-543.266	-200.000	-0.022	-0.417
-542.252	-147.650	0.421	-0.046
-541.237	133.627	0.204	-0.346
-540.223	30.497	0.145	-0.162
-539.208	168.834	-0.189	-0.353
-538.193	202.175	-0.043	0.087
-537.179	-132.595	0.112	-0.019
-536.164	-93.707	-0.284	-0.102
-535.150	73.814	-0.231	-0.318
-534.135	800.000	0.067	0.314
-533.121	-200.000	0.035	0.293
-532.106	-73.729	-0.073	-0.034
-531.091	-178.614	0.589	0.017
-530.077	800.000	0.124	-0.456
-529.062	800.000	-0.025	-0.135
-528.048	-44.345	0.116	-0.076
-527.033	258.508	0.274	-0.620
-526.018	-150.626	0.408	0.040
-525.004	-90.389	0.042	0.016
-523.989	432.470	-0.139	0.396
-522.975	-75.127	-0.370	0.173
-521.960	312.847	0.155	0.382
-520.945	-85.826	0.148	-0.060
-519.931	-79.040	-0.304	0.135
-518.916	800.000	-0.098	-0.548
-517.902	342.954	0.090	-0.231
-516.887	473.802	-0.041	-0.123
-515.872	-77.876	0.134	0.060
-514.858	-27.511	-0.621	-0.472
-513.843	-116.636	0.105	0.025
-512.829	311.843	-0.208	-0.512
-511.814	-200.000	-0.088	-0.548
-510.799	276.328	-0.030	0.070
-509.785	-107.614	-0.352	-0.100
-508.770	-200.000	0.041	-0.444
-507.756	-179.831	-0.246	-0.007
-506.741	0.160	0.506	-0.472
-505.726	10.555	0.166	-0.165
-504.712	-70.161	-0.089	0.044
-503.697	-59.516	0.423	-0.237
-502.683	-79.539	0.018	-0.008
-501.668	-154.007	0.219	0.019
-500.653	-199.381	0.364	0.002
-499.639	129.381	0.163	-0.273
-498.624	236.801	-0.091	-0.198
-497.610	-62.374	-0.255	-0.139
-496.595	-129.008	-0.288	0.052
-495.581	124.325	-0.209	0.345
-494.566	-115.990	0.321	-0.078
-493.551	-124.294	-0.769	-0.156
-492.537	86.215	-0.069	-0.100
-491.522	-200.000	0.033	-0.270
-490.508	800.000	-0.049	0.206
-489.493	800.000	0.082	0.311
-488.478	-119.534	-0.218	-0.049
-487.464	-200.000	0.025	-0.279
-486.449	-96.440	0.336	0.115
-485.435	-110.758	-0.665	-0.178
-484.420	-200.000	-0.001	0.064
-483.405	-200.000	-0.005	-0.043
-482.391	-27.863	0.303	0.229
-481.376	-200.000	-0.033	0.205
-480.362	50.726	0.042	0.052
-479.347	800.000	-0.057	-0.321
-478.332	104.786	-0.395	-0.609
-477.318	252.284	0.184	-0.411
-476.303	-200.000	-0.006	0.137
-475.289	-159.313	-0.094	-0.007
-474.274	-108.835	0.511	-0.142
-473.259	-116.061	0.394	-0.095
-472.245	363.565	0.044	-0.115
-471.230	217.736	0.277	0.580
-470.216	-138.336	-0.077	-0.011
-469.201	64.270	-0.212	0.280
-468.186	-27.422	0.243	-0.184
-467.172	136.322	-0.276	-0.471
-466.157	800.000	-0.017	-0.070
-465.143	572.171	0.104	-0.334
-464.128	-37.291	0.395	-0.275
-463.113	226.711	0.211	-0.448
-462.099	237.434	0.114	-0.247
-461.084	-200.000	0.026	-0.214
-460.070	-113.568	-0.184	0.047
-459.055	-200.000	0.030	-0.271
-458.040	-133.848	0.281	0.045
-457.026	-47.888	0.296	0.187
-456.011	14.077	0.248	0.252
-454.997	-45.690	-0.526	0.339
-453.982	79.088	-0.119	-0.167
-452.968	-103.134	0.321	-0.099
-451.953	-193.013	-0.493	-0.006
-450.938	-61.412	0.232	-0.127
-449.924	-104.335	0.103	-0.031
-448.909	-200.000	-0.007	0.239
-447.895	-200.000	0.021	0.457
-446.880	-149.660	0.414	0.042
-445.865	-119.025	-0.264	-0.060
-444.851	131.640	-0.309	0.521
-443.836	-94.515	-0.338	0.120
-442.822	-165.001	0.327	0.019
-441.807	800.000	-0.095	-0.396
-440.792	306.902	-0.068	-0.166
-439.778	597.967	-0.060	-0.194
-438.763	-50.568	-0.305	-0.187
-437.749	-66.086	0.316	-0.164
-436.734	-68.540	0.172	-0.087
-435.719	-108.781	-0.418	0.116
-434.705	455.534	0.151	-0.440
-433.690	800.000	-0.013	0.060
-432.676	-96.868	-0.057	0.020
-431.661	-132.728	0.049	-0.008
-430.646	-17.800	-0.426	0.348
-429.632	286.867	-0.063	-0.150
-428.617	-162.108	-0.091	0.006
-427.603	52.807	-0.036	-0.045
-426.588	51.184	0.196	-0.243
-425.573	-200.000	0.055	0.336
-424.559	-168.602	-0.485	0.024
-423.544	-65.323	-0.150	-0.078
-422.530	237.777	-0.326	-0.709
-421.515	-200.000	0.006	0.455
-420.500	-200.000	0.003	0.091
-419.486	-12.604	0.123	-0.105
-418.471	-46.404	0.059	-0.038
-417.457	-122.705	0.100	-0.021
-416.442	-2.888	0.230	-0.209
-415.428	800.000	-0.111	0.449
-414.413	800.000	-0.069	-0.293
-413.398	-85.367	-0.072	0.029
-412.384	349.506	0.103	0.266
-411.369	115.865	0.121	0.193
-410.355	283.504	-0.076	0.178
-409.340	-200.000	0.014	0.331
-408.325	254.021	0.121	0.271
-407.311	-50.146	-0.183	0.112
-406.296	-80.518	-0.335	-0.145
-405.282	-156.118	0.337	-0.027
-404.267	378.269	0.184	0.492
-403.252	-45.126	-0.291	-0.188
-402.238	499.420	-0.120	-0.363
-401.223	144.970	0.049	-0.085
-400.209	-115.703	0.045	0.011
-399.194	-88.084	-0.143	0.056
-398.179	118.421	0.312	0.502
-397.165	652.926	0.099	0.331
-396.150	-53.585	-0.249	0.148
-395.136	92.400	0.211	0.311
-394.121	-200.000	-0.005	-0.276
-393.106	29.536	0.251	0.278
-392.092	-175.270	0.314	-0.011
-391.077	9.629	-0.396	0.391
-390.063	91.926	0.056	0.082
-389.048	-79.976	-0.211	0.092
-388.033	18.714	0.367	0.383
-387.019	-149.310	0.207	-0.021
-386.004	134.074	0.138	-0.234
-384.990	235.927	-0.083	0.179
-383.975	789.043	0.142	0.509
-382.960	-87.747	-0.330	0.129
-381.946	-156.737	-0.246	-0.019
-380.931	-81.368	-0.404	-0.172
-379.917	-24.173	0.088	0.068
-378.902	411.765	-0.086	0.239
-377.888	-69.794	-0.422	-0.209
-376.873	-198.110	0.216	0.002
-375.858	-198.455	-0.154	0.001
-374.844	100.627	-0.197	0.298
-373.829	123.282	0.268	-0.438
-372.815	-46.397	-0.305	0.194
-371.800	-145.246	-0.319	0.037
-370.785	-89.745	-0.365	0.138
-369.771	23.204	-0.167	0.179
-368.756	-18.445	-0.339	0.275
-367.742	-134.018	-0.322	0.051
-366.727	-71.962	0.134	0.064
-365.712	-98.303	-0.425	0.141
-364.698	-122.571	-0.365	0.076
-363.683	-118.597	-0.554	-0.126
-362.669	7.291	-0.208	-0.202
-361.654	800.000	0.030	0.164
-360.639	-45.992	0.320	-0.205
-359.625	-105.911	-0.049	0.014
-358.610	-200.000	-0.019	0.184
-357.596	-33.714	-0.099	-0.071
-356.581	-59.279	-0.300	-0.167
-355.566	-148.097	-0.171	0.018
-354.552	800.000	-0.045	0.200
-353.537	29.458	-0.306	-0.339
-352.523	-128.105	0.364	-0.067
-351.508	-74.940	0.402	-0.187
-350.493	800.000	-0.036	-0.158
-349.479	-67.315	0.261	0.133
-348.464	311.151	0.132	-0.324
-347.450	-131.057	-0.261	0.045
-346.435	-58.199	0.304	-0.172
-345.420	-137.095	-0.311	-0.046
-344.406	43.832	0.103	-0.123
-343.391	-90.182	-0.185	0.069
-342.377	-80.409	-0.268	-0.116
-341.362	-1.579	-0.376	-0.345
-340.348	131.395	0.283	-0.473
-339.333	-132.154	0.128	-0.021
-338.318	-150.230	0.189	-0.019
-337.304	117.658	0.307	-0.492
-336.289	416.272	0.188	-0.525
-335.275	800.000	-0.085	0.320
-334.260	-140.606	-0.106	0.014
-333.245	-200.000	0.028	-0.235
-332.231	-160.373	0.547	0.038
-331.216	218.587	0.116	-0.242
-330.202	-200.000	-0.036	0.238
-329.187	173.243	0.140	0.263
-328.172	351.503	0.064	-0.165
-327.158	257.229	0.199	0.446
-326.143	-76.249	-0.107	-0.049
-325.129	-157.301	0.083	-0.006
-324.114	405.013	-0.023	0.063
-323.099	-200.000	-0.034	-0.222
-322.085	-200.000	0.010	0.079
-321.070	125.063	-0.359	0.589
-320.056	800.000	-0.077	0.352
-319.041	595.738	0.070	0.228
-318.026	7.109	-0.171	0.165
-317.012	800.000	-0.092	0.414
-315.997	22.124	-0.024	-0.025
-314.983	-86.097	0.327	-0.130
-313.968	-0.976	0.240	0.221
-312.953	59.146	0.114	-0.145
-311.939	42.856	-0.148	0.175
-310.924	-200.000	0.007	-0.335
-309.910	-72.756	-0.032	-0.015
-308.895	-200.000	0.011	-0.476
-307.880	270.337	-0.153	0.350
-306.866	-109.064	0.422	0.116
-305.851	82.426	-0.162	-0.229
-304.837	146.610	-0.049	-0.086
-303.822	-3.095	0.039	-0.035
-302.807	-0.654	0.243	-0.224
-301.793	248.811	0.116	0.256
-300.778	-154.525	0.309	0.026
-299.764	256.561	-0.086	0.192
-298.749	-200.000	0.029	-0.201
-297.735	800.000	0.052	-0.243
-296.720	-200.000	0.011	0.485
-295.705	37.928	0.202	0.233
-294.691	-38.132	-0.232	0.159
-293.676	-80.156	0.123	-0.053
-292.662	-117.067	0.788	0.185
-291.647	-144.820	0.188	-0.022
-290.632	83.073	-0.195	0.276
-289.618	-20.182	0.154	0.123
-288.603	-182.123	0.057	-0.001
-287.589	-104.208	-0.189	-0.057
-286.574	795.849	-0.031	-0.111
-285.559	73.292	-0.245	0.333
-284.545	-126.816	-0.192	0.037
-283.530	-62.578	0.177	0.095
-282.516	181.608	-0.140	0.269
-281.501	-155.184	-0.428	-0.036
-280.486	170.548	0.086	0.161
-279.472	-179.517	-0.332	-0.009
-278.457	-56.812	-0.106	-0.060
-277.443	-109.694	-0.102	-0.028
-276.428	94.740	0.118	0.174
-275.413	-200.000	-0.036	-0.868
-274.399	-176.195	0.398	0.013
-273.384	96.613	-0.210	-0.312
-272.370	800.000	0.044	0.190
-271.355	-71.516	0.199	-0.096
-270.340	-38.894	-0.437	0.298
-269.326	468.460	-0.179	0.523
-268.311	-134.866	-0.220	-0.034
-267.297	-93.866	0.225	0.080
-266.282	-200.000	0.142	0.000
-265.267	-81.188	-0.216	-0.092
-264.253	-200.000	0.027	0.363
-263.238	-34.901	0.212	0.150
-262.224	-1.504	0.305	0.279
-261.209	-39.073	-0.293	0.200
-260.195	-42.051	0.189	-0.125
-259.180	54.685	-0.060	-0.075
-258.165	-200.000	0.004	0.127
-257.151	-79.987	0.436	-0.189
-256.136	-25.323	0.360	-0.276
-255.122	-57.276	0.043	-0.025
-254.107	50.455	-0.095	0.116
-253.092	448.002	0.036	0.103
-252.078	308.353	-0.142	-0.344
-251.063	-139.448	-0.416	0.057
-250.049	587.056	0.073	0.233
-249.034	76.770	-0.121	0.167
-248.019	-200.000	-0.024	-0.221
-247.005	-200.000	-0.061	0.666
-245.990	207.042	-0.064	0.130
-244.976	-19.274	-0.198	0.159
-243.961	-200.000	0.013	0.317
-242.946	-101.166	0.275	-0.087
-241.932	-41.740	-0.051	0.034
-240.917	-117.337	-0.475	0.111
-239.903	800.000	0.072	0.337
-238.888	-114.989	0.373	-0.091
-237.873	800.000	-0.060	0.343
-236.859	603.355	-0.028	-0.091
-235.844	169.806	-0.266	-0.494
-234.830	640.215	-0.118	-0.392
-233.815	-75.009	-0.125	-0.058
-232.800	-200.000	0.012	0.106
-231.786	-96.195	0.318	-0.109
-230.771	105.291	0.169	0.259
-229.757	108.911	0.118	-0.183
-228.742	-36.255	0.423	0.295
-227.727	75.832	0.361	-0.495
-226.713	-55.676	0.308	-0.178
-225.698	-75.157	-0.451	0.208
-224.684	-200.000	-0.035	-0.444
-223.669	36.814	-0.129	-0.148
-222.655	-75.190	-0.460	0.212
-221.640	-130.160	0.262	0.046
-220.625	-200.000	-0.040	0.296
-219.611	-159.256	-0.544	0.039
-218.596	-56.041	0.204	0.118
-217.582	-200.000	0.009	0.613
-216.567	-24.325	0.287	0.221
-215.552	242.167	-0.119	0.258
-214.538	77.095	-0.359	-0.494
-213.523	-128.936	-0.179	0.032
-212.509	80.415	0.290	-0.405
-211.494	-49.336	0.344	0.212
-210.479	-200.000	0.090	0.533
-209.465	-78.338	0.392	-0.173
-208.450	115.646	-0.210	0.332
-207.436	4.902	-0.420	-0.400
-206.421	392.850	0.170	-0.458
-205.406	-70.646	-0.165	0.080
-204.392	-133.938	0.114	-0.018
-203.377	-200.000	-0.006	0.036
-202.363	800.000	-0.054	0.232
-201.348	624.717	-0.115	-0.377
-200.333	163.119	0.214	0.390
-199.319	-200.000	0.025	0.150
-198.304	160.847	-0.091	-0.165
-197.290	285.411	-0.085	0.200
-196.275	-58.561	-0.220	0.123
-195.260	-200.000	0.005	0.119
-194.246	-78.058	0.528	0.234
-193.231	-99.511	0.528	0.171
-192.217	-85.714	-0.333	-0.133
-191.202	-200.000	0.019	0.356
-190.187	-177.623	-0.247	-0.008
-189.173	-200.000	0.024	0.171
-188.158	-200.000	0.000	0.005
-187.144	137.145	0.228	-0.386
-186.129	-5.963	-0.270	-0.238
-185.114	-42.629	0.231	-0.152
-184.100	-149.200	-0.322	0.033
-183.085	-127.647	-0.369	0.068
-182.071	-47.367	-0.121	0.076
-181.056	-82.669	-0.430	-0.179
-180.042	369.432	-0.127	0.334
-179.027	-83.089	0.334	0.138
-178.012	2.229	0.254	0.237
-176.998	800.000	-0.117	-0.461
-175.983	111.725	0.263	-0.412
-174.969	-57.598	-0.121	0.068
-173.954	-200.000	-0.032	0.331
-172.939	-28.191	0.580	0.432
-171.925	-26.397	0.213	0.161
-170.910	-130.657	0.384	-0.066
-169.896	228.334	0.071	-0.150
-168.881	-117.323	-0.540	-0.126
-167.866	-27.845	0.139	0.104
-166.852	110.960	-0.211	0.329
-165.837	-200.000	-0.059	-0.458
-164.823	-200.000	0.016	-0.215
-163.808	228.287	0.062	0.131
-162.793	65.246	0.269	-0.352
-161.779	-199.610	0.107	-0.001
-160.764	185.757	-0.153	-0.295
-159.750	-69.448	-0.228	-0.112
-158.735	800.000	-0.102	0.497
-157.720	-200.000	0.081	-0.497
-156.706	151.003	-0.182	-0.321
-155.691	-13.643	-0.090	0.075
-154.677	166.536	-0.057	-0.105
-153.662	-42.187	-0.410	-0.270
-152.647	0.172	-0.228	0.210
-151.633	60.803	0.044	-0.056
-150.618	112.633	0.126	-0.198
-149.604	-42.721	0.387	-0.253
-148.589	-54.797	0.265	-0.154
-147.574	-83.821	0.053	-0.022
-146.560	-113.028	0.409	0.104
-145.545	-200.000	0.048	-0.272
-144.531	-200.000	0.011	0.104
-143.516	-20.217	-0.181	-0.144
-142.502	535.947	0.092	0.285
-141.487	-109.533	0.309	0.084
-140.472	76.482	0.126	0.173
-139.458	800.000	-0.052	-0.258
-138.443	800.000	-0.053	-0.252
-137.429	-20.634	0.186	0.147
-136.414	-200.000	-0.029	0.539
-135.399	62.075	0.297	0.382
-134.385	-143.564	0.363	0.044
-133.370	-184.131	-0.284	-0.006
-132.356	-11.972	-0.417	-0.352
-131.341	55.318	0.180	0.225
-130.326	441.722	0.066	0.186
-129.312	-141.781	0.289	0.037
-128.297	-133.856	0.079	-0.013
-127.283	214.409	-0.079	-0.161
-126.268	-200.000	0.028	0.173
-125.253	-24.642	0.041	0.031
-124.239	-179.788	-0.418	-0.011
-123.224	130.219	-0.150	0.248
-122.210	-137.434	-0.438	-0.063
-121.195	88.483	-0.024	-0.034
-120.180	73.646	0.118	-0.160
-119.166	-130.770	-0.184	0.032
-118.151	-18.561	0.128	-0.103
-117.137	181.727	0.127	-0.242
-116.122	-81.429	-0.206	0.087
-115.107	-150.764	0.332	0.032
-114.093	74.384	0.229	-0.311
-113.078	-129.250	0.577	0.103
-112.064	-200.000	-0.039	0.421
-111.049	328.191	-0.182	0.453
-110.034	-39.001	0.301	0.204
-109.020	-141.543	0.234	-0.030
-108.005	800.000	-0.078	0.321
-106.991	800.000	-0.079	0.359
-105.976	-121.024	0.358	-0.077
-104.962	-174.696	-0.212	-0.008
-103.947	-86.523	-0.060	-0.024
-102.932	-74.808	0.244	-0.113
-101.918	687.417	0.052	-0.176
-100.903	-20.762	-0.143	-0.113
-99.889	-108.442	0.309	-0.085
-98.874	248.311	-0.334	-0.731
-97.859	800.000	0.052	-0.213
-96.845	24.246	0.158	0.168
-95.830	-49.854	0.352	-0.215
-94.816	45.637	0.165	-0.196
-93.801	-19.460	0.329	-0.262
-92.786	-200.000	0.016	-0.264
-91.772	64.029	0.294	0.381
-90.757	800.000	0.116	0.548
-89.743	-96.896	0.097	-0.033
-88.728	12.937	0.366	-0.364
-87.713	-200.000	-0.005	0.500
-86.699	-70.770	0.134	-0.065
-85.684	181.653	-0.107	0.203
-84.670	-90.143	0.238	-0.089
-83.655	56.188	0.169	0.211
-82.640	-131.563	-0.227	0.038
-81.626	800.000	0.110	-0.439
-80.611	800.000	0.065	-0.268
-79.597	228.556	0.096	0.203
-78.582	-28.027	0.377	-0.280
-77.567	800.000	0.047	0.252
-76.553	-96.596	-0.154	-0.052
-75.538	-183.872	-0.230	0.005
-74.524	8.219	0.284	-0.274
-73.509	-200.000	0.024	-0.175
-72.494	129.040	-0.262	-0.432
-71.480	-163.502	0.151	-0.009
-70.465	373.793	0.018	0.048
-69.451	800.000	-0.123	0.599
-68.436	44.149	0.211	-0.249
-67.422	48.031	0.388	-0.467
-66.407	254.994	-0.134	-0.296
-65.392	-167.369	0.187	0.010
-64.378	-161.792	0.210	-0.014
-63.363	-1.199	0.184	0.167
-62.349	-122.933	-0.313	-0.064
-61.334	28.555	-2.130	-2.318
-60.319	62.879	0.805	1.036
-59.305	260.999	-3.197	-7.142
-58.290	55.156	3.543	4.408
-57.276	385.464	3.875	10.326
-56.261	-200.000	20.105	296.835
-55.246	364.965	1287.520	3348.593
-54.232	53.111	2860.549	3524.224
-53.217	53.716	2679.988	3311.005
-52.203	36.002	2409.301	2727.265
-51.188	31.391	2074.133	2291.118
-50.173	27.787	1959.558	2122.431
-49.159	26.590	1948.896	2096.867
-48.144	26.269	1944.176	2087.985
-47.130	26.191	1941.816	2084.463
-46.115	26.157	1940.964	2083.061
-45.100	26.225	1938.912	2081.566
-44.086	26.151	1937.914	2079.564
-43.071	26.209	1935.146	2077.175
-42.057	26.090	1933.703	2074.172
-41.042	26.127	1932.870	2073.620
-40.027	26.075	1931.727	2071.711
-39.013	26.057	1929.495	2069.032
-37.998	26.060	1928.423	2067.833
-36.984	26.031	1927.843	2066.791
-35.969	25.994	1926.086	2064.401
-34.954	26.064	1924.341	2063.255
-33.940	26.095	1923.103	2062.208
-32.925	26.026	1922.350	2060.525
-31.911	26.116	1920.240	2059.209
-30.896	25.957	1920.048	2057.094
-29.881	25.873	1918.508	2054.409
-28.867	25.882	1916.450	2052.220
-27.852	25.989	1914.810	2051.613
-26.838	25.932	1914.126	2050.141
-25.823	25.945	1912.014	2047.947
-24.809	25.838	1911.955	2046.581
-23.794	25.883	1910.676	2045.639
-22.779	25.908	1908.789	2043.825
-21.765	25.864	1907.594	2041.964
-20.750	25.817	1907.596	2041.355
-19.736	25.897	1905.770	2040.230
-18.721	25.837	1903.684	2037.229
-17.706	25.857	1903.036	2036.683
-16.692	25.868	1901.967	2035.584
-15.677	25.731	1901.376	2033.320
-14.663	25.828	1899.288	2032.105
-13.648	25.780	1898.045	2030.144
-12.633	25.831	1896.858	2029.370
-11.619	25.757	1895.622	2027.130
-10.604	25.801	1894.458	2026.301
-9.590	25.767	1893.465	2024.775
-8.575	25.623	1892.881	2022.443
-7.560	25.746	1890.202	2020.898
-6.546	25.699	1889.990	2020.054
-5.531	25.619	1889.049	2018.073
-4.517	25.637	1887.361	2016.391
-3.502	25.733	1886.106	2016.048
-2.487	25.742	1885.261	2015.161
-1.473	25.861	1880.822	2011.674
-0.458	25.311	1862.954	1986.375
0.556	21.097	2006.647	2076.767
1.571	19.006	2212.669	2262.111
2.586	19.837	2252.958	2314.195
3.600	19.851	2254.620	2315.818
4.615	19.869	2254.051	2315.196
5.629	19.862	2251.598	2312.312
6.644	19.644	2250.754	2308.233
7.659	19.853	2247.809	2307.749
8.673	19.863	2246.283	2306.032
9.688	19.694	2254.441	2311.857
10.702	18.586	2333.831	2377.555
11.717	16.735	2398.374	2416.495
12.731	7.958	2377.475	2269.873
13.746	1.019	2358.613	2152.705
14.761	0.034	2354.614	2134.755
15.775	-0.021	2352.946	2132.207
16.790	-0.092	2352.619	2130.636
17.804	-0.058	2349.911	2128.413
18.819	-0.018	2348.831	2127.753
19.834	0.044	2346.571	2126.328
20.848	-0.063	2345.736	2123.796
21.863	-0.077	2343.862	2121.655
22.877	-0.012	2341.738	2120.394
23.892	-0.031	2339.375	2117.737
24.907	-0.026	2337.220	2115.601
25.921	-0.002	2335.511	2114.134
26.936	0.037	2333.803	2112.893
27.950	-0.033	2331.071	2109.173
28.965	-0.100	2329.976	2106.983
29.980	-0.088	2328.466	2105.548
30.994	0.089	2324.708	2104.382
32.009	3.864	2336.888	2168.431
33.023	13.592	2365.381	2332.849
34.038	17.687	2372.308	2397.403
35.053	17.722	2369.413	2394.683
36.067	17.551	2365.415	2387.948
37.082	17.412	2363.025	2383.283
38.096	17.568	2362.246	2384.411
39.111	17.777	2361.096	2385.907
40.126	17.864	2358.993	2384.717
41.140	18.050	2357.798	2385.827
42.155	18.053	2355.849	2383.621
43.169	18.045	2353.236	2380.582
44.184	17.821	2349.315	2373.200
45.199	17.791	2347.890	2371.047
46.213	17.989	2346.798	2372.432
47.228	18.008	2346.970	2372.588
48.242	18.149	2344.113	2371.373
49.257	18.206	2343.477	2371.248
50.271	18.221	2341.196	2368.863
51.286	17.968	2338.764	2362.598
52.301	17.895	2335.716	2358.221
53.315	18.663	2339.630	2372.569
54.330	21.909	2348.902	2426.897
55.344	24.007	2350.078	2456.969
56.359	24.249	2348.059	2457.917
57.374	24.457	2347.014	2459.413
58.388	24.513	2343.943	2456.674
59.403	24.137	2340.177	2447.238
60.417	23.823	2336.373	2438.637
61.432	23.850	2334.520	2436.785
62.447	24.018	2333.734	2437.986
63.461	24.049	2332.260	2436.578
64.476	24.285	2330.089	2437.270
65.490	23.981	2327.595	2430.199
66.505	23.276	2323.465	2415.926
67.520	20.798	2314.780	2372.705
68.534	18.334	2305.065	2328.828
69.549	17.616	2300.179	2313.814
70.563	17.598	2297.735	2310.836
71.578	17.567	2295.947	2308.340
72.593	17.699	2294.190	2308.084
73.607	17.803	2292.904	2307.926
74.622	17.696	2291.068	2304.351
75.636	17.592	2287.909	2299.490
76.651	17.520	2285.381	2295.700
77.666	17.475	2283.657	2293.084
78.680	17.443	2280.639	2289.345
79.695	17.254	2278.117	2283.982
80.709	17.001	2276.429	2278.607
81.724	16.992	2274.924	2276.711
82.739	17.057	2271.582	2273.968
83.753	17.102	2270.178	2272.886
84.768	17.071	2268.209	2270.236
85.782	16.981	2267.428	2267.965
86.797	16.852	2264.285	2262.822
87.812	16.819	2263.340	2261.163
88.826	17.088	2261.100	2262.255
89.841	17.156	2259.332	2261.129
90.855	16.981	2256.476	2255.657
91.870	17.105	2254.992	2255.566
92.884	17.176	2252.333	2253.588
93.899	17.160	2251.996	2252.757
94.914	18.030	2255.004	2267.112
95.928	21.053	2264.172	2316.465
96.943	22.068	2262.703	2328.216
97.957	19.040	2251.114	2275.819
98.972	17.146	2243.243	2242.478
99.987	16.936	2240.976	2237.159
101.001	17.043	2238.281	2235.612
102.016	16.972	2236.959	2233.094
103.030	17.106	2233.036	2230.681
104.045	16.917	2231.298	2226.178
105.060	16.953	2228.875	2223.972
106.074	16.971	2227.993	2223.064
107.089	17.137	2226.611	2223.604
108.103	17.038	2226.046	2221.470
109.118	17.254	2224.451	2222.445
110.133	17.413	2222.341	2222.159
111.147	17.237	2220.459	2217.706
112.162	17.116	2219.476	2214.878
113.176	17.347	2217.507	2215.662
114.191	17.706	2214.890	2217.483
115.206	17.566	2214.330	2214.823
116.220	17.423	2212.507	2210.868
117.235	17.507	2209.865	2209.065
118.249	17.511	2207.990	2206.977
119.264	17.519	2206.975	2205.798
120.279	17.530	2205.116	2203.826
121.293	17.542	2203.515	2202.110
122.308	17.545	2201.255	2199.635
123.322	17.487	2200.155	2197.516
124.337	17.919	2201.978	2204.674
125.352	21.010	2211.298	2253.967
126.366	21.844	2209.002	2262.176
127.381	18.844	2197.632	2211.509
128.395	17.552	2191.474	2188.371
129.410	17.322	2189.540	2183.216
130.424	17.188	2188.215	2179.898
131.439	17.478	2185.106	2180.275
132.454	17.408	2185.012	2179.019
133.468	17.643	2182.975	2179.756
134.483	17.737	2181.762	2179.482
135.497	17.739	2179.966	2177.453
136.512	17.615	2177.636	2173.277
137.527	17.492	2175.404	2169.211
138.541	17.250	2174.194	2164.648
139.556	17.173	2173.063	2162.277
140.570	17.144	2171.031	2159.632
141.585	17.082	2168.756	2156.323
142.600	17.054	2168.003	2154.954
143.614	17.040	2165.732	2152.258
144.629	16.907	2163.642	2148.229
145.643	16.900	2161.814	2146.070
146.658	16.861	2160.300	2143.816
147.673	16.827	2157.277	2140.126
148.687	16.942	2157.169	2141.224
149.702	17.055	2156.534	2141.770
150.716	17.154	2155.572	2141.807
151.731	17.051	2154.308	2138.992
152.746	17.171	2153.327	2139.282
153.760	18.136	2157.066	2154.967
154.775	21.242	2165.269	2202.336
155.789	22.238	2164.278	2213.677
156.804	19.295	2151.778	2163.545
157.819	17.358	2143.187	2130.291
158.833	17.058	2139.812	2122.915
159.848	17.030	2137.823	2120.328
160.862	17.245	2137.047	2122.006
161.877	17.299	2136.608	2121.999
162.892	17.383	2135.459	2121.654
163.906	17.390	2134.872	2120.899
164.921	17.402	2132.115	2118.063
165.935	17.319	2130.295	2114.956
166.950	17.465	2128.757	2115.003
167.964	17.539	2125.887	2112.823
168.979	17.296	2123.679	2107.344
169.994	17.087	2122.018	2102.843
171.008	16.984	2119.955	2099.263
172.023	16.882	2120.130	2097.919
173.037	17.077	2118.457	2098.440
174.052	17.323	2117.788	2100.573
175.067	17.369	2115.476	2098.605
176.081	17.135	2114.406	2094.388
177.096	17.302	2113.565	2095.380
178.110	17.549	2111.344	2095.983
179.125	17.657	2110.601	2096.329
180.140	17.495	2109.130	2092.616
181.154	17.514	2108.601	2092.068
182.169	17.764	2108.342	2094.656
183.183	18.651	2111.193	2108.191
184.198	21.966	2118.727	2156.473
185.213	22.652	2115.193	2161.071
186.227	19.359	2104.800	2109.763
187.242	17.861	2101.006	2087.300
188.256	17.654	2097.525	2081.052
189.271	17.466	2094.870	2075.868
190.286	17.293	2094.613	2073.240
191.300	17.378	2092.193	2071.637
192.315	17.388	2090.092	2069.431
193.329	17.657	2089.069	2071.462
194.344	17.955	2088.004	2073.798
195.359	17.990	2087.496	2073.476
196.373	17.612	2084.072	2065.219
197.388	17.459	2080.792	2059.857
198.402	17.148	2079.224	2054.284
199.417	17.115	2077.379	2051.810
200.432	17.173	2076.186	2051.092
201.446	17.195	2074.179	2049.122
202.461	17.170	2071.971	2046.393
203.475	17.000	2070.499	2042.641
204.490	16.975	2068.222	2039.851
205.504	16.997	2066.860	2038.531
206.519	17.034	2064.543	2036.440
207.534	16.991	2062.925	2034.083
208.548	17.094	2061.952	2034.121
209.563	17.212	2060.400	2033.776
210.577	17.289	2060.460	2034.511
211.592	17.319	2060.069	2034.249
212.607	18.880	2065.230	2057.893
213.621	22.529	2073.359	2109.752
214.636	22.005	2066.763	2096.501
215.650	18.544	2055.698	2043.644
216.665	17.394	2052.277	2026.237
217.680	17.468	2049.720	2024.347
218.694	17.117	2048.663	2018.867
219.709	17.039	2046.894	2015.956
220.723	17.247	2044.947	2016.280
221.738	17.360	2043.280	2015.743
222.753	17.487	2042.336	2016.073
223.767	17.422	2041.024	2013.772
224.782	17.308	2038.986	2010.165
225.796	17.404	2037.128	2009.229
226.811	17.343	2035.211	2006.370
227.826	17.374	2034.000	2005.310
228.840	17.383	2032.163	2003.357
229.855	17.316	2030.762	2000.951
230.869	17.191	2029.656	1998.143
231.884	17.188	2028.916	1997.136
232.899	17.352	2027.209	1997.152
233.913	17.551	2025.586	1997.666
234.928	17.462	2025.576	1996.362
235.942	17.399	2022.975	1992.816
236.957	17.419	2022.627	1992.480
237.972	17.506	2020.935	1991.599
238.986	17.328	2019.432	1987.777
240.001	17.391	2017.625	1986.501
241.015	17.705	2016.073	1988.420
242.030	18.513	2019.350	2000.900
243.045	21.472	2026.931	2042.954
244.059	21.958	2023.840	2045.289
245.074	18.952	2013.125	1999.139
246.088	17.884	2009.006	1982.356
247.103	18.146	2006.885	1983.079
248.117	17.976	2005.409	1979.405
249.132	17.668	2003.811	1974.008
250.147	17.699	2000.725	1971.083
251.161	17.712	1999.642	1969.940
252.176	17.805	1999.266	1970.411
253.190	17.947	1997.344	1969.929
254.205	18.083	1995.313	1969.266
255.220	18.186	1993.773	1968.701
256.234	17.974	1992.881	1965.134
257.249	17.610	1991.147	1958.983
258.263	17.464	1989.358	1955.294
259.278	17.407	1988.023	1953.098
260.293	17.270	1986.453	1949.737
261.307	17.244	1984.623	1947.409
262.322	17.109	1982.252	1943.296
263.336	17.064	1981.029	1941.343
264.351	17.018	1978.326	1937.936
265.366	16.933	1976.757	1935.193
266.380	16.817	1976.509	1933.391
267.395	16.977	1974.844	1933.368
268.409	16.970	1973.540	1931.779
269.424	17.129	1972.373	1932.221
270.439	17.130	1972.687	1932.309
271.453	18.299	1975.786	1948.493
272.468	21.831	1981.943	1994.791
273.482	22.025	1977.905	1992.701
274.497	18.749	1966.903	1944.154
275.512	17.399	1961.433	1923.187
276.526	17.097	1959.670	1917.799
277.541	17.147	1958.098	1916.600
278.555	17.042	1955.678	1912.820
279.570	16.849	1954.526	1909.274
280.585	17.056	1953.794	1910.672
281.599	17.151	1952.521	1910.270
282.614	17.370	1951.808	1911.823
283.628	17.735	1951.591	1915.506
284.643	17.809	1950.660	1915.191
285.657	17.935	1950.078	1915.810
286.672	18.160	1947.834	1915.913
287.687	17.932	1946.378	1911.689
288.701	17.701	1945.759	1908.250
289.716	17.864	1943.250	1907.392
290.730	17.955	1942.419	1907.370
291.745	18.116	1940.028	1906.601
292.760	18.045	1939.429	1904.985
293.774	17.816	1939.491	1902.253
294.789	17.873	1937.279	1900.500
295.803	17.733	1934.361	1895.839
296.818	17.705	1934.129	1895.076
297.833	17.986	1931.813	1895.709
298.847	17.773	1930.891	1892.207
299.862	17.767	1929.969	1891.012
300.876	18.620	1932.396	1902.678
301.891	21.955	1939.491	1946.683
302.906	22.444	1936.495	1948.879
303.920	18.944	1927.621	1900.891
304.935	17.877	1922.794	1884.069
305.949	17.912	1919.884	1881.386
306.964	17.761	1918.173	1877.808
307.979	17.965	1916.669	1878.363
308.993	18.009	1916.699	1878.663
310.008	18.361	1915.228	1880.882
311.022	18.429	1912.859	1879.078
312.037	18.311	1911.218	1875.936
313.052	18.303	1910.295	1874.724
314.066	18.319	1908.814	1873.224
315.081	18.138	1907.855	1870.064
316.095	17.965	1906.133	1866.252
317.110	17.708	1903.684	1860.816
318.125	17.525	1901.879	1856.825
319.139	17.598	1900.130	1855.692
320.154	17.670	1898.803	1854.957
321.168	17.496	1897.000	1851.078
322.183	17.266	1895.681	1847.050
323.197	17.346	1893.271	1845.361
324.212	17.165	1891.195	1841.142
325.227	17.001	1889.947	1837.921
326.241	16.951	1888.857	1836.092
327.256	17.165	1887.227	1836.617
328.270	17.083	1886.668	1834.959
329.285	17.134	1886.604	1835.238
330.300	18.173	1892.002	1851.578
331.314	21.907	1898.535	1898.444
332.329	22.088	1892.593	1894.238
333.343	18.592	1882.201	1845.856
334.358	17.077	1877.947	1825.100
335.373	16.983	1876.613	1822.569
336.387	16.871	1873.302	1817.935
337.402	16.894	1872.263	1816.952
338.416	17.008	1871.365	1817.095
339.431	17.122	1870.625	1817.382
340.446	17.301	1868.678	1817.197
341.460	17.434	1868.125	1817.868
342.475	17.723	1866.651	1819.323
343.489	17.861	1865.942	1819.884
344.504	17.847	1865.335	1818.932
345.519	18.131	1864.840	1821.275
346.533	18.493	1863.175	1823.300
347.548	18.536	1861.723	1822.116
348.562	18.649	1863.030	1824.383
349.577	19.658	1863.571	1835.478
350.592	19.403	1861.481	1830.479
351.606	19.051	1858.666	1823.741
352.621	18.692	1856.313	1817.398
353.635	18.164	1854.373	1809.658
354.650	17.945	1852.240	1805.039
355.665	17.847	1850.102	1801.696
356.679	17.791	1848.403	1799.240
357.694	17.786	1847.089	1797.685
358.708	17.551	1846.128	1794.053
359.723	18.969	1850.968	1813.575
360.738	22.301	1857.507	1855.155
361.752	21.990	1851.625	1845.768
362.767	18.992	1842.028	1804.412
363.781	17.948	1838.856	1790.097
364.796	17.686	1837.570	1785.875
365.810	17.691	1835.013	1783.225
366.825	17.702	1834.840	1782.962
367.840	17.797	1833.788	1782.725
368.854	17.872	1833.411	1782.925
369.869	18.213	1832.693	1785.600
370.883	18.209	1831.527	1784.209
371.898	18.131	1830.021	1781.709
372.913	17.905	1827.717	1776.885
373.927	18.057	1826.694	1777.272
374.942	18.020	1826.053	1776.044
375.956	18.281	1824.625	1777.167
376.971	18.259	1822.801	1774.946
377.986	17.831	1820.098	1767.649
379.000	17.556	1818.270	1762.800
380.015	17.569	1817.174	1761.666
381.029	17.367	1814.507	1756.769
382.044	17.145	1812.481	1752.291
383.059	17.115	1810.950	1750.298
384.073	17.129	1810.053	1749.365
385.088	17.150	1809.415	1748.757
386.102	17.043	1807.940	1746.015
387.117	17.073	1805.359	1743.617
388.132	17.118	1805.199	1743.724
389.146	18.360	1809.968	1760.966
390.161	21.964	1816.547	1804.468
391.175	21.684	1809.538	1794.407
392.190	18.436	1799.452	1750.885
393.205	17.486	1795.568	1737.153
394.219	17.283	1793.616	1732.979
395.234	17.179	1793.064	1731.175
396.248	17.336	1790.496	1730.090
397.263	17.067	1788.851	1725.549
398.278	17.171	1786.901	1724.518
399.292	17.136	1786.788	1723.851
400.307	17.224	1786.548	1724.311
401.321	17.446	1785.649	1725.495
402.336	17.534	1784.001	1724.594
403.350	17.702	1783.700	1725.806
404.365	18.031	1782.389	1727.671
405.380	18.179	1781.994	1728.589
406.394	18.495	1780.705	1730.342
407.409	18.798	1780.630	1733.131
408.423	18.994	1778.955	1733.277
409.438	18.664	1776.417	1727.259
410.453	18.346	1775.881	1723.315
411.467	18.454	1775.161	1723.500
412.482	18.117	1772.848	1717.646
413.496	17.823	1770.183	1711.897
414.511	17.752	1768.090	1708.949
415.526	17.664	1766.664	1706.487
416.540	17.718	1764.175	1704.417
417.555	17.690	1763.227	1703.015
418.569	17.899	1764.119	1705.773
419.584	18.027	1763.375	1706.135
420.599	17.846	1763.490	1704.224
421.613	17.640	1762.024	1700.542
422.628	17.624	1760.276	1698.494
423.642	17.632	1758.170	1696.330
424.657	17.471	1756.788	1693.183
425.672	17.729	1755.257	1694.085
426.686	17.910	1754.011	1694.487
427.701	17.783	1753.289	1692.316
428.715	18.059	1751.956	1693.585
429.730	18.236	1750.954	1694.172
430.745	18.142	1749.130	1691.272
431.759	18.077	1749.146	1690.435
432.774	18.377	1749.618	1693.667
433.788	18.792	1749.658	1697.635
434.803	19.050	1749.504	1699.838
435.818	19.106	1748.098	1698.826
436.832	18.931	1747.498	1696.304
437.847	18.083	1741.050	1681.458
438.861	10.303	1719.261	1583.982
439.876	1.830	1703.377	1486.342
440.890	0.236	1700.155	1467.748
441.905	0.144	1699.129	1465.792
442.920	0.166	1697.157	1464.127
443.934	-0.059	1697.124	1461.720
444.949	-0.037	1695.374	1460.257
445.963	0.091	1693.624	1459.827
446.978	0.046	1693.785	1459.351
447.993	0.082	1692.307	1458.252
449.007	0.070	1689.771	1455.770
450.022	0.049	1687.791	1453.690
451.036	0.077	1686.675	1452.827
452.051	0.909	1691.011	1464.479
453.066	8.845	1709.325	1557.954
454.080	17.353	1722.154	1652.897
455.095	19.418	1726.488	1677.061
456.109	20.447	1727.640	1688.034
457.124	20.967	1726.348	1691.643
458.139	21.060	1725.842	1691.854
459.153	21.139	1725.956	1692.535
460.168	21.012	1724.524	1689.690
461.182	20.963	1721.883	1686.423
462.197	20.866	1720.440	1683.862
463.212	20.782	1717.932	1680.396
464.226	20.815	1717.058	1679.661
465.241	21.061	1716.675	1681.468
466.255	21.284	1715.979	1682.739
467.270	21.292	1714.417	1681.085
468.285	21.030	1712.046	1676.032
469.299	20.697	1710.758	1671.349
470.314	20.906	1709.574	1672.014
471.328	21.104	1707.909	1672.092
472.343	21.075	1706.870	1670.594
473.358	21.146	1705.788	1670.020
474.372	21.169	1704.462	1668.740
475.387	20.916	1702.901	1664.587
476.401	20.739	1701.153	1660.976
477.416	20.767	1700.076	1660.001
478.430	21.001	1698.806	1660.803
479.445	20.749	1697.388	1656.802
480.460	20.480	1696.450	1653.117
481.474	20.786	1695.674	1655.084
482.489	21.181	1694.858	1657.860
483.503	21.410	1693.913	1658.928
484.518	21.491	1692.575	1658.193
485.533	21.519	1690.475	1656.196
486.547	21.375	1689.252	1653.436
487.562	21.604	1689.120	1655.280
488.576	21.640	1688.450	1654.767
489.591	21.513	1686.524	1651.483
490.606	21.339	1684.595	1647.744
491.620	21.412	1682.776	1646.457
492.635	21.811	1681.303	1648.597
493.649	22.087	1680.498	1650.215
494.664	21.460	1678.109	1641.752
495.679	20.574	1676.491	1631.622
496.693	20.907	1675.388	1633.490
497.708	21.242	1675.070	1636.141
498.722	21.771	1674.225	1640.096
499.737	21.725	1673.155	1638.423
500.752	21.372	1671.478	1633.268
501.766	21.207	1669.290	1629.383
502.781	21.382	1668.526	1630.080
503.795	21.583	1666.568	1629.862
504.810	21.504	1666.118	1628.481
505.825	21.787	1666.424	1631.238
506.839	21.664	1664.285	1627.802
507.854	21.705	1663.003	1626.734
508.868	21.645	1661.440	1624.447
509.883	21.647	1660.989	1623.829
510.898	22.010	1659.332	1625.397
511.912	21.799	1656.999	1620.952
512.927	21.402	1655.345	1615.457
513.941	21.504	1653.610	1614.516
514.956	21.210	1652.709	1610.714
515.971	21.145	1652.195	1609.424
516.985	21.466	1650.535	1610.585
518.000	21.579	1650.571	1611.470
519.014	21.958	1650.261	1614.484
520.029	21.920	1648.636	1612.346
521.043	22.015	1646.236	1610.683
522.058	21.783	1645.901	1608.020
523.073	21.936	1645.447	1608.796
524.087	22.131	1645.284	1610.246
525.102	22.295	1642.920	1609.246
526.116	21.787	1640.449	1601.964
527.131	21.558	1639.507	1598.754
528.146	22.113	1639.758	1603.900
529.160	22.270	1638.711	1604.120
530.175	22.237	1637.764	1602.702
531.189	22.281	1636.954	1602.121
532.204	22.485	1634.721	1601.611
533.219	21.941	1633.276	1595.028
534.233	21.460	1632.665	1589.849
535.248	21.846	1631.801	1592.343
536.262	22.392	1631.860	1597.191
537.277	22.426	1629.577	1595.078
538.292	21.980	1627.212	1588.509
539.306	22.013	1625.245	1586.702
540.321	22.043	1624.073	1585.638
541.335	21.686	1623.101	1581.268
542.350	22.020	1622.049	1583.074
543.365	22.370	1620.984	1585.015
544.379	22.404	1620.040	1584.211
545.394	22.554	1618.806	1584.172
546.408	21.952	1616.539	1576.334
547.423	21.429	1614.515	1569.449
548.438	21.585	1612.816	1569.020
549.452	21.987	1612.099	1571.748
550.467	21.988	1611.793	1571.273
551.481	22.071	1611.302	1571.352
552.496	22.112	1611.036	1571.272
553.511	22.735	1609.343	1575.026
554.525	22.613	1608.029	1572.458
555.540	22.652	1608.312	1572.895
556.554	22.684	1607.191	1571.900
557.569	22.653	1604.554	1568.853
558.583	22.451	1603.133	1565.472
559.598	22.400	1602.126	1563.847
560.613	22.429	1601.631	1563.433
561.627	22.432	1600.792	1562.453
562.642	22.676	1598.989	1562.681
563.656	23.140	1597.972	1565.632
564.671	22.925	1596.966	1562.548
565.686	22.877	1596.093	1561.075
566.700	22.688	1593.841	1557.008
567.715	22.321	1592.958	1552.703
568.729	22.181	1589.894	1548.297
569.744	21.836	1588.128	1543.339
570.759	21.942	1586.825	1542.828
571.773	22.224	1586.313	1544.635
572.788	22.510	1585.767	1546.435
573.802	22.626	1584.836	1546.369
574.817	22.759	1583.804	1546.345
575.832	23.143	1582.753	1548.517
576.846	23.081	1581.378	1546.443
577.861	22.687	1579.838	1541.294
578.875	22.873	1579.281	1542.191
579.890	23.088	1579.185	1543.804
580.905	23.134	1577.964	1542.831
581.919	23.323	1577.293	1543.644
582.934	23.353	1575.957	1542.413
583.948	23.384	1575.388	1541.945
584.963	23.169	1573.109	1537.653
585.978	22.906	1570.931	1533.041
586.992	22.986	1571.114	1533.733
588.007	23.206	1570.902	1535.259
589.021	22.395	1567.915	1525.102
590.036	21.872	1566.097	1518.598
591.051	22.356	1566.378	1522.898
592.065	22.895	1564.795	1525.861
593.080	23.119	1563.626	1526.486
594.094	23.117	1561.964	1524.660
595.109	22.586	1558.338	1516.348
596.123	22.291	1557.335	1512.637
597.138	22.666	1557.581	1515.941
598.153	22.964	1556.753	1517.523
599.167	23.064	1554.584	1516.093
600.182	23.012	1554.716	1515.588
601.196	23.245	1553.696	1516.420
602.211	23.073	1552.229	1513.329
603.226	23.240	1551.881	1514.241
604.240	23.423	1550.049	1513.846
605.255	23.564	1549.479	1514.320
606.269	23.605	1548.531	1513.561
607.284	23.413	1547.254	1510.490
608.299	23.499	1545.631	1509.458
609.313	23.319	1544.046	1506.194
610.328	23.375	1543.063	1505.532
611.342	23.451	1541.974	1504.940
612.357	23.742	1541.461	1506.740
613.372	23.643	1540.428	1504.703
614.386	23.523	1539.222	1502.323
615.401	23.480	1538.428	1501.000
616.415	23.690	1537.739	1501.932
617.430	23.732	1537.119	1501.509
618.445	23.813	1536.145	1501.068
619.459	23.624	1534.079	1497.260
620.474	23.282	1531.779	1491.940
621.488	22.586	1530.268	1484.405
622.503	22.249	1528.358	1479.523
623.518	22.828	1529.302	1485.160
624.532	23.480	1528.954	1490.155
625.547	23.662	1528.140	1490.717
626.561	24.016	1527.661	1493.054
627.576	24.100	1526.809	1492.754
628.591	23.416	1523.678	1483.760
629.605	22.952	1522.326	1478.365
630.620	22.692	1520.707	1474.426
631.634	22.365	1519.214	1470.065
632.649	22.651	1518.096	1471.200
633.663	23.164	1517.312	1474.566
634.678	23.633	1517.818	1478.808
635.693	24.046	1516.938	1481.230
636.707	24.185	1515.146	1480.459
637.722	24.301	1514.538	1480.659
638.736	24.347	1513.549	1479.901
639.751	24.191	1512.251	1477.156
640.766	24.198	1510.406	1475.235
641.780	24.228	1508.503	1473.450
642.795	24.038	1508.249	1471.446
643.809	23.989	1507.875	1470.500
644.824	24.149	1506.658	1470.460
645.839	23.963	1505.396	1467.511
646.853	24.070	1503.981	1466.846
647.868	23.967	1502.458	1464.329
648.882	23.746	1501.509	1461.401
649.897	23.901	1500.036	1461.069
650.912	23.750	1499.209	1458.848
651.926	23.751	1497.820	1457.328
652.941	23.538	1496.032	1453.662
653.955	23.067	1493.247	1446.910
654.970	22.501	1490.736	1439.656
655.985	22.599	1489.140	1438.740
656.999	22.725	1488.576	1439.063
658.014	22.926	1489.169	1441.111
659.028	23.390	1488.318	1443.912
660.043	23.720	1487.474	1445.625
661.058	23.917	1486.517	1446.130
662.072	24.035	1485.439	1445.874
663.087	23.950	1484.521	1444.115
664.101	23.732	1483.339	1441.009
665.116	24.005	1483.018	1442.753
666.131	24.001	1482.751	1442.285
667.145	24.108	1480.769	1441.055
668.160	24.315	1479.790	1441.611
669.174	24.529	1478.666	1442.082
670.189	24.360	1477.975	1439.870
671.204	24.058	1477.028	1436.323
672.218	24.118	1475.365	1435.019
673.233	24.397	1474.764	1436.520
674.247	24.706	1473.267	1437.389
675.262	24.838	1473.137	1438.154
676.276	24.601	1472.178	1435.136
677.291	24.484	1470.317	1432.207
678.306	24.097	1469.282	1427.909
679.320	24.245	1467.270	1426.973
680.335	24.431	1467.535	1428.555
681.349	24.637	1467.097	1429.612
682.364	24.646	1465.339	1427.798
683.379	24.508	1464.603	1425.808
684.393	24.386	1463.051	1423.148
685.408	24.589	1461.643	1423.229
686.422	24.350	1460.984	1420.508
687.437	24.513	1460.468	1421.137
688.452	24.812	1460.245	1423.145
689.466	24.525	1458.350	1418.833
690.481	24.457	1456.175	1416.007
691.495	24.128	1454.379	1411.473
692.510	23.363	1451.887	1402.800
693.525	22.873	1450.056	1396.962
694.539	23.261	1450.445	1400.257
695.554	24.134	1451.424	1407.977
696.568	24.699	1450.731	1411.619
697.583	24.813	1450.622	1412.250
698.598	24.801	1449.329	1410.729
699.612	24.785	1447.883	1409.024
700.627	24.831	1446.733	1408.103
701.641	24.969	1445.390	1407.711
702.656	24.765	1445.305	1405.853
703.671	25.050	1444.370	1407.025
704.685	25.168	1443.282	1406.723
705.700	24.771	1442.165	1402.344
706.714	24.680	1439.613	1398.978
707.729	24.352	1438.564	1395.214
708.744	24.400	1436.862	1393.770
709.758	24.272	1435.104	1390.894
710.773	23.653	1433.872	1384.683
711.787	23.373	1431.991	1380.504
712.802	23.770	1431.360	1382.838
713.816	24.215	1430.925	1385.730
714.831	24.519	1430.242	1387.279
715.846	24.812	1429.358	1388.546
716.860	24.847	1428.632	1387.945
717.875	24.832	1427.088	1386.159
718.889	24.748	1425.980	1384.262
719.904	24.787	1425.549	1383.983
720.919	24.927	1424.144	1383.546
721.933	24.994	1424.240	1383.992
722.948	24.978	1423.577	1383.057
723.962	25.027	1422.469	1382.191
724.977	25.109	1421.234	1381.465
725.992	25.175	1420.220	1380.825
727.006	25.013	1418.126	1377.371
728.021	25.155	1417.018	1377.225
729.035	25.300	1416.373	1377.549
730.050	25.165	1415.442	1375.442
731.065	25.173	1413.911	1373.848
732.079	25.205	1413.532	1373.562
733.094	25.150	1411.826	1371.316
734.108	24.999	1410.166	1368.381
735.123	25.139	1408.410	1367.587
736.138	25.116	1407.557	1366.419
737.152	25.131	1407.472	1366.291
738.167	25.232	1406.752	1366.197
739.181	25.260	1406.459	1365.966
740.196	25.295	1405.190	1364.835
741.211	25.383	1404.005	1364.197
742.225	25.303	1402.657	1362.115
743.240	25.230	1401.732	1360.495
744.254	25.268	1400.254	1359.186
745.269	25.118	1399.565	1357.218
746.284	25.310	1398.377	1357.357
747.298	25.033	1396.171	1352.954
748.313	24.658	1394.499	1348.326
749.327	23.975	1393.025	1341.569
750.342	23.507	1391.168	1336.077
751.356	23.152	1389.060	1331.206
752.371	23.389	1389.117	1332.895
753.386	24.444	1390.547	1342.084
754.400	25.090	1390.045	1346.321
755.415	25.460	1389.106	1348.042
756.429	25.608	1387.927	1347.849
757.444	25.311	1387.032	1344.580
758.459	25.532	1385.971	1345.052
759.473	25.520	1385.240	1344.092
760.488	25.450	1384.533	1342.724
761.502	25.475	1383.001	1341.263
762.517	25.392	1381.374	1338.902
763.532	25.169	1379.521	1335.274
764.546	24.983	1377.386	1331.662
765.561	24.321	1375.904	1325.130
766.575	23.514	1373.760	1316.885
767.590	23.398	1373.159	1315.284
768.605	24.165	1373.039	1320.732
769.619	24.671	1372.595	1323.909
770.634	24.872	1372.674	1325.325
771.648	25.204	1371.851	1326.840
772.663	25.356	1371.338	1327.313
773.678	25.403	1370.606	1326.800
774.692	25.397	1370.120	1326.120
775.707	25.510	1369.680	1326.379
776.721	25.711	1367.948	1326.031
777.736	25.714	1366.690	1324.673
778.751	25.640	1365.971	1323.270
779.765	25.664	1365.200	1322.544
780.780	25.710	1364.025	1321.586
781.794	25.656	1363.223	1320.249
782.809	25.491	1361.781	1317.485
783.824	25.116	1360.685	1313.503
784.838	24.696	1357.580	1307.262
785.853	23.879	1355.906	1299.492
786.867	24.179	1355.938	1301.571
787.882	24.569	1356.603	1304.920
788.897	24.928	1355.905	1306.729
789.911	24.985	1354.835	1305.957
790.926	25.337	1353.552	1307.141
791.940	25.445	1352.796	1307.047
792.955	25.579	1350.956	1306.090
793.969	25.575	1349.865	1304.849
794.984	25.623	1349.392	1304.586
795.999	25.728	1348.658	1304.483
797.013	25.817	1347.289	1303.653
798.028	25.807	1346.066	1302.237
799.042	25.762	1345.209	1300.924
800.057	26.022	1344.284	1301.762
801.072	25.809	1342.797	1298.621
802.086	25.890	1341.890	1298.180
803.101	25.985	1341.110	1297.953
804.115	25.874	1340.285	1296.201
805.130	25.836	1339.127	1294.648
806.145	25.788	1337.948	1293.004
807.159	25.715	1335.948	1290.391
808.174	25.569	1334.692	1287.975
809.188	25.598	1333.212	1286.602
810.203	25.170	1332.023	1282.227
811.218	24.918	1329.676	1278.006
812.232	24.462	1327.130	1272.139
813.247	23.993	1326.771	1268.280
814.261	24.595	1327.035	1272.693
815.276	25.291	1326.888	1277.381
816.291	25.538	1326.684	1278.802
817.305	25.689	1325.642	1278.717
818.320	25.671	1324.678	1277.510
819.334	25.779	1323.546	1277.031
820.349	25.919	1322.437	1276.807
821.364	25.834	1321.073	1274.736
822.378	25.885	1319.245	1273.181
823.393	25.967	1317.340	1271.768
824.407	25.890	1317.023	1270.767
825.422	25.747	1316.822	1269.403
826.437	25.719	1315.123	1267.421
827.451	25.510	1312.564	1263.325
828.466	24.697	1309.877	1254.858
829.480	24.319	1308.198	1250.430
830.495	24.582	1307.902	1251.855
831.509	25.158	1307.742	1255.601
832.524	25.471	1307.105	1257.042
833.539	25.669	1306.421	1257.627
834.553	26.040	1305.026	1258.733
835.568	26.054	1304.083	1257.776
836.582	26.094	1302.841	1256.702
837.597	26.020	1301.496	1254.738
838.612	25.813	1299.990	1251.692
839.626	25.553	1299.138	1248.905
840.641	25.299	1298.040	1245.932
841.655	24.931	1296.244	1241.492
842.670	24.466	1293.070	1235.069
843.685	23.789	1291.860	1229.063
844.699	24.541	1292.774	1235.013
845.714	25.291	1292.134	1239.465
846.728	25.428	1291.506	1239.662
847.743	25.602	1291.275	1240.500
848.758	25.762	1290.214	1240.438
849.772	25.840	1289.133	1239.794
850.787	25.979	1287.421	1238.958
851.801	25.924	1286.582	1237.621
852.816	25.816	1285.021	1235.229
853.831	25.809	1283.968	1234.019
854.845	25.587	1281.598	1230.069
855.860	25.492	1279.931	1227.664
856.874	25.298	1279.049	1225.344
857.889	24.959	1277.250	1221.153
858.904	24.659	1274.856	1216.665
859.918	24.077	1272.724	1210.509
860.933	23.928	1271.848	1208.509
861.947	24.299	1272.087	1211.128
862.962	24.913	1271.298	1214.415
863.977	24.944	1270.013	1213.259
864.991	25.247	1270.090	1215.247
866.006	25.568	1269.618	1216.836
867.020	25.628	1268.659	1216.179
868.035	25.858	1267.103	1216.102
869.049	25.924	1266.493	1215.816
870.064	25.809	1266.522	1214.921
871.079	25.990	1265.058	1214.594
872.093	25.692	1264.517	1211.911
873.108	25.685	1262.905	1210.176
874.122	25.477	1260.666	1206.482
875.137	24.973	1259.840	1202.149
876.152	24.615	1258.769	1198.567
877.166	24.994	1257.399	1199.677
878.181	25.260	1257.106	1201.038
879.195	25.632	1256.742	1203.051
880.210	25.828	1256.090	1203.598
881.225	25.829	1254.872	1202.292
882.239	25.954	1253.585	1201.757
883.254	26.051	1252.711	1201.422
884.268	26.063	1251.877	1200.560
885.283	26.038	1250.381	1198.812
886.298	25.998	1248.660	1196.750
887.312	25.962	1247.858	1195.603
888.327	25.961	1247.219	1194.836
889.341	26.078	1245.286	1193.621
890.356	25.759	1245.298	1191.366
891.371	25.581	1245.403	1190.147
892.385	25.561	1244.203	1188.722
893.400	25.508	1242.822	1186.908
894.414	25.411	1240.875	1184.266
895.429	25.121	1238.471	1179.907
896.444	24.080	1235.749	1170.299
897.458	23.516	1234.520	1165.272
898.473	24.117	1235.144	1169.695
899.487	24.993	1235.402	1175.576
900.502	25.350	1234.289	1176.731
901.517	25.633	1233.738	1177.925
902.531	25.759	1233.118	1178.021
903.546	25.669	1232.917	1177.100
904.560	25.879	1231.808	1177.280
905.575	25.898	1230.929	1176.422
906.589	25.700	1230.001	1174.095
907.604	25.746	1228.969	1173.270
