DTS Sentinel unit serial number:	SN409020Multiplexer serial number:	ORYXHardware model number:	OX4-SRSoftware version number:	ORYX F/W v3.00 Oryx Data Collector v3.7.2.0data status	okinstallation	HaddamTimeLapsedifferential loss correction	single-endedforward channel	channel 3reverse channel	N/Adate	2011/06/22time	06:11:17forward acquisition time	30.00reverse acquisition time	0.00gamma	498.7831k internal	0.1751k external	0.1751temperature offset calibration	1.0074default loss term (dB/km)	0.3790temperature slope calibration	1.3530multiplexer offset coefficient	1.0000multiplexer slope coefficient	1.0000fibre end	0.00T internal ref (°C)	22.59T ext. ref 1 (°C)	18.23T ext. ref 2 (°C)	0.18length (m)	temperature (°C)	Stokes	anti-Stokes-747.200	145.484	-0.077	-0.138
-746.185	800.000	-0.138	0.660
-745.171	-200.000	-0.007	-0.065
-744.156	521.721	0.132	-0.414
-743.142	-56.759	-0.526	-0.308
-742.127	-159.056	0.169	-0.013
-741.112	-157.297	0.424	-0.034
-740.098	-200.000	0.108	0.799
-739.083	-19.992	0.252	0.206
-738.069	260.307	-0.087	0.201
-737.054	220.091	0.201	0.430
-736.039	-200.000	0.007	-0.401
-735.025	-32.675	0.375	0.276
-734.010	-187.997	0.598	0.010
-732.996	137.635	0.183	-0.319
-731.981	-200.000	0.025	-0.393
-730.966	15.533	-0.329	0.343
-729.952	154.475	-0.134	0.244
-728.937	-103.911	0.241	0.074
-727.923	-200.000	0.031	0.351
-726.908	-109.763	0.465	0.129
-725.894	467.602	-0.163	-0.487
-724.879	-15.327	-0.102	-0.086
-723.864	119.047	0.187	-0.307
-722.850	-60.462	0.384	0.216
-721.835	-131.810	0.189	0.032
-720.821	-200.000	-0.025	0.242
-719.806	699.923	-0.204	-0.716
-718.791	-19.324	-0.363	0.298
-717.777	-3.971	0.424	0.389
-716.762	734.593	-0.018	-0.066
-715.748	27.017	0.371	-0.413
-714.733	-140.151	-0.255	-0.035
-713.718	-149.566	-0.291	-0.030
-712.704	151.533	0.090	-0.163
-711.689	-38.025	-0.118	0.083
-710.675	-200.000	-0.019	0.232
-709.660	-86.027	0.167	-0.068
-708.645	532.413	0.118	0.374
-707.631	-99.801	-0.349	0.115
-706.616	-161.791	0.193	0.013
-705.602	86.966	-0.176	-0.258
-704.587	-200.000	-0.049	0.556
-703.572	122.028	0.224	-0.371
-702.558	800.000	-0.045	-0.185
-701.543	-38.796	-0.132	-0.092
-700.529	174.625	-0.357	-0.687
-699.514	6.975	0.204	-0.202
-698.499	800.000	-0.111	0.518
-697.485	-139.131	-0.504	-0.071
-696.470	-191.575	0.178	0.002
-695.456	80.412	0.235	0.336
-694.441	-127.646	-0.269	0.051
-693.426	-110.138	-0.421	-0.116
-692.412	-136.218	0.026	-0.004
-691.397	-22.999	-0.595	0.475
-690.383	0.409	0.304	0.287
-689.368	73.619	-0.261	-0.363
-688.354	-197.601	-0.021	-0.000
-687.339	-28.057	-0.221	0.169
-686.324	-120.647	-0.293	-0.065
-685.310	-162.839	0.256	0.016
-684.295	-29.767	-0.576	-0.435
-683.281	-23.165	-0.430	-0.343
-682.266	-200.000	0.000	0.169
-681.251	243.543	-0.188	-0.420
-680.237	-188.531	0.970	-0.016
-679.222	-200.000	-0.024	0.224
-678.208	19.136	0.458	0.487
-677.193	26.165	-0.167	-0.185
-676.178	22.400	-0.196	0.212
-675.164	-139.239	-0.295	-0.042
-674.149	-200.000	0.004	-0.172
-673.135	46.927	-0.247	-0.304
-672.120	-200.000	-0.397	0.002
-671.105	-200.000	-0.019	0.296
-670.091	219.938	-0.047	0.099
-669.076	-127.471	-0.451	0.086
-668.062	-200.000	0.000	-0.549
-667.047	32.019	0.047	0.054
-666.032	-146.040	-0.470	0.054
-665.018	305.113	-0.135	-0.333
-664.003	24.441	0.072	0.079
-662.989	-82.787	-0.140	-0.060
-661.974	-200.000	-0.042	-0.357
-660.959	-33.263	0.312	-0.228
-659.945	-145.315	-0.149	-0.018
-658.930	183.962	0.229	0.450
-657.916	-200.000	0.004	-0.066
-656.901	-30.891	0.324	-0.242
-655.886	679.377	-0.062	-0.216
-654.872	-147.455	-0.190	0.021
-653.857	-25.727	-0.100	0.078
-652.843	5.268	0.155	-0.151
-651.828	-17.076	0.342	0.285
-650.814	-92.994	-0.161	-0.059
-649.799	-74.818	-0.235	-0.111
-648.784	-125.723	0.344	-0.068
-647.770	-25.391	-0.225	0.176
-646.755	279.634	-0.052	-0.124
-645.741	-81.557	0.285	0.124
-644.726	37.405	0.214	0.251
-643.711	99.177	-0.162	0.248
-642.697	-63.498	0.167	0.090
-641.682	-154.920	-0.243	-0.021
-640.668	800.000	-0.052	-0.215
-639.653	-200.000	0.054	-0.394
-638.638	41.833	0.297	-0.357
-637.624	-108.623	0.472	-0.133
-636.609	-74.604	0.240	0.114
-635.595	-103.194	-0.209	0.065
-634.580	128.232	-0.316	0.532
-633.565	18.283	-0.414	-0.437
-632.551	-200.000	0.012	-0.431
-631.536	-163.096	-0.230	0.014
-630.522	142.878	-0.147	-0.258
-629.507	342.291	-0.092	-0.240
-628.492	592.610	-0.123	-0.404
-627.478	-101.515	0.119	0.038
-626.463	108.430	0.063	0.100
-625.449	-200.000	-0.044	0.564
-624.434	553.136	0.159	0.509
-623.419	132.001	-0.202	0.345
-622.405	-200.000	0.065	0.446
-621.390	-22.745	0.638	0.509
-620.376	184.367	0.082	0.161
-619.361	-188.391	0.315	-0.005
-618.346	250.781	-0.230	-0.518
-617.332	120.239	-0.100	-0.164
-616.317	33.441	-0.169	0.194
-615.303	37.209	-0.062	0.073
-614.288	-48.654	0.259	0.164
-613.273	211.590	-0.169	-0.353
-612.259	-101.737	0.374	-0.119
-611.244	292.274	-0.077	0.186
-610.230	89.261	-0.167	0.246
-609.215	-26.882	-0.530	-0.409
-608.201	240.155	-0.251	-0.554
-607.186	3.267	0.314	-0.301
-606.171	228.756	-0.030	-0.064
-605.157	-200.000	0.011	-0.330
-604.142	800.000	0.026	-0.131
-603.128	-200.000	0.032	-0.306
-602.113	-118.894	-0.339	0.078
-601.098	-200.000	-0.004	0.462
-600.084	-73.782	0.351	0.168
-599.069	-126.820	0.454	0.088
-598.055	8.785	0.217	0.215
-597.040	246.443	0.072	-0.161
-596.025	58.263	0.294	-0.381
-595.011	-120.892	-0.179	0.040
-593.996	97.280	-0.203	-0.309
-592.982	248.249	0.090	0.203
-591.967	-18.995	0.391	-0.320
-590.952	-110.654	0.368	-0.100
-589.938	-71.536	-0.316	-0.155
-588.923	157.216	0.055	-0.100
-587.909	-63.870	0.480	0.258
-586.894	48.881	-0.094	-0.116
-585.879	366.984	-0.013	-0.035
-584.865	-92.549	-0.216	-0.080
-583.850	-168.250	0.170	0.009
-582.836	152.595	0.111	-0.200
-581.821	-200.000	0.038	0.368
-580.806	-137.943	0.314	0.046
-579.792	-70.842	0.273	0.135
-578.777	375.466	-0.067	0.180
-577.763	-31.552	0.458	0.339
-576.748	-49.459	0.465	0.292
-575.733	14.223	0.339	-0.349
-574.719	-44.178	-0.244	-0.161
-573.704	670.102	-0.161	0.553
-572.690	59.259	0.219	0.285
-571.675	145.763	0.064	-0.113
-570.661	-75.572	-0.200	-0.094
-569.646	237.837	-0.248	0.545
-568.631	-50.041	0.206	0.128
-567.617	-139.415	0.311	-0.043
-566.602	-167.752	-0.199	0.010
-565.588	-108.917	0.079	-0.022
-564.573	201.173	0.206	-0.420
-563.558	-200.000	-0.030	-0.266
-562.544	800.000	-0.017	0.086
-561.529	-200.000	0.026	-0.190
-560.515	-65.789	-0.113	0.060
-559.500	-7.994	0.180	-0.160
-558.485	102.259	-0.051	0.079
-557.471	-112.492	-0.371	-0.097
-556.456	-14.538	-0.449	-0.380
-555.442	496.007	-0.150	0.458
-554.427	-200.000	0.008	-0.057
-553.412	-141.093	-0.456	-0.061
-552.398	747.738	-0.062	-0.220
-551.383	-97.492	-0.169	0.058
-550.369	-45.814	0.315	-0.204
-549.354	-102.261	0.636	-0.200
-548.339	-88.769	-0.065	0.025
-547.325	-54.493	0.115	0.068
-546.310	47.562	-0.198	0.243
-545.296	-78.475	-0.367	0.165
-544.281	-114.736	-0.249	0.062
-543.266	443.718	-0.159	0.463
-542.252	300.904	-0.172	-0.419
-541.237	104.242	0.315	0.490
-540.223	-45.990	-0.111	-0.072
-539.208	800.000	-0.098	-0.465
-538.193	-3.779	0.348	-0.318
-537.179	-35.534	-0.176	-0.125
-536.164	-200.000	-0.005	0.659
-535.150	-125.571	-0.209	0.041
-534.135	402.672	-0.125	-0.347
-533.121	-9.491	0.382	-0.336
-532.106	-49.303	0.468	-0.293
-531.091	-26.295	-0.273	0.210
-530.077	223.529	-0.207	0.441
-529.062	-47.603	-0.054	-0.035
-528.048	-117.773	-0.197	0.046
-527.033	-200.000	-0.004	-0.536
-526.018	-124.068	-0.068	0.014
-525.004	81.336	-0.135	-0.193
-523.989	-29.515	-0.227	0.171
-522.975	800.000	0.060	0.341
-521.960	191.025	0.042	0.083
-520.945	-200.000	0.030	0.324
-519.931	-58.505	-0.075	0.043
-518.916	78.921	0.147	-0.207
-517.902	-11.474	-0.269	0.232
-516.887	-197.815	-0.827	0.006
-515.872	-81.862	-0.851	0.365
-514.858	-163.300	0.162	0.010
-513.843	-200.000	0.013	0.333
-512.829	-200.000	-0.028	-0.252
-511.814	-83.300	-0.292	0.123
-510.799	-109.850	-0.181	-0.050
-509.785	281.290	0.142	0.335
-508.770	278.289	0.227	0.533
-507.756	203.907	-0.172	-0.352
-506.741	-200.000	-0.030	-0.323
-505.726	-200.000	-0.050	-0.448
-504.712	800.000	0.098	0.394
-503.697	222.309	0.125	-0.266
-502.683	16.337	0.227	0.235
-501.668	800.000	0.066	-0.308
-500.653	-77.311	-0.380	0.173
-499.639	29.033	-0.079	-0.088
-498.624	-90.487	-0.318	0.121
-497.610	-31.302	0.079	-0.059
-496.595	290.423	-0.058	-0.140
-495.581	359.245	0.210	-0.556
-494.566	-112.170	-0.234	-0.061
-493.551	-131.117	0.053	0.009
-492.537	14.775	-0.408	0.419
-491.522	20.980	-0.300	-0.320
-490.508	70.469	0.082	0.112
-489.493	2.778	0.376	-0.359
-488.478	800.000	0.104	0.454
-487.464	-127.353	0.475	0.090
-486.449	-99.833	-0.505	-0.165
-485.435	-163.352	-0.109	-0.007
-484.420	-119.440	-0.425	-0.096
-483.405	-95.885	-0.274	0.095
-482.391	51.559	-0.082	-0.102
-481.376	-70.570	0.220	-0.109
-480.362	-92.585	-0.454	-0.166
-479.347	-109.659	-0.363	0.100
-478.332	-200.000	0.006	-0.425
-477.318	-145.741	-0.509	-0.059
-476.303	20.035	-0.211	-0.224
-475.289	152.604	-0.174	-0.314
-474.274	352.791	0.126	-0.330
-473.259	-28.491	-0.118	0.090
-472.245	-93.621	-0.413	-0.149
-471.230	-46.880	-0.209	0.134
-470.216	-126.009	-0.047	-0.009
-469.201	-80.635	-0.482	-0.210
-468.186	-200.000	-0.016	0.397
-467.172	-93.532	0.281	0.101
-466.157	-99.932	-0.074	0.024
-465.143	-48.635	-0.186	-0.117
-464.128	-154.474	0.057	0.005
-463.113	-118.046	0.206	-0.048
-462.099	-51.251	0.356	0.218
-461.084	-75.219	0.415	0.194
-460.070	800.000	-0.111	0.431
-459.055	28.868	-0.279	-0.311
-458.040	-93.678	-0.440	-0.158
-457.026	26.382	0.224	-0.246
-456.011	10.297	0.229	0.229
-454.997	-120.350	0.051	-0.011
-453.982	-198.981	-0.097	-0.001
-452.968	64.761	0.114	0.151
-451.953	-169.692	0.818	-0.038
-450.938	-90.374	-0.331	-0.126
-449.924	14.649	-0.230	-0.235
-448.909	103.516	0.119	0.184
-447.895	45.634	0.452	-0.548
-446.880	-158.746	0.466	0.035
-445.865	-200.000	0.255	-0.001
-444.851	-40.332	-0.112	0.076
-443.836	-81.853	0.197	0.084
-442.822	33.494	-0.119	0.136
-441.807	-200.000	0.018	0.544
-440.792	-21.457	-0.241	0.193
-439.778	-164.024	-0.343	0.021
-438.763	800.000	0.056	-0.238
-437.749	-84.311	0.295	-0.122
-436.734	800.000	-0.041	-0.184
-435.719	800.000	0.083	-0.315
-434.705	-200.000	-0.015	0.145
-433.690	4.497	0.046	0.044
-432.676	-105.066	0.289	-0.086
-431.661	-92.415	-0.113	0.041
-430.646	-21.335	-0.508	0.406
-429.632	481.370	-0.143	0.428
-428.617	-200.000	-0.057	0.449
-427.603	800.000	0.092	0.361
-426.588	754.096	0.014	0.050
-425.573	-120.436	0.673	-0.149
-424.559	-173.137	0.216	0.009
-423.544	7.215	0.133	-0.130
-422.530	-88.703	0.784	0.304
-421.515	616.137	0.065	0.217
-420.500	-200.000	-0.022	0.145
-419.486	489.203	-0.085	-0.256
-418.471	-53.137	0.336	-0.202
-417.457	73.666	0.225	-0.310
-416.442	-200.000	-0.017	-0.397
-415.428	-19.421	0.221	-0.180
-414.413	-128.943	0.258	-0.047
-413.398	120.419	-0.235	-0.384
-412.384	-200.000	0.010	0.227
-411.369	-200.000	0.086	-0.656
-410.355	800.000	0.132	0.485
-409.340	-75.653	0.067	0.031
-408.325	130.800	-0.157	-0.265
-407.311	-114.250	-0.047	0.012
-406.296	-200.000	-0.052	-0.355
-405.282	19.790	0.203	0.215
-404.267	15.545	-0.173	-0.178
-403.252	-200.000	0.030	-0.251
-402.238	-35.903	-0.047	-0.034
-401.223	77.526	-0.352	-0.492
-400.209	-16.183	0.170	-0.141
-399.194	800.000	0.150	-0.558
-398.179	-150.302	-0.211	0.021
-397.165	491.637	-0.116	-0.351
-396.150	506.767	-0.063	-0.193
-395.136	-49.953	0.452	-0.280
-394.121	207.894	0.105	-0.216
-393.106	800.000	0.040	-0.166
-392.092	-200.000	-0.003	0.155
-391.077	-40.121	-0.181	0.123
-390.063	-86.435	0.258	-0.103
-389.048	-200.000	0.026	0.403
-388.033	61.700	0.257	0.335
-387.019	-11.460	-0.016	0.014
-386.004	-84.402	-0.091	0.038
-384.990	800.000	-0.092	-0.341
-383.975	-153.988	0.387	-0.034
-382.960	42.358	-0.123	-0.146
-381.946	13.312	0.242	-0.245
-380.931	-123.327	0.378	-0.078
-379.917	-71.538	0.572	-0.279
-378.902	-200.000	0.025	0.358
-377.888	122.352	-0.157	0.257
-376.873	-200.000	0.007	-0.127
-375.858	122.601	-0.297	0.487
-374.844	238.472	-0.130	0.283
-373.829	-200.000	-0.022	0.333
-372.815	219.370	0.177	0.372
-371.800	-83.764	-0.116	-0.048
-370.785	-85.892	-0.285	-0.115
-369.771	-150.341	0.240	-0.024
-368.756	143.467	-0.057	-0.100
-367.742	-78.669	0.266	-0.118
-366.727	-141.850	-0.123	-0.016
-365.712	59.392	-0.221	-0.286
-364.698	2.712	-0.174	0.165
-363.683	-68.600	-0.403	-0.203
-362.669	-55.282	-0.225	0.132
-361.654	-174.678	0.433	-0.016
-360.639	-64.324	-0.112	-0.059
-359.625	-34.048	0.646	-0.464
-358.610	725.848	0.177	0.621
-357.596	-103.595	0.227	0.069
-356.581	800.000	0.047	-0.175
-355.566	146.149	0.208	0.367
-354.552	-34.395	-0.468	0.335
-353.537	146.122	-0.122	0.214
-352.523	261.096	-0.172	0.391
-351.508	36.509	-0.149	0.172
-350.493	-88.975	-0.176	0.068
-349.479	8.944	-0.100	-0.099
-348.464	-40.791	-0.342	-0.231
-347.450	22.662	-0.298	0.319
-346.435	-100.009	-0.594	-0.192
-345.420	60.367	0.165	0.214
-344.406	-189.688	-0.122	0.002
-343.391	-140.900	-0.375	-0.050
-342.377	20.848	0.193	0.204
-341.362	-70.040	-0.278	-0.138
-340.348	-200.000	0.009	0.159
-339.333	-149.395	-0.329	-0.034
-338.318	-156.266	-0.455	0.037
-337.304	-97.347	0.450	0.152
-336.289	85.983	-0.180	0.259
-335.275	-200.000	0.034	-0.212
-334.260	309.320	-0.097	0.237
-333.245	-38.307	0.130	0.090
-332.231	-200.000	-0.017	0.100
-331.216	800.000	-0.090	-0.471
-330.202	800.000	-0.064	0.348
-329.187	-200.000	0.003	0.545
-328.172	33.886	-0.112	-0.127
-327.158	-123.955	0.233	0.047
-326.143	-200.000	-0.021	0.148
-325.129	234.097	0.110	0.237
-324.114	-24.040	0.468	0.365
-323.099	214.081	-0.191	0.396
-322.085	800.000	-0.105	-0.390
-321.070	-109.626	0.437	0.120
-320.056	84.029	0.101	-0.144
-319.041	45.481	-0.319	0.384
-318.026	-200.000	0.093	0.665
-317.012	-25.319	-0.080	0.062
-315.997	-200.000	0.003	-0.204
-314.983	-56.503	-0.274	0.158
-313.968	393.745	-0.155	-0.422
-312.953	-200.000	0.037	-0.336
-311.939	-45.245	-0.506	-0.327
-310.924	31.257	-0.125	0.140
-309.910	-8.908	-0.091	-0.079
-308.895	-140.548	0.654	0.088
-307.880	800.000	-0.048	-0.203
-306.866	-49.408	-0.214	-0.133
-305.851	-62.615	-0.206	-0.111
-304.837	-145.080	-0.443	-0.052
-303.822	128.845	0.124	-0.207
-302.807	-37.313	0.218	0.152
-301.793	-158.575	0.326	0.024
-300.778	800.000	0.213	0.995
-299.764	-171.235	-0.572	-0.025
-298.749	284.835	-0.061	0.145
-297.735	164.407	-0.161	-0.298
-296.720	54.320	0.150	0.189
-295.705	29.780	-0.175	0.194
-294.691	-94.215	0.273	0.097
-293.676	19.614	0.117	0.123
-292.662	-145.281	-0.294	-0.034
-291.647	-55.994	-0.285	0.165
-290.632	-199.601	-0.251	0.002
-289.618	103.874	-0.194	-0.299
-288.603	181.251	-0.127	0.244
-287.589	-127.120	-0.259	-0.049
-286.574	176.500	-0.249	0.473
-285.559	633.554	-0.107	0.357
-284.545	284.721	-0.191	0.451
-283.530	45.133	-0.156	0.188
-282.516	728.347	-0.109	0.382
-281.501	-44.811	0.473	0.307
-280.486	18.947	-0.309	-0.323
-279.472	517.105	-0.108	0.331
-278.457	15.507	-0.307	0.314
-277.443	-94.367	0.450	-0.159
-276.428	-73.281	-0.237	-0.112
-275.413	-80.274	0.270	-0.117
-274.399	-109.005	0.230	0.063
-273.384	-81.910	0.083	0.035
-272.370	-57.638	0.209	-0.119
-271.355	122.418	0.154	0.252
-270.340	-200.000	-0.002	0.023
-269.326	58.658	0.229	0.293
-268.311	166.810	0.129	0.240
-267.297	800.000	-0.077	-0.435
-266.282	-200.000	-0.001	-0.281
-265.267	-148.349	-0.616	0.065
-264.253	79.443	-0.224	-0.313
-263.238	8.475	0.310	-0.304
-262.224	800.000	-0.058	-0.300
-261.209	-132.412	0.129	0.021
-260.195	-86.542	0.035	0.014
-259.180	-68.049	0.302	0.153
-258.165	139.326	-0.040	0.069
-257.151	-59.456	0.462	0.258
-256.136	167.123	0.143	0.266
-255.122	-36.479	-0.106	-0.074
-254.107	-200.000	0.010	0.069
-253.092	-117.252	0.639	-0.150
-252.078	-139.407	0.404	-0.056
-251.063	-93.289	0.285	-0.103
-250.049	-200.000	0.042	-0.345
-249.034	800.000	-0.085	-0.322
-248.019	-200.000	0.023	-0.480
-247.005	-82.545	-0.402	0.169
-245.990	451.366	0.145	-0.418
-244.976	800.000	0.088	-0.319
-243.961	45.404	-0.301	0.362
-242.946	-130.938	-0.140	-0.024
-241.932	-59.922	0.160	-0.089
-240.917	-50.201	-0.235	-0.144
-239.903	363.170	-0.077	0.201
-238.888	-144.068	0.282	0.034
-237.873	-200.000	0.081	0.559
-236.859	-24.013	0.209	-0.162
-235.844	193.203	0.113	0.222
-234.830	-53.472	0.389	0.231
-233.815	126.921	0.289	0.478
-232.800	-154.857	-0.326	0.028
-231.786	174.951	-0.180	0.339
-230.771	417.411	0.128	0.356
-229.757	-134.443	-0.069	-0.011
-228.742	-95.027	0.274	-0.096
-227.727	800.000	-0.028	0.133
-226.713	-45.559	-0.308	0.198
-225.698	-40.567	0.585	-0.394
-224.684	-134.490	0.158	0.025
-223.669	-91.073	0.016	-0.006
-222.655	32.649	0.222	0.250
-221.640	800.000	0.030	0.152
-220.625	124.192	0.233	0.382
-219.611	-90.652	0.152	0.057
-218.596	-35.000	-0.167	-0.118
-217.582	800.000	-0.021	0.114
-216.567	-110.831	-0.056	-0.015
-215.552	-96.960	-0.171	0.058
-214.538	-146.050	0.292	-0.033
-213.523	-54.463	0.339	-0.199
-212.509	-114.386	-0.446	-0.111
-211.494	-31.887	0.187	0.136
-210.479	98.601	0.134	0.201
-209.465	-95.063	0.342	-0.120
-208.450	-5.507	0.191	0.170
-207.436	-40.548	-0.200	0.135
-206.421	-101.336	0.258	0.081
-205.406	140.698	-0.284	0.489
-204.392	482.248	-0.003	0.010
-203.377	-200.000	-0.021	0.237
-202.363	298.498	-0.010	-0.025
-201.348	-142.803	0.014	0.002
-200.333	-43.834	-0.129	-0.084
-199.319	-100.159	0.212	0.068
-198.304	21.005	0.117	-0.124
-197.290	564.695	-0.129	-0.410
-196.275	-138.561	-0.258	0.036
-195.260	52.146	-0.141	-0.175
-194.246	-70.658	0.158	0.077
-193.231	-200.000	-0.013	0.109
-192.217	-200.000	-0.012	0.279
-191.202	193.838	-0.125	-0.247
-190.187	-109.597	0.136	0.037
-189.173	-180.880	0.530	0.014
-188.158	-6.492	0.161	-0.142
-187.144	157.667	-0.204	0.367
-186.129	184.025	0.128	0.246
-185.114	94.698	-0.267	-0.395
-184.100	-69.147	-0.393	-0.196
-183.085	380.947	-0.160	0.430
-182.071	-200.000	0.007	0.159
-181.056	12.358	-0.337	0.338
-180.042	-200.000	0.009	0.098
-179.027	-88.433	0.079	-0.030
-178.012	182.782	0.174	-0.335
-176.998	22.273	-0.218	-0.231
-175.983	800.000	0.077	-0.280
-174.969	105.059	0.364	-0.559
-173.954	-60.877	0.384	-0.210
-172.939	-30.512	-0.408	-0.300
-171.925	-22.606	-0.219	-0.172
-170.910	800.000	-0.053	0.266
-169.896	-158.669	-0.307	-0.023
-168.881	-102.389	-0.327	-0.101
-167.866	-97.638	0.278	-0.093
-166.852	-112.571	0.483	-0.124
-165.837	665.060	-0.053	0.180
-164.823	-200.000	0.039	-0.248
-163.808	-71.271	0.213	0.103
-162.793	418.685	0.246	-0.686
-161.779	-137.606	0.523	0.076
-160.764	-22.857	0.216	-0.169
-159.750	-200.000	-0.018	-0.316
-158.735	438.060	-0.082	-0.233
-157.720	81.409	-0.284	-0.399
-156.706	-200.000	-0.068	-0.587
-155.691	33.146	-0.323	-0.364
-154.677	439.614	-0.147	-0.420
-153.662	504.213	0.020	0.061
-152.647	-200.000	-0.014	-0.479
-151.633	-123.910	-0.317	-0.064
-150.618	-9.573	0.391	0.338
-149.604	-5.644	0.563	-0.500
-148.589	-200.000	-0.023	-0.292
-147.574	-34.731	-0.117	0.083
-146.560	-66.233	-0.216	-0.111
-145.545	205.323	-0.099	-0.201
-144.531	16.575	0.179	0.184
-143.516	-81.664	-0.389	-0.165
-142.502	-200.000	-0.032	0.332
-141.487	-151.589	0.790	-0.075
-140.472	83.195	-0.071	0.100
-139.458	0.194	-0.110	0.102
-138.443	-141.991	-0.247	0.032
-137.429	-81.041	0.145	-0.062
-136.414	-200.000	-0.083	0.576
-135.399	-2.576	0.164	-0.149
-134.385	-96.877	-0.248	-0.084
-133.370	-186.219	-0.392	0.007
-132.356	-86.978	0.301	0.118
-131.341	37.244	-0.181	0.208
-130.326	514.682	-0.058	0.176
-129.312	-200.000	-0.008	0.276
-128.297	-139.951	0.241	-0.033
-127.283	800.000	-0.094	-0.423
-126.268	222.370	-0.328	-0.687
-125.253	-120.678	0.219	0.048
-124.239	415.722	-0.122	-0.339
-123.224	448.359	-0.124	-0.357
-122.210	157.142	0.195	-0.351
-121.195	429.247	0.186	-0.523
-120.180	507.105	-0.065	0.195
-119.166	-147.131	-0.305	0.033
-118.151	-200.000	0.005	0.185
-117.137	800.000	0.147	-0.666
-116.122	105.175	-0.190	-0.292
-115.107	-126.212	0.055	-0.011
-114.093	175.271	-0.200	0.376
-113.078	-74.068	-0.344	0.161
-112.064	169.273	-0.216	0.401
-111.049	-86.391	0.357	-0.142
-110.034	-11.705	0.389	-0.330
-109.020	-200.000	-0.003	0.260
-108.005	-111.328	0.359	-0.094
-106.991	-174.566	-0.381	-0.014
-105.976	282.323	0.149	-0.346
-104.962	16.356	0.339	-0.346
-103.947	29.398	-0.146	-0.161
-102.932	9.363	0.421	0.412
-101.918	39.262	0.225	-0.261
-100.903	-159.709	-0.768	0.054
-99.889	-200.000	-0.063	0.581
-98.874	-100.345	0.272	0.087
-97.859	-186.007	-0.388	-0.007
-96.845	-166.364	0.409	-0.022
-95.830	800.000	-0.103	0.383
-94.816	-141.481	-0.332	-0.043
-93.801	193.820	-0.117	0.229
-92.786	-45.240	0.460	0.295
-91.772	-200.000	0.014	-0.416
-90.757	-159.085	-0.308	-0.022
-89.743	-39.047	-0.070	-0.048
-88.728	-94.399	-0.431	-0.151
-87.713	800.000	0.021	-0.083
-86.699	800.000	-0.042	0.163
-85.684	534.951	0.069	0.213
-84.670	179.183	-0.189	0.360
-83.655	28.029	-0.197	0.215
-82.640	10.090	0.210	0.207
-81.626	-89.129	-0.186	0.071
-80.611	-61.279	-0.217	-0.118
-79.597	118.664	0.221	0.354
-78.582	29.471	-0.089	0.098
-77.567	-156.533	0.353	-0.028
-76.553	-48.042	-0.424	0.264
-75.538	-128.277	0.468	0.085
-74.524	62.480	0.320	0.415
-73.509	-22.881	-0.126	0.098
-72.494	-34.234	0.143	0.101
-71.480	7.050	-0.116	0.112
-70.465	224.855	-0.097	0.204
-69.451	-148.442	0.572	0.060
-68.436	148.205	0.298	0.521
-67.422	-84.967	-0.343	0.139
-66.407	86.885	-0.205	-0.293
-65.392	-200.000	0.018	0.284
-64.378	228.513	0.166	0.352
-63.363	85.127	0.127	0.181
-62.349	101.846	-0.149	-0.226
-61.334	-16.650	-2.630	-2.150
-60.319	47.576	1.117	1.347
-59.305	202.978	-3.555	-7.127
-58.290	53.332	3.961	4.912
-57.276	406.204	3.825	10.489
-56.261	-200.000	24.513	319.313
-55.246	354.621	1302.982	3363.541
-54.232	53.045	2842.097	3519.349
-53.217	51.428	2658.954	3267.445
-52.203	31.825	2388.957	2659.449
-51.188	27.901	2054.406	2238.691
-50.173	24.383	1942.075	2075.149
-49.159	23.428	1929.283	2050.298
-48.144	22.866	1925.453	2039.620
-47.130	22.789	1923.270	2036.333
-46.115	22.827	1920.692	2033.962
-45.100	22.831	1919.128	2032.280
-44.086	22.781	1918.003	2030.425
-43.071	22.816	1916.412	2029.060
-42.057	22.682	1914.726	2025.648
-41.042	22.758	1913.937	2025.616
-40.027	22.875	1912.185	2025.029
-39.013	22.828	1911.108	2023.262
-37.998	22.769	1909.185	2020.465
-36.984	22.857	1907.530	2019.650
-35.969	22.756	1906.991	2017.845
-34.954	22.855	1905.116	2016.910
-33.940	22.692	1904.396	2014.196
-32.925	22.648	1903.610	2012.780
-31.911	22.665	1900.927	2010.058
-30.896	22.792	1900.198	2010.668
-29.881	22.652	1900.009	2008.784
-28.867	22.606	1898.049	2006.100
-27.852	22.492	1897.004	2003.613
-26.838	22.611	1894.535	2002.282
-25.823	22.555	1893.653	2000.633
-24.809	22.631	1892.073	1999.755
-23.794	22.599	1890.744	1997.901
-22.779	22.601	1890.588	1997.681
-21.765	22.537	1888.546	1994.715
-20.750	22.588	1887.281	1993.888
-19.736	22.571	1886.447	1992.726
-18.721	22.517	1885.273	1990.797
-17.706	22.517	1884.230	1989.615
-16.692	22.551	1881.966	1987.531
-15.677	22.454	1882.331	1986.745
-14.663	22.529	1879.714	1984.752
-13.648	22.495	1878.226	1982.710
-12.633	22.488	1878.169	1982.494
-11.619	22.393	1877.391	1980.524
-10.604	22.494	1874.510	1978.548
-9.590	22.498	1874.132	1978.110
-8.575	22.528	1872.356	1976.500
-7.560	22.578	1870.971	1975.514
-6.546	22.583	1869.811	1974.278
-5.531	22.470	1869.281	1972.367
-4.517	22.425	1868.435	1970.889
-3.502	22.478	1867.585	1970.508
-2.487	22.525	1866.389	1969.693
-1.473	22.793	1861.246	1967.198
-0.458	22.379	1844.287	1944.594
0.556	18.985	1991.112	2046.604
1.571	17.795	2194.537	2239.728
2.586	18.637	2233.139	2290.159
3.600	18.690	2235.264	2292.780
4.615	18.597	2235.031	2291.012
5.629	18.592	2233.302	2288.899
6.644	18.565	2231.810	2286.736
7.659	18.534	2230.156	2284.354
8.673	18.619	2227.821	2282.825
9.688	18.435	2235.513	2287.964
10.702	17.435	2316.796	2356.957
11.717	15.953	2380.058	2399.806
12.731	7.450	2360.802	2258.867
13.746	0.911	2343.683	2149.119
14.761	0.198	2339.000	2134.404
15.775	0.023	2338.045	2130.795
16.790	0.143	2336.031	2130.407
17.804	0.048	2333.799	2126.770
18.819	0.098	2334.056	2127.452
19.834	0.134	2331.519	2125.397
20.848	-0.024	2330.742	2122.188
21.863	0.021	2329.139	2121.115
22.877	0.020	2326.076	2118.063
23.892	0.039	2324.239	2116.402
24.907	-0.037	2322.267	2113.277
25.921	0.037	2320.107	2112.101
26.936	0.044	2318.541	2110.520
27.950	0.062	2315.609	2107.862
28.965	0.108	2313.473	2106.303
29.980	0.015	2312.238	2103.631
30.994	0.212	2309.082	2103.263
32.009	4.179	2322.584	2171.252
33.023	13.651	2350.537	2331.585
34.038	17.822	2357.604	2397.332
35.053	18.135	2355.462	2399.288
36.067	18.366	2353.448	2400.201
37.082	18.289	2351.409	2396.754
38.096	18.200	2349.197	2392.961
39.111	18.308	2346.753	2391.695
40.126	18.617	2343.990	2392.932
41.140	18.580	2343.705	2391.834
42.155	18.514	2341.716	2388.590
43.169	18.447	2339.159	2384.758
44.184	18.447	2335.833	2381.081
45.199	18.278	2334.702	2377.285
46.213	18.274	2334.155	2376.386
47.228	18.413	2333.044	2376.918
48.242	18.444	2330.261	2374.222
49.257	18.495	2328.030	2372.382
50.271	18.469	2326.042	2369.711
51.286	18.447	2323.804	2366.843
52.301	18.286	2322.153	2362.645
53.315	18.442	2324.213	2366.625
54.330	19.942	2326.428	2389.412
55.344	20.952	2325.337	2402.001
56.359	20.987	2322.516	2399.286
57.374	21.064	2322.192	2399.731
58.388	21.282	2318.574	2398.717
59.403	21.293	2315.600	2395.502
60.417	21.174	2312.003	2389.862
61.432	21.180	2311.043	2388.656
62.447	21.327	2310.644	2389.978
63.461	21.489	2308.381	2389.583
64.476	21.581	2306.451	2388.562
65.490	21.527	2304.617	2385.641
66.505	20.995	2301.857	2375.205
67.520	19.796	2298.064	2354.616
68.534	18.589	2292.110	2331.746
69.549	18.412	2287.787	2324.656
70.563	18.580	2285.596	2324.441
71.578	18.420	2284.677	2321.044
72.593	18.468	2282.618	2319.334
73.607	18.586	2280.609	2318.623
74.622	18.543	2278.908	2316.026
75.636	18.487	2275.779	2311.814
76.651	18.487	2274.685	2310.427
77.666	18.434	2272.876	2307.595
78.680	18.457	2270.555	2305.267
79.695	18.470	2268.601	2303.183
80.709	18.516	2267.074	2301.980
81.724	18.534	2265.338	2300.182
82.739	18.488	2262.861	2296.771
83.753	18.553	2259.523	2293.992
84.768	18.498	2257.790	2291.217
85.782	18.338	2257.785	2288.789
86.797	18.436	2254.776	2286.776
87.812	18.463	2252.860	2284.923
88.826	18.363	2252.246	2282.685
89.841	18.523	2248.893	2281.158
90.855	18.554	2246.655	2279.027
91.870	18.458	2245.675	2276.470
92.884	18.537	2243.931	2275.489
93.899	18.579	2241.345	2273.154
94.914	18.636	2243.568	2275.896
95.928	19.833	2247.646	2295.733
96.943	20.377	2244.723	2299.725
97.957	19.106	2238.595	2276.277
98.972	18.390	2234.611	2262.458
99.987	18.297	2231.758	2258.066
101.001	18.348	2229.072	2255.751
102.016	18.430	2226.691	2254.162
103.030	18.426	2224.076	2251.189
104.045	18.572	2222.164	2250.907
105.060	18.456	2220.856	2247.786
106.074	18.413	2218.791	2244.855
107.089	18.334	2217.661	2242.407
108.103	18.280	2216.529	2240.286
109.118	18.551	2213.894	2240.909
110.133	18.562	2213.337	2240.224
111.147	18.539	2211.237	2237.532
112.162	18.592	2209.786	2236.492
113.176	18.567	2207.566	2233.650
114.191	18.521	2204.969	2230.146
115.206	18.397	2204.175	2227.462
116.220	18.470	2202.833	2226.792
117.235	18.559	2199.622	2224.443
118.249	18.298	2198.661	2219.797
119.264	18.496	2196.842	2220.279
120.279	18.619	2194.850	2219.595
121.293	18.603	2192.759	2217.010
122.308	18.391	2192.367	2213.595
123.322	18.440	2190.899	2212.476
124.337	18.654	2190.694	2214.788
125.352	20.159	2194.034	2237.435
126.366	20.397	2192.639	2238.825
127.381	18.996	2186.467	2214.149
128.395	18.368	2181.665	2200.914
129.410	18.511	2179.327	2200.132
130.424	18.547	2177.676	2198.665
131.439	18.497	2176.181	2196.250
132.454	18.372	2175.020	2193.200
133.468	18.413	2172.062	2190.482
134.483	18.476	2170.710	2189.668
135.497	18.398	2169.383	2187.074
136.512	18.431	2167.377	2185.201
137.527	18.473	2164.759	2182.842
138.541	18.454	2164.292	2181.863
139.556	18.353	2163.444	2179.458
140.570	18.387	2161.904	2178.083
141.585	18.414	2159.744	2175.988
142.600	18.447	2157.820	2174.215
143.614	18.283	2156.691	2170.726
144.629	18.384	2155.205	2170.255
145.643	18.283	2153.370	2166.859
146.658	18.322	2151.776	2165.490
147.673	18.336	2149.285	2162.900
148.687	18.387	2148.690	2162.693
149.702	18.474	2147.393	2162.236
150.716	18.371	2145.889	2159.159
151.731	18.472	2144.415	2158.690
152.746	18.436	2143.599	2157.155
153.760	18.691	2144.840	2161.374
154.775	19.921	2148.624	2180.515
155.789	20.307	2145.395	2181.857
156.804	19.008	2138.152	2157.862
157.819	18.360	2133.694	2144.950
158.833	18.498	2131.350	2144.070
159.848	18.423	2129.835	2141.350
160.862	18.490	2128.387	2140.471
161.877	18.559	2126.892	2139.588
162.892	18.569	2126.075	2138.629
163.906	18.547	2125.085	2137.104
164.921	18.579	2122.588	2134.730
165.935	18.527	2120.737	2131.963
166.950	18.555	2118.963	2130.279
167.964	18.591	2116.641	2128.143
168.979	18.482	2114.937	2124.814
169.994	18.444	2113.531	2122.667
171.008	18.437	2111.997	2120.791
172.023	18.466	2110.470	2119.368
173.037	18.442	2109.354	2117.686
174.052	18.438	2107.533	2115.560
175.067	18.370	2106.355	2113.287
176.081	18.360	2104.757	2111.303
177.096	18.415	2102.962	2109.930
178.110	18.430	2100.545	2107.438
179.125	18.404	2100.223	2106.538
180.140	18.570	2099.313	2107.431
181.154	18.551	2098.242	2105.859
182.169	18.305	2097.151	2101.479
183.183	18.607	2097.130	2104.938
184.198	20.197	2099.512	2126.686
185.213	20.492	2098.777	2129.321
186.227	19.091	2093.416	2106.406
187.242	18.659	2089.305	2096.713
188.256	18.597	2087.567	2093.958
189.271	18.481	2086.536	2091.254
190.286	18.528	2084.419	2089.453
191.300	18.441	2082.346	2086.056
192.315	18.354	2080.899	2083.304
193.329	18.577	2079.156	2084.029
194.344	18.703	2078.726	2084.885
195.359	18.649	2077.526	2082.775
196.373	18.648	2074.720	2079.701
197.388	18.584	2071.817	2075.758
198.402	18.502	2070.471	2073.174
199.417	18.384	2068.101	2069.117
200.432	18.487	2066.794	2068.813
201.446	18.597	2065.299	2068.399
202.461	18.469	2064.779	2066.075
203.475	18.385	2063.232	2063.263
204.490	18.433	2060.650	2061.023
205.504	18.376	2058.243	2057.673
206.519	18.400	2056.372	2055.843
207.534	18.402	2054.652	2053.912
208.548	18.511	2053.466	2053.786
209.563	18.436	2052.605	2051.773
210.577	18.392	2051.300	2049.700
211.592	18.561	2050.140	2050.327
212.607	19.215	2052.494	2060.298
213.621	20.808	2055.879	2082.618
214.636	20.488	2050.496	2073.077
215.650	18.608	2045.891	2045.661
216.665	18.479	2042.612	2040.593
217.680	18.422	2041.672	2038.725
218.694	18.606	2039.275	2038.287
219.709	18.451	2038.071	2034.994
220.723	18.617	2036.616	2035.273
221.738	18.622	2034.257	2032.730
222.753	18.533	2032.326	2029.502
223.767	18.535	2031.460	2028.419
224.782	18.446	2029.916	2025.574
225.796	18.520	2028.454	2024.745
226.811	18.648	2027.137	2024.708
227.826	18.645	2025.149	2022.447
228.840	18.624	2024.169	2020.976
229.855	18.589	2022.709	2018.863
230.869	18.583	2020.992	2016.838
231.884	18.540	2019.584	2014.680
232.899	18.433	2017.464	2011.066
233.913	18.345	2016.725	2009.046
234.928	18.405	2015.493	2008.290
235.942	18.494	2013.226	2006.836
236.957	18.491	2011.574	2004.918
237.972	18.306	2011.693	2002.622
238.986	18.401	2010.653	2002.464
240.001	18.523	2008.381	2001.388
241.015	18.345	2007.517	1998.204
242.030	18.832	2007.029	2003.187
243.045	20.095	2009.370	2020.091
244.059	20.115	2007.023	2017.725
245.074	18.894	2001.607	1997.781
246.088	18.417	1998.176	1988.553
247.103	18.429	1997.303	1987.589
248.117	18.421	1996.014	1985.969
249.132	18.493	1994.380	1984.946
250.147	18.466	1991.997	1982.026
251.161	18.381	1989.983	1978.801
252.176	18.398	1988.828	1977.612
253.190	18.771	1986.751	1979.633
254.205	18.683	1985.353	1976.984
255.220	18.751	1983.913	1976.100
256.234	18.681	1982.434	1973.577
257.249	18.507	1982.394	1971.294
258.263	18.508	1980.793	1969.477
259.278	18.518	1979.909	1968.480
260.293	18.580	1977.902	1966.962
261.307	18.495	1975.879	1963.734
262.322	18.361	1973.629	1959.716
263.336	18.326	1972.710	1958.173
264.351	18.410	1970.524	1956.736
265.366	18.358	1969.660	1955.040
266.380	18.495	1969.266	1955.984
267.395	18.323	1967.622	1952.155
268.409	18.447	1965.331	1951.058
269.424	18.486	1963.209	1949.167
270.439	18.386	1964.665	1949.235
271.453	18.804	1963.962	1953.080
272.468	20.220	1964.880	1969.937
273.482	20.271	1962.502	1967.897
274.497	18.967	1957.454	1947.766
275.512	18.543	1953.916	1939.192
276.526	18.528	1952.041	1936.937
277.541	18.560	1949.292	1934.339
278.555	18.459	1948.552	1932.230
279.570	18.376	1946.574	1929.096
280.585	18.197	1944.862	1925.142
281.599	18.331	1943.793	1925.370
282.614	18.439	1942.902	1925.478
283.628	18.509	1941.833	1924.971
284.643	18.589	1941.961	1925.771
285.657	18.661	1940.542	1924.946
286.672	18.688	1939.301	1923.794
287.687	18.698	1936.880	1921.275
288.701	18.598	1935.865	1918.908
289.716	18.592	1934.322	1917.087
290.730	18.645	1932.270	1915.410
291.745	18.560	1930.769	1912.741
292.760	18.471	1930.537	1911.292
293.774	18.254	1930.501	1908.597
294.789	18.521	1928.259	1909.138
295.803	18.427	1925.431	1905.051
296.818	18.419	1924.487	1903.800
297.833	18.461	1922.864	1902.442
298.847	18.425	1922.692	1901.645
299.862	18.513	1920.124	1899.849
300.876	18.747	1919.604	1901.721
301.891	20.288	1922.652	1921.677
302.906	20.548	1922.108	1923.796
303.920	19.086	1915.652	1900.879
304.935	18.557	1912.788	1891.952
305.949	18.539	1910.817	1889.572
306.964	18.453	1909.607	1887.199
307.979	18.588	1908.289	1887.164
308.993	18.617	1905.995	1884.994
310.008	18.684	1904.862	1884.387
311.022	18.734	1903.364	1883.230
312.037	18.573	1902.456	1880.331
313.052	18.646	1899.495	1877.980
314.066	18.472	1898.752	1875.105
315.081	18.496	1898.390	1874.793
316.095	18.578	1897.192	1874.288
317.110	18.543	1895.029	1871.540
318.125	18.506	1893.292	1869.192
319.139	18.636	1892.201	1869.320
320.154	18.789	1890.698	1869.282
321.168	18.778	1889.302	1867.561
322.183	18.703	1888.989	1866.206
323.197	18.608	1886.045	1862.033
324.212	18.486	1883.835	1858.306
325.227	18.362	1882.914	1855.824
326.241	18.386	1881.617	1854.586
327.256	18.527	1880.122	1854.421
328.270	18.565	1880.022	1854.509
329.285	18.478	1878.902	1852.241
330.300	18.907	1881.640	1859.380
331.314	20.537	1883.292	1878.511
332.329	20.333	1879.747	1872.540
333.343	18.904	1872.984	1850.130
334.358	18.632	1870.888	1844.901
335.373	18.575	1869.714	1842.902
336.387	18.420	1867.114	1838.452
337.402	18.474	1865.868	1837.587
338.416	18.423	1865.094	1836.051
339.431	18.598	1862.658	1835.314
340.446	18.692	1861.948	1835.414
341.460	18.769	1860.266	1834.358
342.475	18.747	1858.815	1832.472
343.489	18.649	1857.402	1829.806
344.504	18.654	1856.536	1828.792
345.519	18.722	1855.666	1828.446
346.533	18.637	1853.676	1825.357
347.548	18.737	1852.933	1825.478
348.562	18.748	1851.433	1823.891
349.577	18.743	1850.445	1822.648
350.592	18.795	1848.288	1820.856
351.606	18.712	1847.419	1818.905
352.621	18.659	1845.421	1816.157
353.635	18.470	1843.358	1811.900
354.650	18.329	1842.711	1809.546
355.665	18.426	1841.117	1808.795
356.679	18.526	1839.100	1807.658
357.694	18.489	1838.120	1806.089
358.708	18.523	1836.899	1805.025
359.723	19.128	1839.765	1814.043
360.738	20.565	1840.837	1830.095
361.752	20.086	1838.026	1822.015
362.767	18.663	1833.190	1801.999
363.781	18.241	1830.503	1794.698
364.796	18.332	1829.017	1793.979
365.810	18.287	1827.925	1792.217
366.825	18.251	1826.911	1790.637
367.840	18.461	1825.454	1791.201
368.854	18.395	1824.618	1789.469
369.869	18.342	1822.742	1786.859
370.883	18.191	1820.210	1782.581
371.898	18.277	1819.800	1782.871
372.913	18.364	1818.596	1782.386
373.927	18.359	1817.490	1781.039
374.942	18.470	1815.894	1780.414
375.956	18.483	1814.751	1779.224
376.971	18.305	1812.857	1775.292
377.986	18.237	1811.115	1772.671
379.000	18.352	1810.195	1772.756
380.015	18.685	1808.587	1774.424
381.029	18.630	1807.615	1772.686
382.044	18.642	1805.679	1770.704
383.059	18.657	1804.338	1769.331
384.073	18.569	1803.127	1767.023
385.088	18.504	1801.745	1764.781
386.102	18.409	1799.605	1761.494
387.117	18.477	1797.826	1760.245
388.132	18.341	1797.390	1758.198
389.146	18.947	1799.650	1766.458
390.161	20.358	1801.856	1782.991
391.175	20.312	1796.110	1776.615
392.190	18.673	1790.702	1754.227
393.205	18.493	1788.065	1749.596
394.219	18.394	1786.605	1746.935
395.234	18.373	1785.430	1745.369
396.248	18.419	1784.139	1744.364
397.263	18.351	1781.805	1741.185
398.278	18.347	1780.078	1739.245
399.292	18.518	1778.833	1739.559
400.307	18.542	1778.395	1739.167
401.321	18.603	1777.671	1738.879
402.336	18.612	1775.622	1736.753
403.350	18.553	1774.027	1734.388
404.365	18.686	1773.350	1734.872
405.380	18.911	1772.657	1736.269
406.394	18.837	1772.056	1734.726
407.409	18.806	1770.332	1732.514
408.423	18.798	1768.587	1730.514
409.438	18.693	1766.689	1727.386
410.453	18.738	1766.188	1727.150
411.467	18.849	1764.879	1726.786
412.482	18.786	1763.692	1724.784
413.496	18.552	1762.372	1720.916
414.511	18.616	1759.855	1718.898
415.526	18.521	1757.610	1715.543
416.540	18.483	1756.613	1713.986
417.555	18.304	1756.299	1711.673
418.569	18.345	1755.453	1711.064
419.584	18.550	1755.466	1712.923
420.599	18.560	1754.969	1712.339
421.613	18.622	1753.387	1711.214
422.628	18.653	1751.470	1709.449
423.642	18.601	1750.741	1708.004
424.657	18.644	1748.484	1706.035
425.672	18.702	1746.894	1704.850
426.686	18.557	1746.291	1702.610
427.701	18.495	1744.721	1700.262
428.715	18.505	1742.391	1697.886
429.730	18.554	1741.814	1697.610
430.745	18.643	1740.457	1696.967
431.759	18.520	1740.791	1695.864
432.774	18.402	1739.572	1693.302
433.788	18.267	1739.445	1691.633
434.803	18.304	1737.915	1690.316
435.818	18.519	1736.615	1690.981
436.832	18.276	1736.365	1688.129
437.847	17.372	1729.073	1671.910
438.861	9.680	1708.677	1576.623
439.876	1.810	1694.299	1486.229
440.890	0.276	1690.380	1467.598
441.905	0.242	1688.254	1465.248
442.920	0.196	1687.146	1463.658
443.934	0.197	1685.564	1462.118
444.949	0.198	1684.718	1461.219
445.963	0.115	1684.359	1459.926
446.978	0.114	1683.826	1459.282
447.993	0.127	1681.913	1457.574
449.007	0.185	1679.682	1456.027
450.022	0.209	1677.634	1454.312
451.036	0.111	1676.922	1452.564
452.051	1.183	1681.237	1466.554
453.066	8.980	1698.161	1557.465
454.080	16.514	1710.550	1642.456
455.095	17.967	1711.857	1657.696
456.109	18.184	1711.682	1659.443
457.124	18.110	1710.769	1657.644
458.139	18.135	1709.186	1656.156
459.153	18.038	1708.681	1654.524
460.168	18.179	1705.829	1652.928
461.182	18.139	1704.723	1651.270
462.197	18.165	1703.001	1649.662
463.212	18.110	1701.303	1647.286
464.226	18.134	1700.362	1646.413
465.241	18.091	1699.722	1645.173
466.255	17.996	1698.794	1643.164
467.270	18.102	1696.952	1642.206
468.285	17.964	1696.394	1640.144
469.299	18.063	1694.557	1639.119
470.314	18.172	1692.368	1637.859
471.328	18.057	1691.236	1635.460
472.343	18.138	1690.374	1635.211
473.358	18.228	1688.193	1633.771
474.372	18.171	1687.427	1632.287
475.387	18.010	1686.851	1629.983
476.401	18.080	1685.578	1629.229
477.416	18.180	1683.950	1628.420
478.430	18.080	1682.989	1626.343
479.445	18.025	1682.478	1625.122
480.460	18.105	1680.515	1623.797
481.474	18.055	1679.829	1622.461
482.489	18.174	1678.033	1621.671
483.503	18.143	1676.865	1620.050
484.518	18.059	1675.086	1617.342
485.533	17.995	1674.400	1615.876
486.547	18.033	1673.572	1615.243
487.562	18.118	1671.796	1614.145
488.576	18.167	1670.277	1612.951
489.591	18.197	1668.818	1611.635
490.606	18.081	1668.028	1609.579
491.620	18.134	1665.817	1607.749
492.635	18.124	1663.904	1605.617
493.649	18.165	1663.067	1605.002
494.664	18.129	1662.280	1603.719
495.679	18.040	1660.439	1600.911
496.693	18.066	1659.413	1599.971
497.708	18.094	1657.990	1598.674
498.722	18.083	1657.459	1597.865
499.737	18.170	1655.795	1596.887
500.752	18.097	1654.578	1594.838
501.766	18.025	1653.082	1592.530
502.781	18.080	1651.303	1591.144
503.795	18.370	1648.924	1591.369
504.810	18.035	1648.756	1587.886
505.825	18.335	1647.586	1589.365
506.839	18.170	1647.166	1587.229
507.854	18.062	1646.085	1584.992
508.868	18.233	1643.904	1584.293
509.883	18.097	1643.220	1582.183
510.898	18.207	1642.045	1581.879
511.912	18.182	1639.722	1579.229
512.927	18.118	1638.645	1577.406
513.941	17.891	1638.139	1574.624
514.956	17.997	1636.298	1573.647
515.971	18.159	1635.094	1573.801
516.985	18.067	1634.156	1571.857
518.000	18.026	1633.381	1570.543
519.014	18.049	1632.151	1569.384
520.029	18.007	1630.389	1567.116
521.043	18.082	1629.036	1566.324
522.058	18.141	1627.897	1565.584
523.073	18.109	1626.969	1564.209
524.087	18.155	1625.928	1563.438
525.102	18.241	1624.501	1562.675
526.116	18.279	1623.303	1561.680
527.131	18.259	1621.876	1559.942
528.146	18.193	1621.564	1558.847
529.160	18.230	1619.794	1557.295
530.175	18.154	1618.899	1555.554
531.189	18.230	1617.789	1554.995
532.204	18.096	1616.777	1552.616
533.219	18.120	1615.472	1551.399
534.233	18.188	1614.244	1550.646
535.248	18.199	1613.373	1549.725
536.262	18.150	1612.539	1548.299
537.277	18.332	1610.929	1548.217
538.292	18.254	1609.025	1545.498
539.306	18.246	1607.434	1543.707
540.321	18.161	1606.339	1541.705
541.335	18.188	1605.917	1541.360
542.350	18.287	1603.722	1539.960
543.365	18.118	1602.641	1537.214
544.379	18.222	1601.502	1536.877
545.394	18.259	1599.842	1535.429
546.408	18.165	1598.373	1532.986
547.423	18.163	1597.373	1531.827
548.438	18.090	1596.851	1530.488
549.452	18.291	1595.068	1530.406
550.467	18.176	1594.013	1528.171
551.481	18.202	1593.150	1527.397
552.496	18.172	1591.903	1525.753
553.511	18.135	1591.019	1524.386
554.525	18.179	1589.811	1523.447
555.540	18.133	1589.635	1522.683
556.554	18.279	1587.715	1521.961
557.569	18.267	1585.724	1519.765
558.583	18.231	1584.734	1518.318
559.598	18.259	1583.109	1516.828
560.613	18.022	1583.036	1514.463
561.627	18.068	1581.420	1513.145
562.642	18.095	1580.012	1511.858
563.656	18.237	1579.269	1512.230
564.671	18.145	1577.811	1509.835
565.686	18.178	1576.356	1508.549
566.700	17.981	1575.691	1505.987
567.715	18.162	1573.092	1504.930
568.729	18.105	1572.317	1503.504
569.744	18.054	1571.127	1501.730
570.759	18.039	1569.977	1500.324
571.773	18.137	1569.278	1500.338
572.788	18.180	1567.920	1499.240
573.802	18.246	1566.003	1497.808
574.817	18.209	1564.056	1495.444
575.832	18.222	1563.578	1494.917
576.846	18.315	1561.971	1494.019
577.861	18.303	1560.779	1492.594
578.875	18.199	1560.736	1491.464
579.890	18.281	1559.417	1490.745
580.905	18.178	1558.110	1488.418
581.919	18.278	1557.214	1488.258
582.934	18.161	1556.591	1486.460
583.948	18.044	1556.233	1484.921
584.963	18.170	1554.462	1484.145
585.978	18.162	1552.994	1482.502
586.992	18.247	1552.402	1482.494
588.007	18.302	1551.314	1481.757
589.021	18.187	1550.859	1480.147
590.036	18.285	1548.835	1478.892
591.051	18.208	1547.944	1477.195
592.065	18.324	1545.603	1475.790
593.080	18.161	1544.436	1473.087
594.094	18.309	1542.304	1472.152
595.109	18.166	1541.277	1469.761
596.123	18.068	1540.165	1467.679
597.138	18.110	1539.318	1467.059
598.153	18.244	1537.545	1466.348
599.167	18.303	1536.091	1465.291
600.182	18.292	1535.431	1464.397
601.196	18.207	1534.026	1462.147
602.211	18.146	1533.180	1460.649
603.226	18.238	1531.963	1460.104
604.240	18.332	1530.561	1459.396
605.255	18.343	1528.866	1457.699
606.269	18.205	1528.753	1456.233
607.284	18.270	1527.645	1455.558
608.299	18.247	1525.882	1453.510
609.313	18.228	1524.864	1452.207
610.328	18.200	1524.356	1451.306
611.342	18.260	1522.469	1449.851
612.357	18.222	1521.610	1448.532
613.372	18.316	1520.240	1447.855
614.386	18.283	1519.244	1446.453
615.401	18.197	1519.231	1445.540
616.415	18.192	1518.849	1444.961
617.430	18.258	1516.953	1443.540
618.445	18.352	1515.513	1442.796
619.459	18.267	1514.580	1441.013
620.474	18.232	1513.693	1439.702
621.488	18.189	1512.608	1438.130
622.503	18.239	1511.292	1437.135
623.518	18.146	1510.155	1435.096
624.532	18.208	1509.306	1434.638
625.547	18.114	1508.597	1433.002
626.561	18.133	1508.165	1432.577
627.576	18.125	1507.224	1431.447
628.591	18.216	1505.136	1430.056
629.605	18.208	1503.402	1428.169
630.620	18.096	1502.596	1426.297
631.634	18.105	1501.831	1425.469
632.649	18.127	1500.618	1424.336
633.663	18.206	1499.759	1424.012
634.678	18.190	1497.909	1421.953
635.693	18.213	1495.916	1420.077
636.707	18.317	1495.007	1419.913
637.722	18.324	1494.143	1418.982
638.736	18.372	1492.978	1418.102
639.751	18.375	1491.647	1416.696
640.766	18.348	1490.514	1415.229
641.780	18.245	1488.670	1412.455
642.795	18.332	1488.026	1412.394
643.809	18.235	1488.066	1411.458
644.824	18.314	1486.760	1410.700
645.839	18.478	1485.327	1410.535
646.853	18.483	1484.452	1409.572
647.868	18.462	1483.074	1407.920
648.882	18.489	1481.421	1406.407
649.897	18.432	1480.129	1404.545
650.912	18.332	1479.328	1402.788
651.926	18.259	1478.261	1401.009
652.941	18.391	1476.894	1400.637
653.955	18.465	1475.016	1399.295
654.970	18.388	1474.009	1397.539
655.985	18.255	1472.976	1395.300
656.999	18.434	1471.252	1394.963
658.014	18.476	1470.406	1394.345
659.028	18.456	1469.395	1393.051
660.043	18.344	1469.363	1391.942
661.058	18.333	1467.691	1390.096
662.072	18.406	1466.093	1389.011
663.087	18.486	1464.868	1388.342
664.101	18.304	1464.159	1386.023
665.116	18.202	1463.502	1384.398
666.131	18.369	1461.953	1384.131
667.145	18.264	1460.835	1382.048
668.160	18.386	1460.110	1382.188
669.174	18.336	1458.999	1380.567
670.189	18.248	1457.441	1378.214
671.204	18.255	1457.115	1377.801
672.218	18.171	1456.755	1376.613
673.233	18.383	1454.513	1376.045
674.247	18.375	1452.882	1374.269
675.262	18.424	1452.339	1373.989
676.276	18.466	1450.903	1372.801
677.291	18.322	1450.943	1371.516
678.306	18.282	1449.501	1369.665
679.320	18.282	1448.262	1368.332
680.335	18.361	1447.802	1368.372
681.349	18.513	1446.620	1368.304
682.364	18.449	1445.067	1366.163
683.379	18.319	1444.531	1364.447
684.393	18.274	1442.648	1362.146
685.408	18.329	1441.632	1361.466
686.422	18.341	1440.732	1360.552
687.437	18.356	1440.291	1360.089
688.452	18.410	1438.894	1359.041
689.466	18.397	1437.389	1357.346
690.481	18.225	1436.253	1354.749
691.495	18.349	1436.032	1355.365
692.510	18.261	1434.813	1353.346
693.525	18.281	1433.143	1351.769
694.539	18.076	1432.089	1348.987
695.554	18.266	1431.704	1349.971
696.568	18.446	1430.449	1350.054
697.583	18.403	1429.332	1348.499
698.598	18.347	1428.351	1346.970
699.612	18.371	1427.252	1345.957
700.627	18.356	1425.775	1344.285
701.641	18.430	1424.757	1343.747
702.656	18.345	1423.821	1342.032
703.671	18.507	1423.495	1342.844
704.685	18.423	1422.757	1341.325
705.700	18.413	1421.773	1340.161
706.714	18.422	1419.715	1338.127
707.729	18.341	1418.434	1336.128
708.744	18.389	1417.628	1335.584
709.758	18.445	1416.538	1334.832
710.773	18.523	1414.889	1333.732
711.787	18.520	1413.796	1332.520
712.802	18.454	1412.596	1330.714
713.816	18.319	1412.025	1328.965
714.831	18.591	1410.908	1329.869
715.846	18.601	1410.028	1328.957
716.860	18.575	1407.961	1326.652
717.875	18.619	1406.802	1325.744
718.889	18.333	1406.441	1323.020
719.904	18.505	1404.982	1322.824
720.919	18.504	1404.304	1322.025
721.933	18.468	1404.183	1321.470
722.948	18.462	1402.990	1320.142
723.962	18.392	1401.735	1318.264
724.977	18.547	1399.885	1317.560
725.992	18.516	1398.905	1316.240
727.006	18.513	1397.886	1315.101
728.021	18.544	1396.542	1313.919
729.035	18.459	1395.284	1311.926
730.050	18.532	1394.566	1311.654
731.065	18.529	1393.415	1310.393
732.079	18.501	1392.475	1309.136
733.094	18.480	1391.478	1307.879
734.108	18.477	1390.027	1306.342
735.123	18.461	1388.802	1304.908
736.138	18.414	1388.044	1303.680
737.152	18.431	1387.216	1302.873
738.167	18.310	1386.208	1300.848
739.181	18.520	1384.823	1300.997
740.196	18.431	1384.557	1299.907
741.211	18.425	1382.646	1297.916
742.225	18.496	1382.662	1298.318
743.240	18.481	1380.393	1295.915
744.254	18.548	1379.055	1295.010
745.269	18.448	1378.716	1293.778
746.284	18.392	1378.133	1292.652
747.298	18.392	1377.314	1291.733
748.313	18.241	1375.806	1289.021
749.327	18.196	1374.543	1287.339
750.342	18.202	1374.196	1286.905
751.356	18.214	1372.719	1285.463
752.371	18.230	1371.731	1284.505
753.386	18.335	1370.438	1283.933
754.400	18.485	1369.908	1284.410
755.415	18.566	1368.551	1283.590
756.429	18.638	1366.797	1282.336
757.444	18.503	1366.187	1280.597
758.459	18.476	1365.642	1279.728
759.473	18.632	1364.538	1279.712
760.488	18.575	1363.631	1278.282
761.502	18.639	1361.725	1276.821
762.517	18.474	1361.727	1275.430
763.532	18.565	1360.201	1274.531
764.546	18.628	1358.854	1273.589
765.561	18.406	1358.753	1271.682
766.575	18.448	1357.716	1270.876
767.590	18.533	1355.631	1269.406
768.605	18.587	1354.627	1268.711
769.619	18.526	1353.595	1267.137
770.634	18.547	1352.532	1266.147
771.648	18.567	1351.512	1265.194
772.663	18.626	1350.423	1264.455
773.678	18.622	1349.527	1263.440
774.692	18.615	1348.596	1262.366
775.707	18.548	1348.579	1261.704
776.721	18.619	1347.703	1261.256
777.736	18.579	1346.443	1259.626
778.751	18.583	1345.745	1258.857
779.765	18.418	1344.623	1256.439
780.780	18.408	1344.106	1255.733
781.794	18.555	1342.639	1255.295
782.809	18.484	1341.560	1253.611
783.824	18.445	1340.692	1252.361
784.838	18.432	1338.901	1250.442
785.853	18.248	1338.191	1248.282
786.867	18.243	1338.123	1248.034
787.882	18.254	1337.816	1247.676
788.897	18.232	1336.780	1246.399
789.911	18.478	1334.827	1246.232
790.926	18.440	1334.525	1245.519
791.940	18.386	1332.448	1243.037
792.955	18.588	1331.339	1243.330
793.969	18.485	1330.392	1241.545
794.984	18.455	1329.917	1240.734
795.999	18.615	1328.727	1240.641
797.013	18.651	1326.368	1238.547
798.028	18.445	1325.816	1236.389
799.042	18.327	1325.783	1235.359
800.057	18.553	1324.532	1235.681
801.072	18.457	1323.001	1233.413
802.086	18.471	1321.575	1232.037
803.101	18.623	1320.516	1231.998
804.115	18.575	1319.925	1230.952
805.130	18.565	1318.932	1229.805
806.145	18.754	1317.319	1229.515
807.159	18.565	1316.205	1226.971
808.174	18.639	1315.037	1226.266
809.188	18.686	1314.148	1225.630
810.203	18.687	1312.060	1223.539
811.218	18.473	1311.257	1221.113
812.232	18.573	1309.107	1219.681
813.247	18.581	1308.534	1219.060
814.261	18.551	1308.200	1218.383
815.276	18.768	1307.059	1218.728
816.291	18.494	1306.438	1216.044
817.305	18.606	1305.109	1215.461
818.320	18.529	1303.558	1213.324
819.334	18.615	1302.135	1212.465
820.349	18.584	1301.091	1211.126
821.364	18.512	1299.680	1209.156
822.378	18.482	1298.427	1207.637
823.393	18.570	1296.976	1206.764
824.407	18.629	1295.222	1205.408
825.422	18.626	1294.858	1204.898
826.437	18.480	1294.142	1203.061
827.451	18.553	1292.246	1201.667
828.466	18.162	1291.523	1198.097
829.480	18.290	1289.731	1197.191
830.495	18.448	1287.829	1196.394
831.509	18.440	1287.336	1195.738
832.524	18.391	1286.783	1194.734
833.539	18.466	1285.702	1194.116
834.553	18.626	1284.184	1193.682
835.568	18.533	1283.497	1192.252
836.582	18.675	1282.041	1191.748
837.597	18.777	1280.648	1191.019
838.612	18.687	1279.591	1189.265
839.626	18.646	1278.608	1187.927
840.641	18.685	1277.017	1186.574
841.655	18.541	1277.183	1185.589
842.670	18.525	1276.008	1184.244
843.685	18.475	1274.633	1182.482
844.699	18.571	1273.362	1181.822
845.714	18.674	1272.185	1181.305
846.728	18.691	1271.306	1180.461
847.743	18.747	1270.232	1179.709
848.758	18.786	1268.733	1178.449
849.772	18.599	1267.736	1176.087
850.787	18.547	1266.896	1174.815
851.801	18.748	1265.131	1174.415
852.816	18.615	1263.871	1172.193
853.831	18.497	1262.803	1170.252
854.845	18.591	1260.975	1169.065
855.860	18.608	1259.299	1167.489
856.874	18.537	1258.239	1165.874
857.889	18.619	1256.924	1165.082
858.904	18.422	1255.836	1162.585
859.918	18.352	1254.456	1160.693
860.933	18.208	1253.255	1158.467
861.947	18.375	1252.568	1158.826
862.962	18.511	1251.053	1158.210
863.977	18.607	1249.585	1157.365
864.991	18.571	1249.311	1156.730
866.006	18.589	1249.547	1156.926
867.020	18.559	1247.860	1155.025
868.035	18.554	1247.191	1154.237
869.049	18.551	1246.073	1153.040
870.064	18.666	1244.893	1152.585
871.079	18.698	1243.745	1151.603
872.093	18.730	1243.883	1151.810
873.108	18.859	1242.598	1151.347
874.122	18.811	1241.105	1149.504
875.137	18.857	1240.948	1149.532
876.152	18.820	1239.411	1147.719
877.166	18.821	1238.195	1146.467
878.181	18.781	1237.347	1145.272
879.195	18.734	1236.605	1144.135
880.210	18.778	1235.848	1143.595
881.225	18.616	1235.133	1141.708
882.239	18.736	1233.576	1140.939
883.254	18.744	1233.036	1140.357
884.268	18.664	1232.217	1138.923
885.283	18.763	1230.587	1137.945
886.298	18.625	1229.373	1135.763
887.312	18.723	1228.194	1135.189
888.327	18.756	1227.100	1134.265
889.341	18.648	1225.812	1132.220
890.356	18.573	1225.647	1131.436
891.371	18.530	1225.251	1130.648
892.385	18.684	1224.277	1130.633
893.400	18.662	1223.069	1129.236
894.414	18.699	1221.555	1127.948
895.429	18.539	1220.144	1125.454
896.444	18.457	1218.574	1123.332
897.458	18.369	1217.788	1121.897
898.473	18.551	1216.597	1121.861
899.487	18.569	1215.952	1121.253
900.502	18.678	1215.140	1121.083
901.517	18.736	1213.900	1120.188
902.531	18.686	1213.423	1119.284
903.546	18.622	1212.653	1118.018
904.560	18.827	1211.864	1118.501
905.575	18.804	1211.186	1117.587
906.589	18.741	1210.507	1116.419
907.604	18.683	1209.621	1115.091
